wavelength spectrum_sum 3smoothed_sum spectrum_optimal 3smoothed_optimal
3507.51 29.316 15.0317 36.9211 20.424
3510.43 15.7791 20.2592 24.351 34.461
3513.34 15.6825 16.558 42.1109 34.2126
3516.26 18.2125 22.4026 36.176 35.9031
3519.17 33.3129 27.9284 29.4223 33.2929
3522.09 32.2597 28.5843 34.2804 27.3511
3525 20.1803 23.0406 18.3505 26.3207
3527.92 16.6819 23.2486 26.3312 24.4616
3530.83 32.8836 25.0592 28.7032 25.6099
3533.75 25.612 31.5365 21.7953 29.272
3536.66 36.1138 29.8664 37.3176 22.5974
3539.58 27.8735 32.0313 8.67918 28.1624
3542.5 32.1067 26.7257 38.4906 27.7431
3545.41 20.1969 21.6097 36.0594 33.5631
3548.33 12.5256 20.1855 26.1391 33.478
3551.24 27.8341 29.9153 38.2354 40.8988
3554.16 49.3863 35.2512 58.322 46.6301
3557.07 28.533 35.5478 43.333 46.7673
3559.99 28.724 31.3374 38.6469 42.2817
3562.9 36.7551 31.5634 44.8651 40.4666
3565.82 29.211 35.6739 37.8877 39.8168
3568.73 41.0556 39.6755 36.6976 44.9199
3571.65 48.7598 38.145 60.1742 40.3548
3574.56 24.6194 35.6147 24.1925 40.4622
3577.48 33.4649 30.4301 37.02 34.5541
3580.4 33.2061 34.3653 42.4498 38.6765
3583.31 36.425 36.5094 36.5597 42.5082
3586.23 39.8972 39.1538 48.5153 43.8131
3589.14 41.139 43.5785 46.3643 48.8211
3592.06 49.6992 40.0076 51.5839 48.5245
3594.97 29.1847 40.154 47.6253 49.0648
3597.89 41.5781 41.4203 47.9852 53.8435
3600.8 53.4979 50.8998 65.9201 59.3432
3603.72 57.6232 49.8731 64.1244 60.0766
3606.63 38.4983 49.7659 50.1855 57.9025
3609.55 53.1761 38.5578 59.3977 49.5974
3612.46 23.999 39.9573 39.2092 50.6955
3615.38 42.6966 38.2433 53.4795 53.0769
3618.29 48.0343 43.1352 66.5421 56.1526
3621.21 38.6748 41.6388 48.4361 59.387
3624.12 38.2074 39.0587 63.1829 49.5015
3627.04 40.294 34.9382 36.8855 45.4644
3629.95 26.3133 38.1338 36.3248 44.926
3632.87 47.7943 36.882 61.5677 47.9938
3635.79 36.5383 41.0218 46.0888 52.9799
3638.7 38.7329 42.4773 51.2832 53.5928
3641.62 52.1608 41.0825 63.4064 45.3822
3644.53 32.3539 44.9838 21.457 46.4909
3647.45 50.4366 45.0321 54.6093 42.0907
3650.36 52.3057 47.0897 50.2058 48.9667
3653.28 38.5267 45.4419 42.0852 46.1062
3656.19 45.4933 41.8147 46.0276 40.5454
3659.11 41.424 52.9966 33.5233 53.2736
3662.02 72.0726 57.2611 80.2699 61.1861
3664.94 58.2866 65.2772 69.7651 70.9033
3667.85 65.4724 58.5292 62.6749 65.4884
3670.77 51.8285 49.3356 64.0253 55.2075
3673.68 30.706 42.2201 38.9224 49.4334
3676.6 44.1258 37.7059 45.3524 42.9169
3679.51 38.2858 48.4594 44.476 47.5004
3682.43 62.9665 56.8678 52.6729 54.8906
3685.34 69.3512 65.981 67.5229 63.9831
3688.26 65.6253 60.3531 71.7535 64.2788
3691.17 46.0828 55.1597 53.56 58.8119
3694.09 53.7709 60.8382 51.1223 59.8212
3697 82.6608 58.6595 74.7815 53.983
3699.92 39.5468 66.6244 36.0452 65.6816
3702.83 77.6656 63.5881 86.2181 66.6909
3705.75 73.5519 73.4958 77.8094 75.7018
3708.66 69.27 68.4489 63.0779 61.6302
3711.58 62.5247 71.4324 44.0032 63.0006
3714.49 82.5026 64.8165 81.9207 55.1536
3717.41 49.4221 71.5818 39.5371 65.024
3720.32 82.8206 72.5409 73.6143 59.3189
3723.23 85.38 81.6598 64.8055 68.922
3726.15 76.7788 79.0557 68.3462 63.4613
3729.06 75.0083 69.3648 57.2324 66.7929
3731.98 56.3073 61.6369 74.8 61.6718
3734.89 53.5951 68.1399 52.9831 65.0737
3737.81 94.5174 66.8054 67.4378 55.6197
3740.72 52.3038 79.5814 46.4381 67.5888
3743.64 91.923 65.0094 88.8905 63.5775
3746.55 50.8014 76.9861 55.4041 81.9192
3749.47 88.234 75.1568 101.463 85.1284
3752.38 86.435 80.0086 98.5181 87.8017
3755.3 65.3569 83.7137 63.424 89.4368
3758.21 99.3494 90.324 106.368 99.5882
3761.13 106.266 107.454 128.972 108.225
3764.04 116.748 95.1875 89.3341 97.3672
3766.96 62.549 88.0767 73.7953 83.7654
3769.87 84.9334 77.9399 88.1669 93.0951
3772.78 86.3374 91.1122 117.323 106.192
3775.7 102.066 100.079 113.086 114.521
3778.61 111.832 107.769 113.154 117.654
3781.53 109.408 112.951 126.721 131.936
3784.44 117.612 108.438 155.933 138.765
3787.36 98.2953 106.144 133.64 134.242
3790.27 102.525 96.5054 113.154 124.042
3793.19 88.6961 97.0793 125.331 116.565
3796.1 100.017 86.0707 111.21 110.063
3799.01 69.4991 82.5049 93.6472 94.3955
3801.93 77.9986 81.6662 78.3291 94.2325
3804.84 97.501 89.7304 110.721 96.5088
3807.76 93.6916 87.137 100.476 99.6251
3810.67 70.2182 86.7353 87.6782 91.97
3813.59 96.2961 92.3015 87.756 100.803
3816.5 110.39 104.143 126.975 115.652
3819.42 105.744 110.116 132.224 131.584
3822.33 114.212 109.908 135.553 129.145
3825.24 109.768 105.316 119.657 120.244
3828.16 91.9679 105.671 105.521 123.124
3831.07 115.278 108.633 144.193 124.413
3833.99 118.653 124.961 123.523 133.877
3836.9 140.952 145.697 133.914 145.366
3839.81 177.485 145.004 178.661 157.439
3842.73 116.575 139.43 159.743 167.212
3845.64 124.229 119.032 163.233 147.761
3848.56 116.291 127.528 120.307 143.667
3851.47 142.063 125.169 147.46 129.816
3854.38 117.154 128.801 121.682 138.599
3857.3 127.185 121.985 146.656 133.077
3860.21 121.616 126.438 130.894 140.205
3863.13 130.511 126.918 143.064 137.456
3866.04 128.627 129.992 138.411 145.315
3868.95 130.836 129.049 154.469 142.305
3871.87 127.684 123.894 134.035 145.247
3874.78 113.161 115.736 147.236 134.479
3877.7 106.363 112.452 122.166 133.134
3880.61 117.831 119.188 129.999 130.34
3883.52 133.372 135.255 138.854 146.432
3886.44 154.563 133.665 170.443 141.044
3889.35 113.06 126.351 113.835 135.807
3892.27 111.43 116.923 123.143 116.585
3895.18 126.279 121.413 112.779 125.6
3898.09 126.529 121.791 140.879 120.339
3901.01 112.565 126.185 107.361 130.818
3903.92 139.463 130.652 144.214 133.549
3906.83 139.928 154.179 149.072 168.167
3909.75 183.146 149.809 211.213 176.908
3912.66 126.354 169.088 170.438 206.937
3915.58 197.765 170.286 239.161 209.916
3918.49 186.741 185.285 220.15 219.505
3921.4 171.349 172.775 199.204 206.731
3924.32 160.236 166.025 200.84 184.268
3927.23 166.489 165.152 152.761 177.263
3930.14 168.731 160.621 178.189 165.798
3933.06 146.643 158.783 166.444 163.787
3935.97 160.975 157.928 146.73 161.494
3938.88 166.167 152.084 171.31 152.525
3941.8 129.111 147.005 139.537 153.39
3944.71 145.736 145.304 149.324 157.291
3947.62 161.064 155.004 183.013 179.627
3950.54 158.212 171.851 206.544 204.636
3953.45 196.278 163.962 224.352 198.567
3956.36 137.395 165.191 164.804 190.631
3959.28 161.9 152.592 182.737 183.233
3962.19 158.48 167.061 202.157 184.429
3965.1 180.802 164.353 168.394 184.486
3968.02 153.778 179.693 182.909 188.539
3970.93 204.499 172.351 214.315 197.408
3973.84 158.776 174.927 195 203.511
3976.76 161.507 169.451 201.217 201.228
3979.67 188.07 173.766 207.467 193.21
3982.58 171.72 180.238 170.946 182.134
3985.49 180.926 168.131 167.987 162.515
3988.41 151.749 160.293 148.61 159.472
3991.32 148.204 154.389 161.817 165.776
3994.23 163.215 163.48 186.901 181.154
3997.15 179.019 168.052 194.742 186.583
4000.06 161.921 172.539 178.107 187.894
4002.97 176.676 165.973 190.832 189.572
4005.89 159.321 166.121 199.777 192.061
4008.8 162.365 174.143 185.574 206.742
4011.71 200.741 186.285 234.876 220.254
4014.62 195.749 191.028 240.311 221.801
4017.54 176.595 185.321 190.214 210.765
4020.45 183.62 182.867 201.77 197.83
4023.36 188.386 165.783 201.506 186.053
4026.27 125.342 148.808 154.882 174.783
4029.19 132.696 143.419 167.961 167.28
4032.1 172.221 150.705 178.996 181.323
4035.01 147.2 178.911 197.013 209.424
4037.92 217.313 186.634 252.264 216.016
4040.84 195.389 215.476 198.771 240.141
4043.75 233.728 214.821 269.388 233.217
4046.66 215.347 227.07 231.491 252.277
4049.57 232.134 222.266 255.953 254.447
4052.49 219.316 247.407 275.896 280.943
4055.4 290.771 255.173 310.979 281.464
4058.31 255.432 263.244 257.516 283.768
4061.22 243.529 250.316 282.808 269.124
4064.14 251.986 252.18 267.049 277.569
4067.05 261.025 259.271 282.851 277.559
4069.96 264.801 269.278 282.776 287.63
4072.87 282.007 282.059 297.264 305.227
4075.79 299.368 286.169 335.642 308.027
4078.7 277.133 287.146 291.176 318.809
4081.61 284.937 288.768 329.608 318.329
4084.52 304.235 292.96 334.205 339.374
4087.43 289.709 295.279 354.309 332.351
4090.35 291.893 284.432 308.54 325.566
4093.26 271.694 293.912 313.849 316.956
4096.17 318.148 300.425 328.48 325.579
4099.08 311.433 300.693 334.407 313.637
4101.99 272.498 297.277 278.024 323.324
4104.91 307.899 289.063 357.541 313.534
4107.82 286.793 310.47 305.037 333.157
4110.73 336.718 307.17 336.894 331.976
4113.64 297.999 307.1 353.997 334.997
4116.55 286.582 299.331 314.099 331.518
4119.46 313.413 280.137 326.457 303.884
4122.38 240.416 279.845 271.097 315.813
4125.29 285.707 267.768 349.884 305.616
4128.2 277.179 303.727 295.868 334.274
4131.11 348.295 304.462 357.071 308.59
4134.02 287.912 324.671 272.83 334.832
4136.93 337.808 316.795 374.595 343.888
4139.85 324.665 317.598 384.24 362.899
4142.76 290.321 315.004 329.863 360.948
4145.67 330.027 314.628 368.74 346.249
4148.58 323.536 320.182 340.143 350.175
4151.49 306.982 308.683 341.642 338.923
4154.4 295.532 311.979 334.982 350.261
4157.31 333.424 298.286 374.159 337.558
4160.22 265.901 299.246 303.533 350.211
4163.14 298.412 286.87 372.94 331.207
4166.05 296.298 303.743 317.147 350.238
4168.96 316.519 309.899 360.627 345.824
4171.87 316.88 316.359 359.697 361.035
4174.78 315.678 322.921 362.781 362.258
4177.69 336.204 324.814 364.297 368.165
4180.6 322.561 330.532 377.416 373.812
4183.51 332.832 323.444 379.724 371.856
4186.42 314.938 323.754 358.428 367.223
4189.34 323.492 333.037 363.517 369.824
4192.25 360.68 348.871 387.526 381.347
4195.16 362.439 345.506 392.997 375.495
4198.07 313.398 342.399 345.962 371.192
4200.98 351.36 343.073 374.618 372.637
4203.89 364.462 367.958 397.332 398.711
4206.8 388.053 371.585 424.183 397.668
4209.71 362.239 365.651 371.489 395.278
4212.62 346.662 363.467 390.161 399.549
4215.53 381.501 358.924 436.997 401.427
4218.44 348.61 362.806 377.122 410.216
4221.35 358.308 363.835 416.528 408.903
4224.26 384.589 369.684 433.06 405.17
4227.17 366.154 375.506 365.921 395.131
4230.08 375.774 362.302 386.411 382.507
4232.99 344.976 356.249 395.189 398.259
4235.9 347.996 350.421 413.179 404.81
4238.81 358.29 367.823 406.062 422.818
4241.73 397.182 376.025 449.213 427.344
4244.64 372.604 384.669 426.758 430.646
4247.55 384.219 383.352 415.968 426.386
4250.46 393.232 383.965 436.433 416.324
4253.37 374.444 389.191 396.572 419.107
4256.28 399.896 381.319 424.316 406.771
4259.19 369.615 367.447 399.425 406.483
4262.1 332.829 351.205 395.708 398.774
4265.01 351.172 369.079 401.188 419.15
4267.92 423.235 384.327 460.552 420.273
4270.83 378.573 382.324 399.078 415.467
4273.74 345.163 367.416 386.771 407.477
4276.65 378.514 358.612 436.581 407.678
4279.55 352.158 355.657 399.683 403.017
4282.46 336.299 369.577 372.789 422.119
4285.37 420.273 391.106 493.884 447.467
4288.28 416.745 420.914 475.73 481.527
4291.19 425.723 407.005 474.967 465.427
4294.1 378.546 402.712 445.585 452.83
4297.01 403.869 384.988 437.94 440.43
4299.92 372.549 406.79 437.767 457.826
4302.83 443.952 411.658 497.772 462.781
4305.74 418.474 431.238 452.806 472.359
4308.65 431.289 416.334 466.5 457.906
4311.56 399.238 433.8 454.411 479.001
4314.47 470.874 434.731 516.092 479.212
4317.38 434.08 443.86 467.133 484.653
4320.29 426.625 426.431 470.733 464.605
4323.2 418.588 443.498 455.948 480.923
4326.11 485.282 432.47 516.087 472.796
4329.01 393.541 428.455 446.353 493.287
4331.92 406.542 422.073 517.421 488.151
4334.83 466.136 435.532 500.678 502.103
4337.74 433.919 436.258 488.209 483.554
4340.65 408.719 422.698 461.774 466.714
4343.56 425.457 418.466 450.16 454.309
4346.47 421.223 416.903 450.992 449.094
4349.38 404.03 413.413 446.132 452.632
4352.29 414.987 410.414 460.773 468.829
4355.19 412.226 424.14 499.582 494.547
4358.1 445.206 419.281 523.286 489.262
4361.01 400.411 413.585 444.918 475.832
4363.92 395.137 399.031 459.291 448.395
4366.83 401.546 403.658 440.976 458.787
4369.74 414.29 397.907 476.093 450.879
4372.65 377.885 389.694 435.569 452.944
4375.55 376.907 386.79 447.17 446.122
4378.46 405.578 416.876 455.627 481.48
4381.37 468.145 438.316 541.643 507.597
4384.28 441.227 449.465 525.522 523.129
4387.19 439.025 439.477 502.223 508.569
4390.09 438.18 453.833 497.962 511.384
4393 484.296 470.009 533.967 522.462
4395.91 487.552 472.378 535.456 521.198
4398.82 445.288 458.256 494.172 509.78
4401.73 441.927 449.316 499.713 503.928
4404.63 460.733 458.235 517.898 520.504
4407.54 472.044 484.956 543.9 537.275
4410.45 522.09 488.659 550.026 539.851
4413.36 471.842 477.4 525.626 510.473
4416.27 438.268 464.66 455.766 512.113
4419.17 483.87 472.857 554.946 523.181
4422.08 496.433 497.789 558.832 574.873
4424.99 513.063 502.196 610.84 573.104
4427.9 497.091 508.807 549.638 573.363
4430.8 516.267 493.732 559.609 570.858
4433.71 467.839 485.541 603.328 568.121
4436.62 472.516 498.582 541.427 585.703
4439.53 555.391 520.234 612.354 579.443
4442.43 532.796 526.098 584.549 589.922
4445.34 490.105 492.889 572.864 554.078
4448.25 455.766 456.023 504.82 529.16
4451.16 422.198 449.58 509.796 525.353
4454.06 470.777 465.619 561.444 559.352
4456.97 503.882 492.992 606.817 581.31
4459.88 504.316 499.81 575.669 589.026
4462.78 491.232 523.841 584.592 595.783
4465.69 575.975 500.502 627.087 564.313
4468.6 434.299 504.526 481.261 562.28
4471.5 503.303 479.885 578.492 540.445
4474.41 502.053 524.375 561.581 591.881
4477.32 567.768 533.545 635.57 606.776
4480.23 530.813 553.465 623.175 637.832
4483.13 561.813 535.277 654.75 614.284
4486.04 513.204 533.521 564.926 607.534
4488.94 525.545 516.5 602.926 585.115
4491.85 510.751 528.637 587.494 599.51
4494.76 549.614 515.1 608.11 583.075
4497.66 484.935 544.874 553.622 606.969
4500.57 600.075 516.242 659.174 595.664
4503.48 463.716 560.254 574.196 642.443
4506.38 616.971 534.86 693.959 622.883
4509.29 523.893 565.788 600.495 648.201
4512.2 556.499 567.639 650.15 644.296
4515.1 622.525 586.013 682.244 666.388
4518.01 579.016 602.076 666.771 684.941
4520.91 604.686 586.43 705.807 669.621
4523.82 575.588 581.154 636.283 675.884
4526.73 563.187 548.714 685.561 632.57
4529.63 507.365 542.36 575.865 645.125
4532.54 556.526 551.37 673.948 653.152
4535.44 590.218 581.26 709.643 689.741
4538.35 597.036 581.719 685.634 667.139
4541.25 557.904 579.429 606.141 648.979
4544.16 583.349 560.571 655.163 627.751
4547.07 540.462 573.999 621.95 645.739
4549.97 598.186 582.385 660.104 658.909
4552.88 608.508 600.791 694.675 674.492
4555.78 595.68 606.875 668.696 689.333
4558.69 616.437 624.815 704.628 693.754
4561.59 662.329 640.664 707.94 708.992
4564.5 643.225 630.16 714.41 680.434
4567.4 584.925 618.318 618.952 667.574
4570.31 626.803 629.664 669.359 668.64
4573.21 677.265 657.193 717.608 699.273
4576.12 667.512 675.967 710.852 724.507
4579.02 683.125 687.022 745.059 744.327
4581.93 710.428 649.977 777.069 711.54
4584.83 556.378 644.078 612.491 707.946
4587.74 665.428 616.194 734.278 665.754
4590.64 626.777 636.806 650.492 681.451
4593.55 618.213 616.431 659.582 649.738
4596.45 604.303 632.489 639.141 664.399
4599.36 674.951 653.993 694.475 676.221
4602.26 682.725 669.974 695.048 660.749
4605.17 652.245 675.973 592.723 663.586
4608.07 692.947 659.796 702.987 646.214
4610.97 634.195 670.471 642.933 676.793
4613.88 684.271 666.249 684.459 668.429
4616.78 680.281 679.922 677.896 686.151
4619.69 675.214 659.669 696.097 676.607
4622.59 623.513 660.822 655.828 664.891
4625.5 683.739 662.574 642.747 655.974
4628.4 680.472 684.688 669.347 649.542
4631.3 689.855 676.22 636.532 641.299
4634.21 658.334 678.083 618.018 644.835
4637.11 686.06 675.117 679.955 663.914
4640.02 680.956 712.953 693.767 710.387
4642.92 771.843 722.014 757.437 717.473
4645.82 713.242 730.935 701.215 723.864
4648.73 707.719 690.775 712.94 688.083
4651.63 651.365 702.37 650.094 689.158
4654.53 748.028 697.44 704.439 677.178
4657.44 692.928 711.774 677.002 676.62
4660.34 694.366 692.422 648.419 666.923
4663.24 689.972 674.357 675.347 654.761
4666.15 638.733 671.502 640.516 663.154
4669.05 685.799 671.223 673.598 644.022
4671.95 689.137 712.63 617.951 673.221
4674.86 762.955 716.578 728.112 677.336
4677.76 697.641 721.915 685.945 694.022
4680.66 705.148 735.028 668.009 717.531
4683.57 802.295 745.181 798.637 739.246
4686.47 728.101 761.921 751.091 758.283
4689.37 755.366 747.79 725.122 720.965
4692.28 759.901 741.964 686.683 710.004
4695.18 710.624 727.026 718.206 694.231
4698.08 710.553 746.049 677.803 743.407
4700.98 816.969 777.119 834.212 781.064
4703.89 803.834 792.858 831.177 798.323
4706.79 757.77 774.716 729.581 781.91
4709.69 762.544 746.545 784.973 764.719
4712.59 719.323 723.399 779.604 758.759
4715.5 688.331 713.782 711.7 744.526
4718.4 733.692 721.443 742.273 736.429
4721.3 742.305 756.485 755.312 768.95
4724.2 793.457 763.676 809.265 767.495
4727.1 755.266 749 737.907 752.105
4730.01 698.278 704.791 709.142 704.273
4732.91 660.829 692.903 665.769 693.013
4735.81 719.601 691.028 704.127 693.518
4738.71 692.653 732.204 710.657 740.674
4741.61 784.359 733.188 807.237 756.919
4744.52 722.551 753.462 752.864 767.458
4747.42 753.476 734.675 742.274 760.574
4750.32 728 719.923 786.585 743.96
4753.22 678.294 681.178 703.021 731.924
4756.12 637.239 674.625 706.166 730.911
4759.02 708.343 661.016 783.546 755.684
4761.92 637.467 680.13 777.342 764.686
4764.83 694.581 676.017 733.171 753.058
4767.73 696.003 681.528 748.662 727.77
4770.63 654 662.026 701.478 752.312
4773.53 636.076 623.82 806.797 746.979
4776.43 581.383 639.956 732.662 774.091
4779.33 702.409 656.729 782.815 752.162
4782.23 686.395 689.335 741.01 756.602
4785.13 679.201 658.25 745.982 762.808
4788.03 609.155 680.912 801.432 795.379
4790.94 754.381 687.55 838.722 815.286
4793.84 699.116 708.91 805.704 784.459
4796.74 673.233 673.022 708.95 775.883
4799.64 646.715 669.691 812.996 767.265
4802.54 689.124 702.659 779.85 821.12
4805.44 772.137 713.666 870.513 823.621
4808.34 679.739 726.197 820.5 836.001
4811.24 726.715 681.425 816.99 809.129
4814.14 637.82 700.212 789.896 811.666
4817.04 736.101 706.289 828.113 814.455
4819.94 744.946 711.621 825.356 816.953
4822.84 653.815 704.745 797.391 810.365
4825.74 715.474 687.53 808.349 830.581
4828.64 693.301 714.638 886.004 844.494
4831.54 735.139 727.241 839.129 846.442
4834.44 753.282 703.933 814.194 810.344
4837.34 623.376 689.1 777.71 818.414
4840.24 690.641 695.344 863.337 825.405
4843.14 772.016 725.199 835.166 853.752
4846.04 712.941 749.071 862.753 838.211
4848.94 762.255 725.129 816.715 841.716
4851.84 700.192 738.493 845.679 830.232
4854.74 753.033 752.109 828.301 858.834
4857.63 803.101 763.393 902.522 844.13
4860.53 734.044 757.275 801.565 840.38
4863.43 734.681 757.449 817.052 836.421
4866.33 803.622 764.585 890.646 841.856
4869.23 755.453 763.665 817.869 836.575
4872.13 731.92 729.706 801.211 811.596
4875.03 701.745 735.64 815.709 824.645
4877.93 773.256 734.911 857.016 830.382
4880.83 729.733 750.333 818.421 845.178
4883.73 748.01 752.682 860.096 851.955
4886.62 780.302 770.384 877.347 881.762
4889.52 782.841 801.176 907.841 907.658
4892.42 840.385 784.721 937.785 888.578
4895.32 730.937 799.219 820.109 911.595
4898.22 826.334 780.041 976.892 902.046
4901.12 782.852 805.453 909.137 954.26
4904.01 807.173 774.564 976.75 914.292
4906.91 733.667 772.294 856.989 907.6
4909.81 776.041 766.749 889.06 880.134
4912.71 790.537 759.261 894.353 891.733
4915.61 711.206 795.542 891.787 926.198
4918.5 884.882 777.353 992.454 907.849
4921.4 735.971 762.557 839.307 887.144
4924.3 666.817 722.692 829.672 840.648
4927.2 765.287 730.445 852.965 846.19
4930.09 759.23 785.294 855.935 880.143
4932.99 831.365 756.457 931.529 889.212
4935.89 678.776 721.762 880.172 877.946
4938.79 655.144 690.626 822.136 857.461
4941.68 737.956 688.596 870.076 838.914
4944.58 672.688 719.011 824.531 851.394
4947.48 746.388 736.523 859.576 852.932
4950.38 790.493 764.794 874.69 867.748
4953.27 757.502 773.281 868.978 874.392
4956.17 771.848 715.942 879.507 847.174
4959.07 618.477 702.924 793.037 829.757
4961.96 718.446 721.292 816.726 839.826
4964.86 826.954 757.2 909.715 885.686
4967.76 726.199 815.752 930.618 941.862
4970.65 894.104 814.159 985.254 935.309
4973.55 822.175 838.772 890.054 932.206
4976.45 800.037 815.095 921.309 918.426
4979.34 823.072 827.024 943.915 941.08
4982.24 857.964 853.111 958.016 964.552
4985.13 878.297 857.564 991.724 984.274
4988.03 836.433 832.929 1003.08 954.612
4990.93 784.058 803.332 869.032 923.066
4993.82 789.505 803.369 897.086 909.876
4996.72 836.543 820.244 963.509 935.791
4999.61 834.684 851.633 946.778 976.562
5002.51 883.671 861.216 1019.4 981.677
5005.41 865.293 870.503 978.855 990.884
5008.3 862.545 847.797 974.399 962.043
5011.2 815.553 839.273 932.874 957.674
5014.09 839.72 854.697 965.748 969.936
5016.99 908.817 889.608 1011.19 1010.17
5019.88 920.286 909.673 1053.56 1041.08
5022.78 899.917 901.233 1058.5 1044.89
5025.67 883.495 872.784 1022.61 1009.84
5028.57 834.939 812.22 948.394 971.22
5031.46 718.225 821.631 942.652 983.526
5034.36 911.73 844.184 1059.53 1021.03
5037.25 902.598 885.496 1060.9 1030.89
5040.15 842.159 876.954 972.236 1025.95
5043.04 886.106 877.718 1044.7 1035.61
5045.94 904.89 902.42 1089.87 1066.29
5048.83 916.263 915.313 1064.28 1090.65
5051.73 924.787 901.022 1117.78 1061.23
5054.62 862.015 882.692 1001.62 1054.17
5057.52 861.273 826.448 1043.11 1025.42
5060.41 756.058 838.762 1031.52 1043.85
5063.3 898.956 838.769 1056.92 1071.78
5066.2 861.292 882.635 1126.89 1082.39
5069.09 887.657 882.392 1063.36 1089.12
5071.99 898.228 858.28 1077.1 1063.66
5074.88 788.957 872.472 1050.51 1077.83
5077.77 930.232 872.374 1105.9 1071.99
5080.67 897.934 917.499 1059.57 1093.46
5083.56 924.331 916.955 1114.92 1087.65
5086.46 928.601 894.984 1088.46 1101.96
5089.35 832.02 884.917 1102.5 1097.5
5092.24 894.129 875.428 1101.55 1103.82
5095.14 900.135 913.196 1107.42 1114.9
5098.03 945.323 918.54 1135.72 1107.64
5100.92 910.161 918.215 1079.77 1104.12
5103.82 899.161 922.73 1096.86 1112.7
5106.71 958.868 939.148 1161.47 1122.85
5109.6 959.414 943.651 1110.23 1131.98
5112.49 912.671 933.453 1124.24 1126.76
5115.39 928.274 898.541 1145.81 1102.35
5118.28 854.677 889.311 1036.99 1100.22
5121.17 884.984 891.339 1117.86 1110.28
5124.07 934.356 918.752 1175.99 1135.92
5126.96 936.918 887.366 1113.9 1116.3
5129.85 790.825 856.977 1059.01 1104.73
5132.74 843.19 880.368 1141.27 1135.59
5135.64 1007.09 927.723 1206.5 1140.28
5138.53 932.889 977.44 1073.07 1153.27
5141.42 992.339 970.735 1180.24 1136.24
5144.31 986.978 951.611 1155.4 1159.87
5147.2 875.516 950.279 1143.97 1163.37
5150.1 988.342 945.086 1190.75 1165.36
5152.99 971.401 982.984 1161.37 1182.22
5155.88 989.21 987.611 1194.52 1179.77
5158.77 1002.22 967.197 1183.42 1157.78
5161.66 910.16 944.813 1095.39 1132.24
5164.55 922.057 936.837 1117.92 1126.65
5167.45 978.294 928.829 1166.65 1117.19
5170.34 886.137 944.45 1067 1144.78
5173.23 968.919 939.597 1200.67 1150.24
5176.12 963.734 957.419 1183.06 1178.1
5179.01 939.604 955.505 1150.58 1175.6
5181.9 963.178 962.259 1193.15 1190.86
5184.79 983.995 985.913 1228.86 1220.06
5187.68 1010.56 991.201 1238.17 1226.35
5190.57 979.043 985.033 1212.03 1243.74
5193.46 965.492 971.921 1281.02 1222.04
5196.35 971.228 980.844 1173.08 1220.99
5199.25 1005.81 954.245 1208.88 1198.19
5202.14 885.695 914.244 1212.6 1189.71
5205.03 851.224 900.626 1147.65 1186.68
5207.92 964.958 921.699 1199.79 1171.13
5210.81 948.915 969.612 1165.94 1197.83
5213.7 994.965 982.487 1227.76 1203.1
5216.59 1003.58 965.252 1215.58 1219.47
5219.48 897.208 927.841 1215.06 1173.84
5222.37 882.731 865.407 1090.88 1146.76
5225.26 816.283 886.172 1134.35 1142.33
5228.15 959.501 902.233 1201.75 1163.1
5231.04 930.914 930.476 1153.21 1164.13
5233.92 901.013 929.142 1137.43 1157.91
5236.81 955.5 909.37 1183.09 1174.4
5239.7 871.598 935.995 1202.7 1192.34
5242.59 980.887 931.57 1191.22 1194.63
5245.48 942.226 947.075 1189.99 1173.75
5248.37 918.113 921.493 1140.05 1148.26
5251.26 904.139 905.015 1114.73 1114.56
5254.15 892.792 903.315 1088.89 1111.1
5257.04 913.015 913.809 1129.67 1139.32
5259.93 935.62 943.531 1199.41 1179.36
5262.81 981.957 961.082 1209 1199.46
5265.7 965.669 959.686 1189.98 1177.76
5268.59 931.434 947.817 1134.31 1158.2
5271.48 946.349 962.346 1150.31 1174.04
5274.37 1009.26 964.849 1237.49 1177.54
5277.26 938.943 980.759 1144.82 1205.23
5280.15 994.078 966.845 1233.38 1191.52
5283.03 967.513 987.038 1196.35 1216.11
5285.92 999.522 981.455 1218.59 1205.45
5288.81 977.33 985.522 1201.42 1202.82
5291.7 979.715 950.725 1188.45 1196.84
5294.58 895.129 952.291 1200.67 1233.47
5297.47 982.029 967.825 1311.29 1280.11
5300.36 1026.32 1001.06 1328.37 1296.23
5303.25 994.846 1008.22 1249.03 1276.58
5306.13 1003.51 980.801 1252.35 1260.86
5309.02 944.048 961.676 1281.21 1283.47
5311.91 937.472 970.861 1316.85 1293.72
5314.8 1031.06 995.827 1283.1 1296.4
5317.68 1018.95 1042.09 1289.27 1303.88
5320.57 1076.26 1046.85 1339.28 1318.22
5323.46 1045.35 1064.56 1326.11 1334.44
5326.34 1072.08 1064.74 1337.94 1338.7
5329.23 1076.81 1034.97 1352.04 1288.61
5332.12 956.035 1044.44 1175.85 1309.55
5335 1100.46 1002.61 1400.78 1292.15
5337.89 951.322 1024.65 1299.83 1310.25
5340.78 1022.16 1009.78 1230.15 1268.83
5343.66 1055.86 1002.13 1276.53 1260.71
5346.55 928.371 1007.54 1275.47 1274.23
5349.43 1038.38 995.217 1270.69 1276.31
5352.32 1018.9 1005.51 1282.77 1260.75
5355.21 959.24 1011.41 1228.79 1285.24
5358.09 1056.08 1039.12 1344.17 1325.6
5360.98 1102.05 1091.92 1403.85 1380.1
5363.86 1117.63 1067.04 1392.28 1384.55
5366.75 981.418 1083.11 1357.52 1391.06
5369.63 1150.27 1076.68 1423.37 1423.58
5372.52 1098.35 1116.71 1489.84 1439.75
5375.4 1101.5 1069.21 1406.04 1394.43
5378.29 1007.78 1036.06 1287.41 1345.56
5381.17 998.9 1034.43 1343.23 1331.14
5384.06 1096.6 1077.66 1362.77 1373.91
5386.94 1137.47 1149.73 1415.74 1425.49
5389.83 1215.12 1190.14 1497.95 1470.33
5392.71 1217.83 1193.45 1497.3 1478.03
5395.6 1147.41 1180.68 1438.84 1480.46
5398.48 1176.8 1167.56 1505.24 1473.95
5401.37 1178.46 1149.5 1477.76 1454.51
5404.25 1093.25 1122.95 1380.51 1406.22
5407.14 1097.13 1065.92 1360.38 1379.71
5410.02 1007.38 1044.02 1398.23 1355.62
5412.9 1027.54 1061.83 1308.25 1385.42
5415.79 1150.58 1051 1449.79 1361.28
5418.67 974.886 1078.9 1325.8 1391.22
5421.56 1111.23 1080.88 1398.08 1386.28
5424.44 1156.53 1103.59 1434.97 1412.08
5427.32 1043.02 1085.98 1403.18 1431.13
5430.21 1058.37 1082.14 1455.23 1442.12
5433.09 1145.02 1145.58 1467.95 1485.38
5435.97 1233.35 1192.3 1532.97 1508.53
5438.86 1198.54 1172.04 1524.66 1509.11
5441.74 1084.22 1155.76 1469.71 1495.94
5444.62 1184.53 1136.99 1493.46 1478.16
5447.51 1142.21 1153.6 1471.3 1495.05
5450.39 1134.05 1142.57 1520.4 1478.24
5453.27 1151.46 1159.32 1443.03 1485.07
5456.15 1192.46 1158.95 1491.78 1467.71
5459.04 1132.93 1170.31 1468.32 1485.21
5461.92 1185.56 1135.24 1495.54 1492.55
5464.8 1087.23 1152.48 1513.79 1504.68
5467.68 1184.65 1149.89 1504.71 1490.9
5470.57 1177.78 1184.21 1454.19 1487.44
5473.45 1190.19 1178.4 1503.41 1481.91
5476.33 1167.22 1155.7 1488.14 1468.01
5479.21 1109.69 1116.28 1412.47 1462.36
5482.09 1071.94 1078.02 1486.47 1450.96
5484.97 1052.45 1079.15 1453.93 1446.11
5487.86 1113.07 1129.64 1397.93 1458.59
5490.74 1223.4 1166.51 1523.91 1469.45
5493.62 1163.06 1167.87 1486.52 1511.55
5496.5 1117.16 1130.42 1524.22 1483.21
5499.38 1111.03 1129.53 1438.88 1485.49
5502.26 1160.39 1145.08 1493.37 1473.74
5505.14 1163.83 1175.03 1488.97 1499.68
5508.02 1200.86 1220.98 1516.71 1551.59
5510.91 1298.26 1221.69 1649.09 1550.23
5513.79 1165.94 1215.53 1484.89 1532.02
5516.67 1182.38 1198.01 1462.09 1513.07
5519.55 1245.71 1180.41 1592.23 1533.92
5522.43 1113.12 1211.75 1547.45 1581.97
5525.31 1276.4 1193.3 1606.25 1552.99
5528.19 1190.37 1206.41 1505.27 1523.7
5531.07 1152.44 1173.82 1459.57 1493.07
5533.95 1178.63 1186.65 1514.36 1510.49
5536.83 1228.89 1201.67 1557.55 1534.64
5539.71 1197.5 1167.43 1532 1523.3
5542.59 1075.9 1163.35 1480.33 1510.32
5545.47 1216.65 1156.26 1518.62 1505.89
5548.35 1176.23 1197.66 1518.73 1514.61
5551.23 1200.09 1180.72 1506.49 1505.32
5554.11 1165.84 1193.29 1490.74 1502.51
5556.98 1213.93 1172.57 1510.29 1523.39
5559.86 1137.95 1163.93 1569.13 1556.21
5562.74 1139.91 1189.21 1589.23 1616.17
5565.62 1289.76 1233.88 1690.15 1672.14
5568.5 1271.96 1300.9 1737.05 1743.48
5571.38 1340.99 1285.59 1803.24 1705.03
5574.26 1243.81 1319.56 1574.8 1663.81
5577.14 1373.89 1128.32 1613.39 1678.29
5580.01 767.248 1126.46 1846.67 1700.82
5582.89 1238.25 1101.41 1642.4 1698.39
5585.77 1298.73 1175.84 1606.1 1607.14
5588.65 990.523 1156.96 1572.93 1565.92
5591.53 1181.63 1115.42 1518.73 1530.66
5594.41 1174.12 1209.99 1500.31 1544.95
5597.28 1274.21 1222.05 1615.82 1556.91
5600.16 1217.81 1268.12 1554.58 1602
5603.04 1312.34 1258.22 1635.6 1630.54
5605.92 1244.5 1239.36 1701.44 1644.23
5608.79 1161.24 1222.53 1595.65 1629.29
5611.67 1261.84 1202.12 1590.79 1561.26
5614.55 1183.28 1233.36 1497.34 1558.68
5617.43 1254.95 1237.1 1587.91 1568.58
5620.3 1273.06 1246.91 1620.48 1625.67
5623.18 1212.72 1245.53 1668.62 1627.71
5626.06 1250.82 1239.62 1594.03 1613.68
5628.93 1255.34 1243.54 1578.38 1636.46
5631.81 1224.48 1261.16 1736.97 1676.36
5634.69 1303.66 1219.79 1713.74 1687.62
5637.56 1131.24 1238.22 1612.15 1655.32
5640.44 1279.77 1197.07 1640.08 1628.68
5643.31 1180.18 1191.78 1633.82 1621.99
5646.19 1115.38 1190.4 1592.05 1626.45
5649.07 1275.63 1218.25 1653.47 1619.28
5651.94 1263.75 1270.61 1612.33 1624.28
5654.82 1272.45 1242.71 1607.03 1611.7
5657.69 1191.93 1241.99 1615.75 1610.09
5660.57 1261.59 1250.44 1607.49 1627.13
5663.44 1297.81 1261.47 1658.16 1604.48
5666.32 1224.99 1218.46 1547.8 1594.13
5669.2 1132.58 1150.43 1576.42 1557.94
5672.07 1093.7 1174.02 1549.59 1598.74
5674.95 1295.78 1153.04 1670.2 1589.43
5677.82 1069.64 1203.34 1548.5 1608.3
5680.7 1244.61 1177.55 1606.18 1576.12
5683.57 1218.4 1231.59 1573.68 1577.96
5686.44 1231.75 1215.68 1554.02 1600.45
5689.32 1196.89 1256.92 1673.64 1636.54
5692.19 1342.12 1269.62 1681.97 1649.44
5695.07 1269.85 1262.91 1592.69 1653.99
5697.94 1176.76 1243.83 1687.3 1656.34
5700.82 1284.89 1219.14 1689.01 1678.49
5703.69 1195.77 1255.28 1659.17 1665.89
5706.56 1285.19 1257.1 1649.5 1663.77
5709.44 1290.34 1271.86 1682.64 1633.93
5712.31 1240.05 1293.73 1569.64 1668.28
5715.19 1350.8 1267.77 1752.57 1638.85
5718.06 1212.48 1294.81 1594.33 1683.84
5720.93 1321.15 1275.83 1704.6 1645.29
5723.81 1293.86 1309.16 1636.95 1668.57
5726.68 1312.47 1296.51 1664.15 1655.38
5729.55 1283.2 1244.96 1665.06 1642.45
5732.42 1139.2 1227.55 1598.16 1648.4
5735.3 1260.26 1230.05 1681.97 1643.68
5738.17 1290.68 1296.54 1650.91 1672.88
5741.04 1338.68 1275.32 1685.77 1662.21
5743.91 1196.6 1281.19 1649.96 1675.62
5746.79 1308.3 1251.97 1691.15 1667.3
5749.66 1251.01 1272.42 1660.79 1661.91
5752.53 1257.94 1271.59 1633.78 1655.33
5755.4 1305.82 1291.36 1671.41 1675.94
5758.28 1310.33 1317.38 1722.64 1716.57
5761.15 1335.99 1277.85 1755.67 1701.11
5764.02 1187.22 1255.67 1625.01 1663.8
5766.89 1243.8 1271.03 1610.73 1678.68
5769.76 1382.06 1307.57 1800.3 1688.15
5772.63 1296.85 1319.7 1653.41 1706.41
5775.5 1280.18 1302.65 1665.53 1682.81
5778.38 1330.94 1249.31 1729.47 1665.2
5781.25 1136.82 1206.05 1600.6 1645.8
5784.12 1150.38 1209.45 1607.34 1648.69
5786.99 1341.13 1226.24 1738.15 1663.57
5789.86 1187.22 1267.27 1645.23 1675.6
5792.73 1273.47 1248.87 1643.43 1644.38
5795.6 1285.93 1291.3 1644.47 1653.69
5798.47 1314.5 1293.85 1673.16 1663.34
5801.34 1281.12 1309.66 1672.39 1689.03
5804.21 1333.36 1296.21 1721.52 1674.94
5807.08 1274.16 1323.12 1630.91 1713.78
5809.95 1361.84 1322.96 1788.9 1716.52
5812.82 1332.89 1373.53 1729.74 1793.04
5815.69 1425.88 1371.31 1860.49 1782.26
5818.56 1355.16 1400.68 1756.56 1811.28
5821.43 1421 1369.05 1816.79 1761.63
5824.3 1330.97 1373.33 1711.54 1757.33
5827.17 1368.03 1355.26 1743.66 1727.83
5830.04 1366.79 1375.85 1728.3 1753.35
5832.91 1392.73 1374.96 1788.08 1764.96
5835.78 1365.37 1356.32 1778.49 1759.61
5838.64 1310.85 1339.02 1712.27 1742.55
5841.51 1340.84 1332.17 1736.9 1731.47
5844.38 1344.8 1354.98 1745.24 1750.7
5847.25 1379.3 1367.1 1769.94 1763.95
5850.12 1377.19 1362.79 1776.68 1756.07
5852.99 1331.87 1337.61 1721.57 1724.17
5855.85 1303.76 1355.32 1674.25 1742.63
5858.72 1430.32 1384.01 1832.08 1804.06
5861.59 1417.94 1404.58 1905.85 1845.58
5864.46 1365.48 1371.08 1798.83 1795.87
5867.33 1329.83 1345.01 1682.92 1739.27
5870.19 1339.73 1321.09 1736.05 1713.49
5873.06 1293.72 1352.02 1721.51 1757.28
5875.93 1422.61 1333.13 1814.28 1732.86
5878.8 1283.06 1359.46 1662.78 1759.97
5881.66 1372.7 1254.11 1802.85 1737.41
5884.53 1106.57 1309.64 1746.59 1820.65
5887.4 1449.65 1325.2 1912.51 1819.55
5890.26 1419.39 1279.31 1799.55 1801.08
5893.13 968.889 1166.43 1691.16 1779.94
5896 1111 1129.57 1849.1 1740.99
5898.86 1308.82 1240.7 1682.73 1740.01
5901.73 1302.29 1321.25 1688.2 1690.04
5904.6 1352.63 1333.81 1699.2 1704.8
5907.46 1346.49 1355.87 1726.99 1734.52
5910.33 1368.49 1348.89 1777.36 1741.83
5913.19 1331.68 1352.55 1721.15 1763.77
5916.06 1357.47 1317.6 1792.81 1779.34
5918.92 1263.63 1353.76 1824.07 1829.94
5921.79 1440.16 1346.81 1872.93 1868.37
5924.66 1336.64 1405.96 1908.12 1874.22
5927.52 1441.07 1411.67 1841.61 1874.53
5930.39 1457.3 1356.51 1873.88 1831.15
5933.25 1171.15 1323.07 1777.95 1792.45
5936.12 1340.77 1238.96 1725.52 1763.77
5938.98 1204.95 1244.35 1787.85 1755.66
5941.85 1187.32 1187.44 1753.6 1754.36
5944.71 1170.04 1250.98 1721.62 1758.05
5947.57 1395.57 1320.06 1798.91 1786.32
5950.44 1394.57 1381.98 1838.42 1787.67
5953.3 1355.82 1373.23 1725.68 1775.83
5956.17 1369.3 1365.55 1763.38 1761.15
5959.03 1371.54 1378.48 1794.4 1802.93
5961.89 1394.59 1401.15 1851.02 1835.41
5964.76 1437.31 1405 1860.81 1839.24
5967.62 1383.09 1404.14 1805.88 1814.91
5970.48 1392.02 1366.95 1778.03 1771.74
5973.35 1325.76 1301.58 1731.31 1694.49
5976.21 1186.97 1216.08 1574.14 1597.57
5979.07 1135.5 1166.27 1487.26 1526.15
5981.94 1176.33 1148.61 1517.06 1548.61
5984.8 1134.01 1167.66 1641.51 1580.85
5987.66 1192.64 1195.68 1583.96 1630.78
5990.53 1260.38 1228.02 1666.87 1622.83
5993.39 1231.04 1265.74 1617.65 1666.11
5996.25 1305.82 1242.21 1713.8 1689.8
5999.11 1189.76 1302.44 1737.96 1768.48
6001.98 1411.74 1283.15 1853.69 1792.67
6004.84 1247.95 1341.25 1786.37 1802.06
6007.7 1364.07 1292.1 1766.14 1742.19
6010.56 1264.28 1334.8 1674.07 1741.16
6013.42 1376.06 1351.66 1783.26 1763.04
6016.28 1414.65 1407.58 1831.8 1810.02
6019.15 1432.04 1392.54 1815 1839.94
6022.01 1330.95 1349.97 1873.02 1817.75
6024.87 1286.92 1323.47 1765.22 1832.71
6027.73 1352.54 1311.64 1859.9 1805.39
6030.59 1295.46 1322.6 1791.05 1810.18
6033.45 1319.8 1305.6 1779.6 1786.15
6036.31 1301.53 1265.58 1787.8 1785.78
6039.17 1175.42 1208.39 1789.93 1789.81
6042.03 1148.22 1201.8 1791.71 1776.69
6044.89 1281.77 1226.11 1748.42 1788.39
6047.75 1248.34 1278.64 1825.05 1798.73
6050.61 1305.82 1325.79 1822.74 1860.82
6053.47 1423.23 1312.28 1934.66 1861.24
6056.33 1207.78 1301.04 1826.33 1837.31
6059.19 1272.1 1238.05 1750.94 1767.05
6062.05 1234.27 1264.92 1723.9 1745.06
6064.91 1288.38 1289.22 1760.35 1770.03
6067.77 1345 1266.29 1825.85 1788.06
6070.63 1165.48 1291.73 1777.97 1826.86
6073.49 1364.7 1271.09 1876.77 1816.16
6076.35 1283.08 1326.4 1793.74 1843.73
6079.21 1331.41 1302.9 1860.68 1827.72
6082.07 1294.21 1307.07 1828.74 1819.41
6084.92 1295.59 1297.74 1768.8 1785.76
6087.78 1303.44 1315.44 1759.72 1804.69
6090.64 1347.31 1307.84 1885.55 1800.6
6093.5 1272.78 1325.18 1756.51 1839.76
6096.36 1355.44 1293.52 1877.2 1803.52
6099.21 1252.33 1254.08 1776.85 1808.3
6102.07 1154.46 1218.41 1770.86 1800.87
6104.93 1248.45 1228.13 1854.89 1800.21
6107.79 1281.47 1292.77 1774.88 1826.64
6110.65 1348.41 1274.39 1850.15 1774.82
6113.5 1193.28 1286.68 1699.43 1779.14
6116.36 1318.33 1284.49 1787.83 1776.89
6119.22 1341.85 1334.16 1843.42 1819.16
6122.07 1342.29 1360.91 1826.23 1860.34
6124.93 1398.6 1331.4 1911.36 1863.17
6127.79 1253.32 1343.68 1851.91 1884.29
6130.64 1379.12 1341.74 1889.6 1878.65
6133.5 1392.77 1343.32 1894.43 1891.98
6136.36 1258.08 1331.25 1891.9 1869.24
6139.21 1342.91 1311.84 1821.37 1855.29
6142.07 1334.52 1343.69 1852.58 1838.4
6144.92 1353.65 1357.36 1841.24 1866.45
6147.78 1383.9 1338.73 1905.53 1873.63
6150.64 1278.63 1350.86 1874.11 1883.66
6153.49 1390.06 1336.28 1871.34 1861.08
6156.35 1340.14 1378.35 1837.79 1865.9
6159.2 1404.84 1324.33 1888.56 1837.04
6162.06 1228.02 1334.35 1784.78 1853.25
6164.91 1370.18 1322.8 1886.4 1843.25
6167.77 1370.21 1351.58 1858.57 1890.1
6170.62 1314.35 1339.5 1925.32 1866.07
6173.48 1333.94 1316.65 1814.32 1850.94
6176.33 1301.65 1336.53 1813.19 1836.71
6179.19 1373.99 1349.18 1882.62 1870.95
6182.04 1371.89 1364.3 1917.04 1890.33
6184.89 1347.01 1356.94 1871.32 1880.62
6187.75 1351.91 1338.53 1853.5 1822.19
6190.6 1316.68 1339.76 1741.76 1817.89
6193.45 1350.7 1312.69 1858.41 1787.92
6196.31 1270.7 1259.72 1763.6 1785.09
6199.16 1157.76 1260.81 1733.26 1778.96
6202.02 1353.96 1274.06 1840.01 1788.06
6204.87 1310.46 1335.36 1790.92 1815.25
6207.72 1341.66 1337.06 1814.81 1831.56
6210.57 1359.04 1336.36 1888.95 1828.8
6213.43 1308.39 1316.51 1782.64 1815.61
6216.28 1282.09 1287 1775.24 1810.57
6219.13 1270.52 1283.38 1873.83 1822.42
6221.98 1297.53 1276.62 1818.19 1806.51
6224.84 1261.81 1287.86 1727.53 1794.17
6227.69 1304.25 1294.14 1836.8 1773.35
6230.54 1316.35 1297.92 1755.73 1774.59
6233.39 1273.17 1241.69 1731.24 1756.02
6236.24 1135.54 1255.36 1781.09 1794.73
6239.1 1357.37 1273.29 1871.87 1821.68
6241.95 1326.96 1285.54 1812.09 1818.8
6244.8 1172.3 1275.59 1772.45 1790.02
6247.65 1327.5 1260.68 1785.52 1765.21
6250.5 1282.23 1233.97 1737.65 1727.77
6253.35 1092.18 1209.16 1660.14 1698.73
6256.2 1253.07 1196.42 1698.4 1677.94
6259.05 1244 1259.42 1675.3 1704.84
6261.9 1281.18 1254.63 1740.82 1717.48
6264.75 1238.7 1246.07 1736.32 1723.61
6267.6 1218.33 1213.53 1693.7 1733.95
6270.45 1183.55 1234.6 1771.84 1742.55
6273.3 1301.92 1231.22 1762.11 1766.6
6276.15 1208.18 1271.11 1765.84 1753.71
6279 1303.23 1251.96 1733.18 1734.39
6281.85 1244.48 1278.08 1704.14 1734.58
6284.7 1286.54 1241.76 1766.43 1707.89
6287.55 1194.27 1264.07 1653.11 1747.32
6290.4 1311.39 1271.84 1822.43 1727.63
6293.25 1309.85 1189.93 1707.36 1763.37
6296.1 948.547 1192.72 1760.32 1747.01
6298.95 1319.77 1200.26 1773.34 1775.28
6301.8 1332.47 1300.57 1792.18 1765.33
6304.65 1249.47 1260.5 1730.46 1714.77
6307.49 1199.56 1161.02 1621.66 1679.7
6310.34 1034.02 1167.79 1686.97 1678.31
6313.19 1269.78 1164.7 1726.29 1685.56
6316.04 1190.31 1249.88 1643.42 1705.27
6318.89 1289.55 1255.96 1746.1 1709.63
6321.73 1288.03 1283.3 1739.37 1737.31
6324.58 1272.32 1254.63 1726.47 1755.6
6327.43 1203.54 1177.83 1800.97 1708.88
6330.28 1057.63 1168.99 1599.21 1700.79
6333.12 1245.8 1165.54 1702.19 1689.9
6335.97 1193.2 1247.57 1768.31 1747.8
6338.82 1303.71 1227.1 1772.9 1709.33
6341.66 1184.4 1220.57 1586.79 1687.69
6344.51 1173.59 1186.07 1703.39 1690.89
6347.36 1200.21 1205.03 1782.5 1720.68
6350.2 1241.28 1194.8 1676.14 1731.55
6353.05 1142.89 1223.07 1736 1704.05
6355.9 1285.03 1258.76 1700.02 1754.95
6358.74 1348.35 1337.75 1828.84 1790.73
6361.59 1379.87 1278.94 1843.33 1813.54
6364.43 1108.59 1252.3 1768.45 1781.94
6367.28 1268.44 1210.77 1734.03 1734.68
6370.12 1255.28 1296.65 1701.56 1755.69
6372.97 1366.23 1288.98 1831.49 1734.32
6375.81 1245.43 1242.15 1669.9 1714.01
6378.66 1114.8 1199.72 1640.63 1709.54
6381.5 1238.93 1224.02 1818.11 1739.75
6384.35 1318.33 1297.15 1760.51 1773.36
6387.19 1334.2 1270.61 1741.46 1725.4
6390.04 1159.29 1274.8 1674.22 1719.45
6392.88 1330.9 1269.41 1742.67 1723.66
6395.73 1318.04 1308.06 1754.09 1738.9
6398.57 1275.23 1303.16 1719.94 1758.18
6401.41 1316.2 1309.75 1800.52 1768.88
6404.26 1337.83 1293.58 1786.17 1792.18
6407.1 1226.72 1292.59 1789.85 1784.91
6409.94 1313.21 1285.13 1778.71 1785.62
6412.79 1315.46 1283.84 1788.31 1740.87
6415.63 1222.84 1310.39 1655.6 1756.06
6418.47 1392.87 1309.81 1824.28 1740.2
6421.32 1313.72 1372.98 1740.72 1824.57
6424.16 1412.37 1326.61 1908.7 1771.51
6427 1253.74 1346.32 1665.1 1788.52
6429.84 1372.85 1259.84 1791.76 1709.78
6432.69 1152.93 1248.27 1672.48 1733.85
6435.53 1219.03 1237.46 1737.31 1730.92
6438.37 1340.42 1286.07 1782.97 1749.32
6441.21 1298.75 1314.42 1727.68 1747.56
6444.05 1304.09 1289.91 1732.03 1712.9
6446.89 1266.9 1290.1 1678.98 1718.69
6449.74 1299.31 1297.33 1745.07 1737.34
6452.58 1325.79 1296.46 1787.96 1746.37
6455.42 1264.26 1311.49 1706.08 1752.15
6458.26 1344.41 1279.81 1762.4 1708.29
6461.1 1230.76 1295.81 1656.38 1716.42
6463.94 1312.25 1273.27 1730.47 1713.79
6466.78 1276.79 1295.42 1754.51 1750.31
6469.62 1297.23 1274.61 1765.94 1777.68
6472.46 1249.81 1291.67 1812.59 1779.95
6475.3 1327.96 1302.96 1761.31 1780.21
6478.14 1331.1 1342.92 1766.71 1780.79
6480.98 1369.7 1351.67 1814.35 1795.42
6483.82 1354.21 1356.05 1805.19 1800.55
6486.66 1344.26 1306.35 1782.11 1746.75
6489.5 1220.6 1276.32 1652.96 1705.45
6492.34 1264.11 1246.43 1681.27 1673.27
6495.18 1254.57 1227.31 1685.57 1722.07
6498.02 1163.24 1251.53 1799.36 1754.11
6500.86 1336.76 1280.26 1777.4 1784.13
6503.69 1340.77 1321.33 1775.63 1757.33
6506.53 1286.46 1249.49 1718.95 1709.65
6509.37 1121.25 1163.51 1634.37 1655.53
6512.21 1082.81 1149.79 1613.28 1622.56
6515.05 1245.31 1166.19 1620.03 1639.88
6517.89 1170.45 1204.32 1686.34 1682.99
6520.72 1197.21 1216.06 1742.6 1713.34
6523.56 1280.53 1278.44 1711.08 1760.4
6526.4 1357.58 1299.01 1827.51 1732.69
6529.24 1258.93 1270.87 1659.48 1757.89
6532.07 1196.1 1235.35 1786.67 1703.07
6534.91 1251.02 1200.88 1663.07 1714.73
6537.75 1155.53 1249.44 1694.44 1722.11
6540.58 1341.75 1271.34 1808.81 1743.71
6543.42 1316.75 1315.9 1727.88 1744.87
6546.26 1289.21 1287.41 1697.91 1697.02
6549.09 1256.28 1235.37 1665.26 1699.91
6551.93 1160.63 1217.59 1736.56 1687.27
6554.76 1235.86 1247.77 1659.98 1728.49
6557.6 1346.83 1286.73 1788.93 1719.54
6560.44 1277.49 1303.54 1709.72 1740.51
6563.27 1286.29 1294.34 1722.87 1726.22
6566.11 1319.23 1297.1 1746.09 1714.82
6568.94 1285.77 1293.36 1675.49 1691.62
6571.78 1275.08 1302.69 1653.28 1702.53
6574.61 1347.22 1332.81 1778.81 1743.05
6577.45 1376.12 1321.42 1797.06 1739.42
6580.28 1240.92 1302.03 1642.39 1714.59
6583.12 1289.04 1299.91 1704.33 1706.78
6585.95 1369.77 1277.51 1773.61 1711.13
6588.78 1173.71 1255.95 1655.46 1679.9
6591.62 1224.36 1194.75 1610.64 1642.33
6594.45 1186.18 1246.13 1660.91 1670.86
6597.29 1327.84 1215.32 1741.02 1684.88
6600.12 1131.95 1212.61 1652.72 1700.28
6602.95 1178.04 1217.08 1707.1 1706.11
6605.79 1341.25 1267.8 1758.51 1717.41
6608.62 1284.12 1308.84 1686.63 1753.86
6611.45 1301.16 1255.8 1816.44 1723.27
6614.29 1182.11 1288.7 1666.74 1795.75
6617.12 1382.83 1281.48 1904.08 1784.94
6619.95 1279.49 1302.96 1784.01 1815.13
6622.78 1246.55 1313.72 1757.29 1784.57
6625.62 1415.11 1327.14 1812.41 1767.26
6628.45 1319.77 1363.87 1732.1 1778.69
6631.28 1356.74 1348.71 1791.58 1772.92
6634.11 1369.63 1340.6 1795.08 1768.5
6636.94 1295.45 1361.3 1718.83 1805.49
6639.77 1418.82 1341.36 1902.56 1820.58
6642.61 1309.81 1412.93 1840.36 1911.13
6645.44 1510.16 1438.87 1990.46 1926.08
6648.27 1496.64 1484.1 1947.44 1946.44
6651.1 1445.49 1482.2 1901.41 1946.87
6653.93 1504.47 1629.62 1991.75 2136.5
6656.76 1938.91 1871.19 2516.33 2474.51
6659.59 2170.19 2123.34 2915.43 2819.47
6662.42 2260.94 2213.39 3026.65 2924.92
6665.25 2209.06 2113.82 2832.67 2756.65
6668.08 1871.47 1902.8 2410.63 2478.03
6670.91 1627.86 1675.97 2190.8 2201.58
6673.74 1528.58 1545.29 2003.3 2067.96
6676.57 1479.42 1570.72 2009.79 2068.56
6679.4 1704.14 1620.97 2192.6 2126.26
6682.23 1679.34 1668.62 2176.39 2192.19
6685.06 1622.39 1638.98 2207.58 2162.38
6687.89 1615.21 1544.71 2103.17 2071.89
6690.71 1396.54 1485.13 1904.92 1955.49
6693.54 1443.64 1396.14 1858.38 1873.15
6696.37 1348.23 1396.96 1856.16 1844.24
6699.2 1398.99 1360.48 1818.17 1813.92
6702.03 1334.21 1396.85 1767.44 1840.52
6704.85 1457.34 1389.61 1935.95 1819.13
6707.68 1377.27 1403.43 1754.01 1824.06
6710.51 1375.69 1376.03 1782.23 1780.09
6713.34 1375.12 1375.89 1804.03 1801.56
6716.16 1376.87 1398.56 1818.41 1823.84
6718.99 1443.67 1424.36 1849.08 1850.46
6721.82 1452.54 1433.73 1883.91 1866.04
6724.65 1404.97 1412.51 1865.15 1854.2
6727.47 1380.02 1379.06 1813.54 1836.95
6730.3 1352.18 1347.32 1832.15 1791
6733.13 1309.77 1330.1 1727.32 1752.79
6735.95 1328.37 1330.43 1698.9 1726.44
6738.78 1353.14 1327.29 1753.12 1754.89
6741.6 1300.35 1306.58 1812.67 1775.92
6744.43 1266.23 1299.68 1761.97 1766.77
6747.25 1332.46 1318.16 1725.67 1748.4
6750.08 1355.79 1341.21 1757.54 1728.68
6752.91 1335.38 1369.03 1702.83 1777.01
6755.73 1415.92 1355.27 1870.65 1782.04
6758.56 1314.5 1326.98 1772.64 1773.89
6761.38 1250.52 1327.53 1678.39 1768.89
6764.2 1417.57 1320.38 1855.65 1745.21
6767.03 1293.04 1344.2 1701.59 1797.22
6769.85 1321.99 1309.01 1834.4 1766.48
6772.68 1312.02 1333.8 1763.45 1786.4
6775.5 1367.39 1341.27 1761.34 1743.74
6778.32 1344.4 1358.08 1706.43 1742.06
6781.15 1362.45 1379.28 1758.39 1762.82
6783.97 1431.01 1400.63 1823.63 1804.06
6786.8 1408.44 1430.05 1830.17 1844.01
6789.62 1450.69 1419.15 1878.22 1825.28
6792.44 1398.31 1421.78 1767.44 1821.65
6795.26 1416.34 1409.34 1819.29 1799.85
6798.09 1413.36 1440.07 1812.83 1846.57
6800.91 1490.5 1422.08 1907.58 1817.81
6803.73 1362.37 1417.6 1733.01 1805.75
6806.55 1399.93 1373.24 1776.68 1757.63
6809.38 1357.4 1401.04 1763.2 1795.66
6812.2 1445.77 1413.88 1847.1 1853.04
6815.02 1438.46 1490.04 1948.81 1951.14
6817.84 1585.9 1515.66 2057.5 1976.17
6820.66 1522.61 1465.06 1922.2 1959.14
6823.48 1286.66 1430.04 1897.73 1907.77
6826.3 1480.85 1406.11 1903.39 1891.01
6829.13 1450.83 1442.05 1871.91 1846.94
6831.95 1394.47 1453.68 1765.52 1847.97
6834.77 1515.72 1460.22 1906.49 1852.66
6837.59 1470.46 1457.68 1885.97 1848.57
6840.41 1386.86 1399.5 1753.26 1778.77
6843.23 1341.18 1346.01 1697.1 1720.54
6846.05 1309.98 1319.18 1711.26 1689.39
6848.87 1306.39 1307.02 1659.81 1715.61
6851.69 1304.68 1273.12 1775.76 1705.73
6854.51 1208.3 1271.86 1681.63 1718.15
6857.33 1302.6 1207.64 1697.06 1694.46
6860.14 1112.03 1219.75 1704.71 1677.6
6862.96 1244.62 1142.77 1631.05 1582.72
6865.78 1071.66 1139.2 1412.39 1486.68
6868.6 1101.31 1081.4 1416.59 1400.52
6871.42 1071.23 1081.1 1372.58 1380.89
6874.24 1070.76 1063.84 1353.52 1355.63
6877.06 1049.52 1105.38 1340.78 1406.94
6879.87 1195.87 1152.81 1526.53 1471.11
6882.69 1213.02 1204.58 1546.02 1543.14
6885.51 1204.85 1197.72 1556.88 1537.69
6888.33 1175.27 1187.1 1510.16 1539.13
6891.14 1181.18 1181.29 1550.36 1524.02
6893.96 1187.42 1193.7 1511.53 1534.22
6896.78 1212.49 1201.54 1540.76 1518.84
6899.59 1204.72 1199.42 1504.23 1516.19
6902.41 1181.04 1166.44 1503.58 1527.04
6905.23 1113.55 1184.28 1573.3 1561.88
6908.04 1258.25 1216.07 1608.75 1609.98
6910.86 1276.41 1283.81 1647.9 1666.87
6913.68 1316.76 1285.41 1743.95 1675.98
6916.49 1263.05 1284.48 1636.1 1676.49
6919.31 1273.63 1208.72 1649.44 1611.19
6922.12 1089.47 1234.1 1548.04 1634.69
6924.94 1339.21 1231.22 1706.6 1618.25
6927.75 1264.97 1245.82 1600.11 1626.7
6930.57 1133.27 1222.37 1573.39 1593.89
6933.38 1268.86 1215.51 1608.16 1574.82
6936.2 1244.41 1258.7 1542.91 1589.15
6939.01 1262.85 1259.94 1616.37 1580.04
6941.83 1272.55 1267.29 1580.85 1613.86
6944.64 1266.48 1253.22 1644.36 1598.75
6947.45 1220.62 1226.86 1571.06 1576.32
6950.27 1193.47 1229.15 1513.55 1561.52
6953.08 1273.36 1214.36 1599.95 1570.66
6955.9 1176.25 1238.34 1598.47 1610.42
6958.71 1265.41 1239.71 1632.83 1622.89
6961.52 1277.48 1248.27 1637.39 1633.56
6964.33 1201.91 1217.04 1630.47 1631.39
6967.15 1171.73 1172.02 1626.3 1614.05
6969.96 1142.42 1199.39 1585.37 1616.37
6972.77 1284.02 1251.25 1637.42 1630.47
6975.58 1327.31 1309.75 1668.6 1659.39
6978.4 1317.94 1301.04 1672.16 1650.16
6981.21 1257.89 1283.89 1609.71 1640.02
6984.02 1275.84 1286.35 1638.21 1626.66
6986.83 1325.34 1254.97 1632.05 1619.04
6989.64 1163.72 1267.72 1586.85 1626.29
6992.45 1314.11 1254.28 1659.97 1618.43
6995.27 1284.99 1290.69 1608.47 1624.04
6998.08 1272.97 1291.26 1603.67 1619.46
7000.89 1315.8 1264.97 1646.24 1600.33
7003.7 1206.14 1250.17 1551.08 1580.2
7006.51 1228.58 1201.47 1543.29 1558.98
7009.32 1169.69 1228.43 1582.55 1581.65
7012.13 1287.02 1266.25 1619.12 1624.35
7014.94 1342.05 1295.63 1671.36 1626.5
7017.75 1257.82 1301.09 1589.01 1633.18
7020.56 1303.4 1273.46 1639.18 1613.37
7023.37 1259.18 1234.19 1611.91 1598.8
7026.18 1139.98 1208.51 1545.32 1590.57
7028.98 1226.37 1131.34 1614.47 1547.61
7031.79 1027.67 1133.58 1483.04 1550.8
7034.6 1146.7 1130.18 1554.89 1556.34
7037.41 1216.17 1163.01 1631.08 1569.59
7040.22 1126.17 1147.08 1522.8 1571.27
7043.03 1098.9 1134.44 1559.94 1558.22
7045.83 1178.24 1103.49 1591.91 1552.54
7048.64 1033.34 1130.72 1505.77 1555.57
7051.45 1180.58 1128.65 1569.03 1539.55
7054.26 1172.04 1165.91 1543.84 1553.14
7057.06 1145.12 1141.76 1546.54 1556.55
7059.87 1108.12 1109.46 1579.26 1544.44
7062.68 1075.13 1143.42 1507.53 1583.65
7065.49 1247.02 1162.17 1664.16 1576.6
7068.29 1164.35 1208.02 1558.11 1600.87
7071.1 1212.7 1151.26 1580.35 1553.41
7073.9 1076.73 1141.54 1521.76 1570.49
7076.71 1135.19 1158.4 1609.36 1602.42
7079.52 1263.27 1201.4 1676.14 1620.45
7082.32 1205.74 1183.39 1575.86 1613.54
7085.13 1081.16 1144.57 1588.63 1572.95
7087.93 1146.81 1134.18 1554.37 1573.18
7090.74 1174.56 1170.12 1576.55 1560.5
7093.54 1188.98 1180.47 1550.58 1562.48
7096.35 1177.88 1184.38 1560.3 1540.61
7099.15 1186.28 1169.86 1510.96 1521.82
7101.96 1145.4 1151.55 1494.2 1498.67
7104.76 1122.98 1126.02 1490.86 1514.78
7107.57 1109.68 1122 1559.28 1550.84
7110.37 1133.34 1119.98 1602.37 1521.9
7113.17 1116.93 1139.92 1404.04 1508.73
7115.98 1169.5 1150.45 1519.77 1482.93
7118.78 1164.94 1178.65 1524.97 1533.68
7121.58 1201.51 1157.2 1556.3 1529.24
7124.39 1105.17 1147.97 1506.44 1529.16
7127.19 1137.22 1101.26 1524.75 1490.07
7129.99 1061.37 1131.28 1439.03 1507.86
7132.79 1195.23 1144.46 1559.8 1509.23
7135.6 1176.76 1192.66 1528.85 1542.96
7138.4 1205.99 1167.02 1540.23 1545.68
7141.2 1118.32 1163.25 1567.98 1541.08
7144 1165.44 1103.05 1515.04 1509.57
7146.8 1025.4 1109.75 1445.69 1462.17
7149.61 1138.39 1086.96 1425.8 1461.02
7152.41 1097.08 1157.77 1511.57 1531.92
7155.21 1237.83 1152.79 1658.41 1557.32
7158.01 1123.45 1192.05 1501.99 1567.88
7160.81 1214.88 1161.52 1543.23 1494.68
7163.61 1146.22 1148.18 1438.83 1453.34
7166.41 1083.43 1089.46 1377.97 1385.29
7169.21 1038.73 1038.07 1339.09 1364.56
7172.01 992.049 994.203 1376.64 1315.82
7174.81 951.825 972.626 1231.73 1301.09
7177.61 974.004 968.452 1294.89 1272.37
7180.41 979.527 981.493 1290.49 1298.27
7183.21 990.949 970.459 1309.44 1261.21
7186.01 940.902 964.157 1183.71 1259.32
7188.81 960.621 947.812 1284.82 1222.23
7191.61 941.914 949.713 1198.17 1228.78
7194.4 946.603 960.522 1203.36 1212.16
7197.2 993.048 948.086 1234.94 1225.48
7200 904.608 999.284 1238.13 1294.82
7202.8 1100.2 1008.36 1411.4 1316.43
7205.6 1020.27 1031.37 1299.76 1324.17
7208.39 973.646 1019.12 1261.35 1342.6
7211.19 1063.43 1044.76 1466.67 1369.1
7213.99 1097.19 1099.3 1379.27 1421.64
7216.79 1137.28 1105.78 1418.96 1399.4
7219.58 1082.86 1086.56 1399.96 1367.63
7222.38 1039.53 1061.98 1283.97 1349.76
7225.18 1063.55 1017.03 1365.35 1316.51
7227.97 948 998.858 1300.21 1302.59
7230.77 985.026 993.895 1242.22 1273.97
7233.56 1048.66 949.022 1279.48 1283.07
7236.36 813.382 924.429 1327.49 1258.84
7239.16 911.247 889.389 1169.54 1225.18
7241.95 943.537 918.772 1178.51 1179.99
7244.75 901.532 938.876 1191.92 1225.26
7247.54 971.56 862.06 1305.34 1215.12
7250.34 713.089 895.478 1148.09 1250.97
7253.13 1001.78 901.391 1299.48 1221.86
7255.93 989.3 937.241 1217.99 1224.82
7258.72 820.638 917.986 1156.99 1208.96
7261.51 944.02 883.494 1251.91 1208.14
7264.31 885.824 913.31 1215.53 1195.8
7267.1 910.085 875.299 1119.94 1187.14
7269.9 829.987 787.334 1225.95 1166.34
7272.69 621.93 799.002 1153.12 1203.53
7275.48 945.088 834.28 1231.53 1218.51
7278.27 935.822 848.147 1270.88 1252.38
7281.07 663.531 872.812 1254.73 1280.1
7283.86 1019.08 838.321 1314.69 1274.56
7286.65 832.349 931.419 1254.26 1278.96
7289.45 942.825 932.687 1267.94 1278.1
7292.24 1022.89 971.014 1312.11 1261.1
7295.03 947.329 1009.83 1203.25 1258.06
7297.82 1059.27 1002.62 1258.83 1212.27
7300.61 1001.27 1008.09 1174.74 1218.13
7303.4 963.741 966.72 1220.82 1183.95
7306.2 935.153 971.914 1156.28 1197.28
7308.99 1016.85 986.358 1214.72 1178.91
7311.78 1007.07 994.221 1165.74 1195.29
7314.57 958.741 995.762 1205.41 1219.97
7317.36 1021.47 997.461 1288.76 1277.11
7320.15 1012.17 1041.86 1337.17 1331.36
7322.94 1091.92 1046.56 1368.16 1340.57
7325.73 1035.59 1051.11 1316.36 1307.92
7328.52 1025.83 1029.6 1239.23 1294.95
7331.31 1027.39 1069.3 1329.25 1310.36
7334.1 1154.68 1047.67 1362.6 1286.79
7336.89 960.942 1065.03 1168.53 1285.18
7339.67 1079.48 1024.92 1324.43 1256.89
7342.46 1034.32 983.107 1277.72 1319.19
7345.25 835.515 972.091 1355.44 1322.08
7348.04 1046.43 978.145 1333.08 1316.76
7350.83 1052.48 1023.28 1261.75 1259.8
7353.62 970.931 1019.89 1184.55 1246.82
7356.4 1036.25 1016.78 1294.15 1255.09
7359.19 1043.15 955.951 1286.56 1246.9
7361.98 788.446 895.453 1159.98 1238.94
7364.77 854.762 899.722 1270.28 1219.73
7367.55 1055.96 994.104 1228.94 1271.13
7370.34 1071.59 1012.66 1314.17 1292.19
7373.13 910.433 991.724 1333.46 1291.21
7375.91 993.148 993.329 1226.01 1287.44
7378.7 1076.4 1037.29 1302.85 1264.34
7381.49 1042.31 1044.68 1264.16 1269.08
7384.27 1015.32 1042.4 1240.24 1247.66
7387.06 1069.59 1042.62 1238.59 1241.7
7389.84 1042.94 1040.23 1246.27 1235.9
7392.63 1008.16 1031.07 1222.83 1227.96
7395.41 1042.12 1013.82 1214.79 1232.77
7398.2 991.196 999.993 1260.71 1223.49
7400.98 966.666 1007.27 1194.98 1266.99
7403.77 1063.95 1031.82 1345.29 1281.29
7406.55 1064.84 1051.93 1303.59 1307.41
7409.34 1026.99 1035.05 1273.33 1264.58
7412.12 1013.31 1021.69 1216.81 1225.86
7414.9 1024.77 1034.94 1187.44 1211.96
7417.69 1066.72 1048.49 1231.62 1223.51
7420.47 1053.98 1047.71 1251.48 1223.53
7423.25 1022.43 1053.18 1187.49 1226.79
7426.04 1083.12 1039.75 1241.41 1203.15
7428.82 1013.72 1071.05 1180.56 1248.02
7431.6 1116.33 1022.59 1322.1 1241.89
7434.38 937.714 1026.25 1223 1259.08
7437.17 1024.71 1022.59 1232.14 1250
7439.95 1105.36 1051.83 1294.86 1259.03
7442.73 1025.41 1052.91 1250.1 1283.98
7445.51 1027.97 1025.01 1306.97 1272.56
7448.29 1021.64 1045.2 1260.62 1284.2
7451.07 1086 1049.3 1285 1255.42
7453.86 1040.26 1038.37 1220.63 1253.8
7456.64 988.855 1041.28 1255.76 1234.86
7459.42 1094.72 1046.04 1228.19 1235.08
7462.2 1054.55 1088.4 1221.3 1244.1
7464.98 1115.93 1055.98 1282.82 1266.73
7467.76 997.458 993.424 1296.06 1229.21
7470.54 866.886 922.533 1108.74 1210.78
7473.32 903.255 956.901 1227.54 1210.48
7476.1 1100.56 1022.31 1295.15 1247.77
7478.88 1063.1 1084.79 1220.62 1261.44
7481.66 1090.7 1059.41 1268.54 1235.15
7484.43 1024.43 1052.62 1216.28 1242.38
7487.21 1042.73 1023.9 1242.33 1255.77
7489.99 1004.54 990.466 1308.71 1236.65
7492.77 924.125 969.32 1158.92 1221.99
7495.55 979.293 942.433 1198.35 1174.66
7498.33 923.882 988.701 1166.72 1198.47
7501.1 1062.93 1007.48 1230.33 1204.54
7503.88 1035.63 1046.04 1216.56 1215.13
7506.66 1039.55 1051.62 1198.5 1233.01
7509.44 1079.67 1050.01 1283.98 1222.34
7512.21 1030.81 1070.33 1184.54 1231.88
7514.99 1100.52 1056.18 1227.12 1206.19
7517.77 1037.21 1084.55 1206.9 1219.65
7520.54 1115.92 1073.33 1224.94 1199.63
7523.32 1066.85 1055.45 1167.04 1188.59
7526.09 983.588 1045.03 1173.79 1219.12
7528.87 1084.67 990.211 1316.54 1234.5
7531.65 902.379 1005.32 1213.19 1248.16
7534.42 1028.93 967.639 1214.75 1171.09
7537.2 971.608 975.203 1085.34 1157.16
7539.97 925.072 960.821 1171.39 1136.62
7542.75 985.782 958.585 1153.11 1161.96
7545.52 964.902 984.611 1161.38 1154.51
7548.29 1003.15 981.383 1149.03 1147.46
7551.07 976.1 956.1 1131.97 1130.1
7553.84 889.052 953.461 1109.31 1124.29
7556.62 995.231 954.282 1131.59 1124.96
7559.39 978.564 1010.06 1133.98 1172.91
7562.16 1056.39 1010.13 1253.14 1184.84
7564.94 995.443 1051.55 1167.4 1206.45
7567.71 1102.82 1038.84 1198.82 1166.36
7570.48 1018.26 1051.37 1132.88 1152.68
7573.25 1033.03 1017.29 1126.35 1149.15
7576.03 1000.58 1007.23 1188.23 1136.92
7578.8 988.069 999.834 1096.17 1157.59
7581.57 1010.85 982.205 1188.36 1135.23
7584.34 947.695 972.344 1121.14 1138.77
7587.11 958.488 912.69 1106.8 1080.64
7589.89 831.887 829.011 1013.98 977.661
7592.66 696.66 642.794 812.201 783.341
7595.43 399.835 505.349 523.842 592.414
7598.2 419.551 371.33 441.198 427.736
7600.97 294.604 326.285 318.167 349.4
7603.74 264.701 293.309 288.835 317.177
7606.51 320.622 316.947 344.529 342.428
7609.28 365.516 392.489 393.919 424.615
7612.05 491.328 506.584 535.397 561.26
7614.82 662.907 589.581 754.465 670.319
7617.59 614.508 634.781 721.095 729.831
7620.36 626.928 621.175 713.935 710.557
7623.13 622.089 567.653 696.643 668.816
7625.89 453.941 531.943 595.87 623.239
7628.66 519.8 517.01 577.205 597.779
7631.43 577.29 544.885 620.261 596.406
7634.2 537.567 566.539 591.751 622.813
7636.97 584.761 579.947 656.426 661.283
7639.74 617.513 608.456 735.673 695.541
7642.5 623.093 640.298 694.524 727.792
7645.27 680.288 645.684 753.178 728.792
7648.04 633.67 661.673 738.673 769.376
7650.8 671.06 697.259 816.278 814.722
7653.57 787.046 750.552 889.216 868.736
7656.34 793.549 781.632 900.715 909.812
7659.1 764.3 781.271 939.505 934.836
7661.87 785.964 769.951 964.288 938.811
7664.64 759.591 809.055 912.641 953.661
7667.4 881.61 862.721 984.052 976.101
7670.17 946.963 893.9 1031.61 995.365
7672.93 853.128 908.491 970.432 1005.64
7675.7 925.383 893.671 1014.88 979.722
7678.46 902.501 910.198 953.851 992.142
7681.23 902.709 900.82 1007.69 986.79
7683.99 897.249 874.784 998.829 997.274
7686.75 824.392 897.692 985.301 1014.1
7689.52 971.434 895.032 1058.17 1006.57
7692.28 889.269 912.09 976.236 1002.1
7695.05 875.566 900.518 971.904 989.835
7697.81 936.719 910.874 1021.36 997.816
7700.57 920.336 900.508 1000.18 980.914
7703.33 844.469 898.235 921.196 978.035
7706.1 929.901 931.56 1012.73 987.065
7708.86 1020.31 961.527 1027.27 990.066
7711.62 934.37 948.757 930.196 981.092
7714.38 891.59 895.145 985.809 955.682
7717.15 859.474 878.585 951.041 967.959
7719.91 884.69 854.893 967.026 966.385
7722.67 820.514 810.818 981.088 964.007
7725.43 727.249 777.634 943.905 973.66
7728.19 785.14 799.88 995.987 965.861
7730.95 887.25 854.144 957.689 980.429
7733.71 890.042 902.238 987.611 973.633
7736.47 929.421 896.226 975.6 972.409
7739.23 869.215 876.018 954.017 966.556
7741.99 829.419 879.73 970.05 950.843
7744.75 940.556 877.175 928.464 930.473
7747.51 861.55 871.085 892.905 915.803
7750.27 811.148 751.847 926.042 948.759
7753.03 582.844 761.05 1027.33 973.134
7755.79 889.159 778.345 966.029 1002.47
7758.55 863.032 858.693 1014.06 985.624
7761.31 823.889 817.205 976.778 992.635
7764.07 764.695 830.469 987.062 983.534
7766.82 902.823 867.247 986.762 995.257
7769.58 934.223 894.703 1011.95 979.112
7772.34 847.064 842.556 938.627 945.09
7775.1 746.383 742.606 884.695 881.046
7777.85 634.37 735.058 819.815 861.451
7780.61 824.421 753.922 879.845 865.475
7783.37 802.975 816.623 896.765 893.911
7786.13 822.473 831.064 905.123 902.33
7788.88 867.744 766.106 905.101 889.15
7791.64 608.102 702.967 857.225 912.641
7794.39 633.055 625.828 975.597 911.857
7797.15 636.329 685.849 902.749 928.096
7799.91 788.165 770.387 905.942 922.224
7802.66 886.669 818.282 957.981 891.143
7805.42 780.014 829.73 809.507 889.958
7808.17 822.508 802.17 902.387 886.786
7810.93 803.989 794.644 948.463 892.594
7813.68 757.435 782.549 826.931 858.13
7816.43 786.222 792.076 798.997 837.484
7819.19 832.572 835.811 886.524 854.051
7821.94 888.638 856.177 876.63 896.144
7824.7 847.321 831.036 925.277 879.439
7827.45 757.148 809.1 836.41 885.341
7830.2 822.829 800.268 894.336 879.047
7832.96 820.827 784.796 906.396 881.431
7835.71 710.731 794.097 843.56 886.711
7838.46 850.733 794.038 910.176 887.81
7841.21 820.649 830.444 909.694 913.499
7843.97 819.949 819.905 920.628 916.315
7846.72 819.116 825.812 918.623 908.736
7849.47 838.37 837.773 886.958 892.726
7852.22 855.832 819.631 872.598 843.384
7854.97 764.69 763.731 770.595 803.918
7857.72 670.671 744.509 768.562 782.724
7860.47 798.167 755.639 809.015 811.163
7863.22 798.079 807.952 855.912 824.58
7865.97 827.609 790.496 808.813 815.359
7868.72 745.8 792.795 781.351 804.861
7871.47 804.976 796.523 824.418 837.712
7874.22 838.793 800.36 907.367 854.346
7876.97 757.311 731.141 831.254 867.178
7879.72 597.319 672.579 862.914 856.966
7882.47 663.105 596.699 876.73 825.894
7885.22 529.674 692.912 738.039 839.877
7887.97 885.957 711.495 904.862 791.117
7890.72 718.855 786.003 730.452 825.209
7893.47 753.196 726.446 840.313 789.394
7896.21 707.288 737.018 797.418 825.718
7898.96 750.572 726.869 839.421 824.208
7901.71 722.747 739.674 835.786 813.21
7904.46 745.702 673.277 764.423 772.324
7907.2 551.383 710.003 716.762 777.033
7909.95 832.925 707.386 849.915 765.689
7912.7 737.852 787.34 730.389 796.469
7915.44 791.244 668.233 809.104 814.661
7918.19 475.601 671.6 904.489 830.12
7920.94 747.954 628.865 776.768 874.069
7923.68 663.039 705.399 940.949 855.723
7926.43 705.203 689.199 849.451 857.875
7929.17 699.353 700.506 783.225 832.618
7931.92 696.96 727.814 865.177 837.111
7934.66 787.128 734.028 862.93 844.236
7937.41 717.997 746.415 804.602 823.991
7940.15 734.119 715.752 804.441 787.279
7942.9 695.14 732.029 752.793 790.091
7945.64 766.828 712.606 813.038 776.259
7948.38 675.851 691.074 762.947 769.755
7951.13 630.542 666.399 733.279 755.282
7953.87 692.803 679.536 769.619 768.681
7956.61 715.263 705.805 803.145 789.501
7959.36 709.35 709.723 795.739 783.191
7962.1 704.556 710.714 750.689 769.566
7964.84 718.236 681.22 762.271 734.998
7967.59 620.869 686.6 692.036 749.13
7970.33 720.696 655.779 793.085 739.262
7973.07 625.771 674.186 732.665 753.524
7975.81 676.091 677.931 734.823 755.197
7978.55 731.931 717.042 798.103 778.379
7981.29 743.106 701.873 802.21 770.426
7984.03 630.582 691.845 710.964 767.794
7986.78 701.847 704.827 790.207 743.299
7989.52 782.051 742.781 728.727 735.398
7992.26 744.445 723.058 687.261 714.52
7995 642.68 680.421 727.571 715.714
7997.74 654.137 663.511 732.31 735.721
8000.48 693.716 672.764 747.282 735.342
8003.21 670.439 685.353 726.433 737.263
8005.95 691.903 677.795 738.073 729.613
8008.69 671.043 690.13 724.333 746.59
8011.43 707.443 685.156 777.366 747.251
8014.17 676.983 664.038 740.054 734.223
8016.91 607.689 643.733 685.25 722.244
8019.65 646.528 633.85 741.429 692.147
8022.38 647.332 678.678 649.763 719.125
8025.12 742.172 701.857 766.184 703.16
8027.86 716.068 705.698 693.533 752.136
8030.6 658.855 660.241 796.691 716.002
8033.33 605.801 645.469 657.783 718.683
8036.07 671.752 649.447 701.576 687.425
8038.81 670.787 678.004 702.918 714.86
8041.54 691.473 671.913 740.086 716.442
8044.28 653.478 670.221 706.321 716.183
8047.01 665.71 660.475 702.141 693.405
8049.75 662.238 675.628 671.755 712.684
8052.49 698.935 680.188 764.157 724.893
8055.22 679.391 684.492 738.768 726.619
8057.96 675.149 658.929 676.933 673.438
8060.69 622.246 650.22 604.613 660.228
8063.42 653.266 630.968 699.138 680.573
8066.16 617.392 647.191 737.968 729.29
8068.89 670.915 665.213 750.766 742.363
8071.63 707.332 678.82 738.354 734.822
8074.36 658.213 672.255 715.345 708.821
8077.09 651.221 655.62 672.763 695.497
8079.83 657.426 665.687 698.381 713.095
8082.56 688.413 671.48 768.14 743.636
8085.29 668.6 677.133 764.385 755.89
8088.02 674.385 691.273 735.146 758.733
8090.76 730.833 697.354 776.668 742.172
8093.49 686.844 694.319 714.703 733.525
8096.22 665.28 661.201 709.203 705.237
8098.95 631.477 633.856 691.804 690.355
8101.68 604.809 631.955 670.059 683.504
8104.41 659.578 644.401 688.65 679.722
8107.14 668.815 644.609 680.456 676.293
8109.87 605.433 648.79 659.774 676.495
8112.6 672.123 642.199 689.254 666.599
8115.33 649.042 680.595 650.77 690.74
8118.06 720.622 665.784 732.196 674.348
8120.79 627.69 670.337 640.077 671.752
8123.52 662.7 647.821 642.984 647.958
8126.25 653.072 647.203 660.812 647.924
8128.98 625.837 646.735 639.977 658.093
8131.71 661.295 629.743 673.49 646.498
8134.44 602.096 631.694 626.027 643.823
8137.17 631.69 597.947 631.951 616.949
8139.89 560.054 596.044 592.87 613.589
8142.62 596.389 575.026 615.944 597.384
8145.35 568.635 592.342 583.337 615.112
8148.08 612.003 584.972 646.055 617.996
8150.8 574.277 589.75 624.597 620.333
8153.53 582.969 570.701 590.346 593.343
8156.26 554.855 578.864 565.088 583.247
8158.98 598.769 574.853 594.307 585.706
8161.71 570.936 574.131 597.724 585.587
8164.44 552.688 571.081 564.731 583.176
8167.16 589.619 571.067 587.073 571.143
8169.89 570.892 577.252 561.626 578.8
8172.61 571.246 558.066 587.701 574.819
8175.34 532.061 558.749 575.129 592.713
8178.06 572.942 565.974 615.31 605.86
8180.79 592.921 581.357 627.14 607.448
8183.51 578.208 574.527 579.895 584.255
8186.24 552.452 563.885 545.729 560.689
8188.96 560.995 573.723 556.442 570.61
8191.68 607.723 587.691 609.659 581.511
8194.41 594.355 587.998 578.43 588.252
8197.13 561.917 582.923 576.668 590.967
8199.85 592.499 591.581 617.802 608.612
8202.57 620.327 605.153 631.365 609.391
8205.3 602.634 605.796 579.006 594.256
8208.02 594.427 599.628 572.396 588.304
8210.74 601.823 593.945 613.51 584.295
8213.46 585.585 592.285 566.978 597.733
8216.18 589.447 584.027 612.71 575.409
8218.91 577.05 573.664 546.54 555.265
8221.63 554.495 551.321 506.546 526.135
8224.35 522.418 508.914 525.319 483.55
8227.07 449.83 495.693 418.786 480.904
8229.79 514.831 512.754 498.606 492.329
8232.51 573.603 553.849 559.596 540.234
8235.23 573.114 594.463 562.499 564.99
8237.95 636.671 650.861 572.875 587.321
8240.67 742.799 681.106 626.591 608.241
8243.39 663.847 673.8 625.258 624.839
8246.1 614.754 637.09 622.669 622.023
8248.82 632.669 607.542 618.141 609.838
8251.54 575.203 577.795 588.705 585.443
8254.26 525.514 567.183 549.482 573.278
8256.98 600.831 571.864 581.646 568.468
8259.69 589.247 606.033 574.275 579.143
8262.41 628.022 598.753 581.507 578.036
8265.13 578.99 599.078 578.326 585.144
8267.85 590.221 597.098 595.6 600.583
8270.56 622.082 612.946 627.822 603.837
8273.28 626.533 622.514 588.089 605.572
8276 618.927 612.55 600.804 575.363
8278.71 592.19 572.466 537.194 531.324
8281.43 506.281 555.101 455.974 514.198
8284.14 566.832 547.803 549.425 508.431
8286.86 570.296 573.686 519.893 558.285
8289.57 583.93 553.725 605.537 581.876
8292.29 506.95 539.135 620.198 584.9
8295 526.526 540.163 528.964 590.556
8297.72 587.013 588.095 622.507 600.262
8300.43 650.746 596.327 649.314 621.829
8303.14 551.221 599.582 593.667 636.401
8305.86 596.779 597.247 666.222 615.768
8308.57 643.74 622.431 587.415 621.351
8311.28 626.775 610.29 610.416 596.354
8314 560.355 585.12 591.231 577.727
8316.71 568.229 574.122 531.534 566.942
8319.42 593.784 584.123 578.062 570.405
8322.13 590.357 597.78 601.62 590.806
8324.85 609.199 601.296 592.735 599.82
8327.56 604.331 595.992 605.105 593.958
8330.27 574.447 579.211 584.035 571.106
8332.98 558.855 557.444 524.179 551.308
8335.69 539.03 550.97 545.709 539.056
8338.4 555.025 549.589 547.279 505.176
8341.11 554.713 532.094 422.541 485.449
8343.82 486.544 552.735 486.525 516.742
8346.53 616.948 528.062 641.159 578.959
8349.24 480.694 565.048 609.192 642.201
8351.95 597.501 531.978 676.252 573.703
8354.66 517.741 576.424 435.665 589.84
8357.37 614.03 564.329 657.604 545.622
8360.08 561.216 585.107 543.597 578.341
8362.79 580.073 585.926 533.822 551.473
8365.5 616.487 599.675 576.998 587.022
8368.2 602.466 608.674 650.245 612.221
8370.91 607.068 623.17 609.42 628.073
8373.62 659.975 619.469 624.555 605.909
8376.33 591.363 630.567 583.754 601.935
8379.03 640.363 616.697 597.496 566.137
8381.74 618.366 626.692 517.161 547.054
8384.45 621.347 606.701 526.506 530.448
8387.15 580.392 608.414 547.676 552.388
8389.86 623.504 594.9 582.981 581.084
8392.57 580.806 640.275 612.596 604.743
8395.27 716.515 651.181 618.651 597.784
8397.98 656.222 675.133 562.105 562.354
8400.68 652.661 643.432 506.304 556.301
8403.39 621.414 606.472 600.495 555.698
8406.09 545.341 587.003 560.294 577.098
8408.8 594.255 598.076 570.506 561.102
8411.5 654.633 612.447 552.507 552.208
8414.2 588.453 608.712 533.611 532.134
8416.91 583.049 577.323 510.285 531.096
8419.61 560.466 592.484 549.391 553.014
8422.31 633.935 580.028 599.366 547.284
8425.02 545.682 612.334 493.095 547.24
8427.72 657.385 595.977 549.26 512.93
8430.42 584.863 638.337 496.436 530.605
8433.12 672.762 604.669 546.121 517.766
8435.82 556.382 599.39 510.742 544.974
8438.53 569.025 579.839 578.06 542.636
8441.23 614.108 585.962 539.106 555.971
8443.93 574.752 591.243 550.747 556.738
8446.63 584.87 587.645 580.36 550.795
8449.33 603.314 596.792 521.28 554.808
8452.03 602.193 599.331 562.784 551.492
8454.73 592.486 598.019 570.411 587.46
8457.43 599.378 587.587 629.184 577.484
8460.13 570.898 592.673 532.857 543.612
8462.83 607.742 601.406 468.794 488.869
8465.53 625.578 598.675 464.956 470.599
8468.23 562.706 602.021 478.047 491.081
8470.93 617.78 588.699 530.24 524.674
8473.62 585.611 587.858 565.735 543.645
8476.32 560.183 595.424 534.959 569.897
8479.02 640.479 603.815 608.996 555.024
8481.72 610.783 597.856 521.118 547.153
8484.42 542.308 590.126 511.345 530.589
8487.11 617.289 588.839 559.303 549.75
8489.81 606.919 608.29 578.602 548.164
8492.51 600.661 604.961 506.587 534.579
8495.2 607.302 591.707 518.548 502.987
8497.9 567.159 590.855 483.826 522.488
8500.59 598.104 605.006 565.088 526.355
8503.29 649.756 616.099 530.151 533.556
8505.99 600.438 618.121 505.43 524.468
8508.68 604.171 588.953 537.823 496.326
8511.38 562.252 591.451 445.724 502.222
8514.07 607.931 590.339 523.119 524.441
8516.76 600.835 597.986 604.481 547.079
8519.46 585.193 589.823 513.636 555.153
8522.15 583.442 599.243 547.341 536.711
8524.85 629.093 588.496 549.156 541.003
8527.54 552.954 589.2 526.514 537.364
8530.23 585.553 583.269 536.421 545.037
8532.93 611.3 615.759 572.175 563.178
8535.62 650.422 623.203 580.937 567.967
8538.31 607.885 615.685 550.79 550.928
8541 588.749 603.382 521.056 532.589
8543.69 613.512 609.863 525.922 541.263
8546.39 627.327 618.432 576.811 551.381
8549.08 614.456 623.637 551.41 566.944
8551.77 629.129 613.511 572.611 549.411
8554.46 596.95 602.937 524.213 536.673
8557.15 582.731 596.844 513.196 521.252
8559.84 610.85 606.249 526.347 531.909
8562.53 625.165 612.198 556.184 531.824
8565.22 600.578 605.085 512.942 529.646
8567.91 589.511 611.473 519.812 537.502
8570.6 644.331 619.365 579.752 541.146
8573.29 624.254 625.057 523.874 541.516
8575.98 606.586 604.093 520.921 519.704
8578.67 581.439 587.021 514.318 517.302
8581.35 573.037 591.287 516.668 524.794
8584.04 619.385 606.953 543.397 528.965
8586.73 628.437 636.846 526.832 550.452
8589.42 662.715 645.16 581.128 561.651
8592.1 644.328 638.83 576.994 571.833
8594.79 609.445 622.051 557.377 548.644
8597.48 612.379 613.899 511.561 536.754
8600.16 619.872 614.709 541.324 531.991
8602.85 611.876 606.979 543.086 533.113
8605.54 589.188 590.871 514.927 514.191
8608.22 571.549 586.675 484.559 510.081
8610.91 599.29 590.444 530.757 508.24
8613.59 600.495 615.374 509.404 524.904
8616.28 646.339 633.629 534.551 544.826
8618.96 654.054 630.735 590.523 536.22
8621.65 591.813 625.448 483.586 537.787
8624.33 630.476 608.27 539.251 506.843
8627.01 602.521 596.831 497.69 508.482
8629.7 557.495 572.995 488.504 493.242
8632.38 558.967 574.279 493.533 496.043
8635.06 606.374 612.427 506.092 535.338
8637.75 671.94 641.929 606.391 561.503
8640.43 647.474 635.017 572.026 570.174
8643.11 585.636 599.376 532.106 539.561
8645.79 565.019 572.887 514.55 503.819
8648.48 568.005 605.984 464.802 527.407
8651.16 684.927 614.029 602.867 527.461
8653.84 589.154 639.143 514.713 558.766
8656.52 643.349 620.394 558.718 534.162
8659.2 628.678 634.111 529.056 546.936
8661.88 630.306 629.663 553.033 529.402
8664.56 630.006 609.515 506.115 522.126
8667.24 568.234 575.044 507.229 490.002
8669.92 526.891 549.716 456.661 485.731
8672.6 554.024 525.582 493.302 459.444
8675.28 495.831 535.103 428.369 472.539
8677.96 555.455 516.198 495.946 447.097
8680.64 497.307 521.858 416.977 459.077
8683.32 512.811 518.734 464.309 449.929
8685.99 546.085 557.457 468.501 478.27
8688.67 613.474 595.273 501.999 511.207
8691.35 626.261 619.07 563.12 533.621
8694.03 617.476 611.431 535.745 532.445
8696.7 590.556 607.869 498.471 516.251
8699.38 615.575 629.94 514.537 535.198
8702.06 683.69 637.222 592.585 537.633
8704.73 612.4 637.931 505.778 541.397
8707.41 617.703 624.019 525.829 516.093
8710.09 641.954 612.963 516.672 510.828
8712.76 579.232 616.492 489.984 507.218
8715.44 628.291 601.578 514.998 495.985
8718.11 597.211 633.462 482.973 523.09
8720.79 674.884 618.393 571.299 515.032
8723.46 583.085 628.988 490.823 527.557
8726.14 628.995 623.7 520.55 522.695
8728.81 659.019 620.728 556.711 512.908
8731.48 574.17 613.783 461.463 504.16
8734.16 608.16 602.282 494.305 488.853
8736.83 624.515 612.064 510.79 498.282
8739.5 603.517 608.052 489.75 493.029
8742.18 596.125 625.692 478.548 510.695
8744.85 677.434 636.024 563.786 523.797
8747.52 634.513 636.622 529.057 540.478
8750.19 597.92 623.1 528.591 522.213
8752.86 636.868 613.931 508.99 528.408
8755.53 607.005 636.625 547.644 570.486
8758.21 666.002 640.725 654.823 573.839
8760.88 649.168 635.612 519.05 608.377
8763.55 591.665 648.873 651.258 609.837
8766.22 705.785 653.825 659.205 651.024
8768.89 664.025 679.486 642.609 614.837
8771.56 668.646 679.514 542.698 624.566
8774.23 705.871 664.653 688.392 580.441
8776.9 619.44 642.92 510.233 547.368
8779.56 603.449 611.331 443.48 482.424
8782.23 611.103 588.638 493.559 504.892
8784.9 551.362 595.06 577.639 546.935
8787.57 622.715 598.065 569.607 542.458
8790.24 620.118 612.465 480.129 509.302
8792.91 594.562 563.049 478.17 464.557
8795.57 474.466 509.028 435.37 431.474
8798.24 458.055 475.655 380.88 427.82
8800.91 494.444 497.644 467.21 441.623
8803.57 540.433 530.957 476.779 482.912
8806.24 557.994 551.564 504.746 495.4
8808.91 556.264 557.412 504.676 505.794
8811.57 557.977 564.425 507.961 505.797
8814.24 579.034 564.751 504.754 497.746
8816.9 557.24 556.873 480.522 510.772
8819.57 534.344 558.896 547.041 574.902
8822.23 585.104 585.74 697.144 672.546
8824.9 637.772 636.971 773.453 733.203
8827.56 688.039 693.88 729.012 652.712
8830.22 755.829 655.315 455.67 513.391
8832.89 522.078 603.03 355.491 466.225
8835.55 531.183 552.622 587.514 444.582
8838.21 604.604 550.037 390.739 453.505
8840.88 514.323 550.158 382.26 412.919
8843.54 531.547 523.032 465.759 446.185
8846.2 523.225 547.849 490.537 498.313
8848.86 588.776 553.89 538.643 512.562
8851.52 549.67 563.341 508.505 523.87
8854.19 551.576 554.943 524.461 511.051
8856.85 563.583 546.953 500.185 473.069
8859.51 525.7 538.723 394.561 458.197
8862.17 526.885 562.974 479.844 488.31
8864.83 636.338 604.23 590.523 547.795
8867.49 649.468 627.319 573.017 553.523
8870.15 596.152 592.592 497.028 482.321
8872.81 532.157 579.617 376.918 449.835
8875.47 610.543 561.91 475.558 464.322
8878.13 543.029 595.396 540.489 560.872
8880.78 632.617 607.176 666.57 634.385
8883.44 645.882 650.451 696.095 647.377
8886.1 672.855 650.882 579.464 601.672
8888.76 633.91 617.81 529.456 490.238
8891.42 546.666 537.724 361.794 408.019
8894.07 432.598 517.016 332.806 387.113
8896.73 571.785 529.389 466.738 462.501
8899.39 583.784 583.284 587.961 526.51
8902.04 594.283 607.69 524.831 539.092
8904.7 645.001 615.312 504.484 476.257
8907.36 606.651 581.658 399.456 438.256
8910.01 493.32 559.828 410.829 468.015
8912.67 579.514 534.791 593.76 515.285
8915.32 531.539 609.407 541.266 617.457
8917.98 717.169 646 717.346 593.266
8920.63 689.291 665.421 521.187 540.367
8923.29 589.804 607.798 382.569 370.071
8925.94 544.3 557.112 206.458 247.804
8928.59 537.234 550.41 154.385 259.57
8931.25 569.695 561.759 417.868 309.143
8933.9 578.348 565.409 355.175 417.174
8936.55 548.184 549.272 478.479 421.79
8939.21 521.283 556.32 431.716 472.778
8941.86 599.491 573.652 508.139 497.924
8944.51 600.181 579.966 553.916 476.282
8947.16 540.226 551.121 366.79 434.619
8949.81 512.955 536.065 383.151 416.321
8952.46 555.012 525.641 499.023 475.804
8955.12 508.956 528.185 545.237 541.518
8957.77 520.587 551.943 580.294 567.881
8960.42 626.287 604.826 578.112 508.655
8963.07 667.604 527.919 367.56 322.89
8965.72 289.865 442.612 22.9982 156.947
8968.37 370.366 387.801 80.2823 117.172
8971.02 503.172 455.236 248.234 208.331
8973.66 492.169 493.088 296.477 311.147
8976.31 483.924 489.605 388.731 348.175
8978.96 492.721 492.767 359.317 393.623
8981.61 501.654 500.181 432.819 403.446
8984.26 506.167 490.759 418.2 406.452
8986.9 464.456 481.742 368.338 425.504
8989.55 474.604 449.543 489.973 411.748
8992.2 409.569 422.68 376.934 387.606
8994.85 383.868 432.387 295.913 365.004
8997.49 503.724 461.28 422.166 398.253
9000.14 496.247 487.809 476.679 458.319
9002.78 463.456 478.356 476.113 492.866
9005.43 475.365 472.676 525.807 410.948
9008.08 479.205 457.013 230.924 277.64
9010.72 416.467 457.675 76.1886 181.252
9013.37 477.352 454.547 236.644 186.875
9016.01 469.822 478.65 247.793 251.812
9018.65 488.775 472.051 271 285.14
9021.3 457.554 478.938 336.628 317.498
9023.94 490.485 482.766 344.865 351.249
9026.59 500.26 500.033 372.255 377.077
9029.23 509.355 492.455 414.112 389.974
9031.87 467.75 494.687 383.556 391.848
9034.51 506.956 497.497 377.877 400.623
9037.16 517.783 536.41 440.437 435.107
9039.8 584.491 541.277 487.006 436.829
9042.44 521.556 552.041 383.043 408.573
9045.08 550.075 545.859 355.67 377.711
9047.72 565.945 544.233 394.421 394.583
9050.36 516.681 528.168 433.658 418.487
9053 501.88 517.324 427.38 422.843
9055.64 533.413 511.531 407.491 376.63
9058.28 499.302 511.424 295.02 309.509
9060.92 501.557 490.422 226.017 273.349
9063.56 470.408 490.762 299.011 290.521
9066.2 500.321 478.348 346.534 343.813
9068.84 464.314 452.99 385.895 336.552
9071.48 394.333 372.45 277.227 278.15
9074.12 258.704 217.679 171.33 149.519
