wavelength spectrum_sum 3smoothed_sum spectrum_optimal 3smoothed_optimal
3505.82 -0.424214 -0.486227 129.151 78.6848
3508.73 -1.03447 2.08237 106.904 127.65
3511.64 7.70579 7.4649 146.896 117.84
3514.55 15.7234 15.2633 99.7218 125.427
3517.47 22.3607 22.8139 129.663 125.099
3520.38 30.3575 23.9218 145.912 139.387
3523.29 19.0471 16.6678 142.587 133.781
3526.2 0.598763 6.29252 112.844 119.048
3529.11 -0.768294 -1.08127 101.714 120.497
3532.03 -3.07429 3.08894 146.932 128.348
3534.94 13.1094 3.14554 136.397 148.244
3537.85 -0.598494 5.30996 161.403 136.42
3540.76 3.41898 -7.72145 111.461 133.4
3543.68 -25.9848 -7.77867 127.336 127.623
3546.59 -0.77015 -1.77328 144.073 135.711
3549.5 21.4351 9.95386 135.724 122.234
3552.41 9.1966 9.39879 86.9046 123.83
3555.33 -2.43537 7.50071 148.861 139.244
3558.24 15.7409 11.065 181.967 168.749
3561.15 19.8894 11.864 175.418 169.661
3564.06 -0.0381485 9.12219 151.599 167.097
3566.97 7.51535 3.28092 174.275 167.187
3569.89 2.36557 5.41921 175.689 179.481
3572.8 6.37671 1.07708 188.479 171.562
3575.71 -5.51102 0.564879 150.517 180.136
3578.62 0.828955 -1.18217 201.411 182.285
3581.54 1.13555 -5.07991 194.929 193.924
3584.45 -17.2042 2.05693 185.431 182.202
3587.36 22.2395 6.73239 166.247 188.04
3590.27 15.1619 13.347 212.441 188.057
3593.19 2.63946 3.91241 185.482 189.651
3596.1 -6.06416 2.86214 171.031 179.257
3599.01 12.0111 11.1393 181.259 183.551
3601.92 27.4709 20.517 198.362 184.467
3604.83 22.0688 25.5952 173.779 185.729
3607.75 27.2457 13.3926 185.046 185.895
3610.66 -9.13666 15.2079 198.86 193.71
3613.57 27.5147 8.98292 197.224 206.226
3616.48 8.57069 20.2084 222.593 192.845
3619.4 24.5397 20.7571 158.718 195.937
3622.31 29.1609 29.8339 206.501 192.459
3625.22 35.8012 25.0245 212.158 209.215
3628.13 10.1113 29.1568 208.987 206.919
3631.05 41.5578 29.7952 199.61 215.589
3633.96 37.7166 34.5005 238.17 230.933
3636.87 24.2272 34.6244 255.019 244.051
3639.78 41.9295 40.2808 238.964 240.807
3642.69 54.6858 48.6027 228.438 240.579
3645.61 49.1928 46.6139 254.334 247.084
3648.52 35.9632 39.7197 258.478 270.512
3651.43 34.0032 38.6792 298.724 254.044
3654.34 46.0713 44.962 204.931 238.284
3657.26 54.8115 58.6883 211.198 223.316
3660.17 75.1821 55.9573 253.82 228.084
3663.08 37.8782 56.8198 219.235 250.662
3665.99 57.399 51.6384 278.933 247.725
3668.9 59.638 54.3664 245.009 254.191
3671.82 46.0622 42.3694 238.632 249.48
3674.73 21.4079 34.6797 264.801 246.811
3677.64 36.5689 37.4485 237.001 264.414
3680.55 54.3688 51.37 291.44 287.955
3683.47 63.1724 64.0791 335.423 302.557
3686.38 74.6962 60.079 280.808 293.357
3689.29 42.3686 67.1587 263.84 267.659
3692.2 84.4114 72.7148 258.329 253.272
3695.11 91.3644 81.0059 237.645 258.296
3698.03 67.2418 68.4516 278.912 271.215
3700.94 46.7486 58.2337 297.089 293.029
3703.85 60.7106 62.0565 303.087 293.86
3706.76 78.7103 67.6667 281.405 315.817
3709.67 63.5791 73.1214 362.96 309.656
3712.59 77.0748 69.3167 284.602 316.743
3715.5 67.2961 77.8442 302.665 296.84
3718.41 89.1618 77.9398 303.251 298.328
3721.32 77.3614 88.4699 289.066 295.096
3724.24 98.8865 87.9454 292.971 293.788
3727.15 87.5882 93.7195 299.327 305.138
3730.06 94.6837 84.194 323.118 319.174
3732.97 70.3101 91.418 335.077 317.753
3735.88 109.26 97.7277 295.066 325.455
3738.8 113.613 96.3803 346.223 327.759
3741.71 66.2679 84.4227 341.987 330.406
3744.62 73.3874 75.3348 303.009 349.762
3747.53 86.3493 80.1106 404.292 342.981
3750.44 80.5951 77.0244 321.643 379.458
3753.36 64.1289 81.0658 412.44 351.311
3756.27 98.4733 85.2866 319.852 385.096
3759.18 93.2577 96.4547 422.996 354.44
3762.09 97.6332 91.152 320.473 366.921
3765 82.5652 85.193 357.293 352.936
3767.92 75.3805 78.7674 381.043 388.414
3770.83 78.3566 89.1975 426.907 410.219
3773.74 113.855 95.0354 422.708 416.4
3776.65 92.8943 94.1517 399.584 393.052
3779.56 75.7053 102.521 356.863 389.11
3782.47 138.962 115.665 410.885 409.422
3785.39 132.327 133.871 460.518 430.692
3788.3 130.323 143.412 420.673 447.39
3791.21 167.586 160.088 460.979 453.857
3794.12 182.356 170.443 479.919 481.993
3797.03 161.388 159.027 505.082 494.517
3799.95 133.338 153.052 498.55 490.403
3802.86 164.43 158.522 467.576 474.975
3805.77 177.799 177.68 458.798 491.147
3808.68 190.812 189.101 547.066 511.223
3811.59 198.694 186.353 527.805 558.492
3814.5 169.555 199.834 600.604 560.599
3817.42 231.253 184.544 553.387 542.108
3820.33 152.824 189.118 472.334 498.856
3823.24 183.278 183.461 470.846 495.573
3826.15 214.282 204.836 543.539 519.898
3829.06 216.949 213.878 545.31 526.655
3831.97 210.403 204.622 491.116 519.497
3834.89 186.513 191.995 522.065 496.495
3837.8 179.069 183.469 476.305 527.834
3840.71 184.826 185.477 585.131 527.871
3843.62 192.538 176.22 522.176 557.299
3846.53 151.296 162.524 564.59 522.509
3849.44 143.739 139.972 480.761 521.075
3852.36 124.88 134.834 517.874 503.484
3855.27 135.883 107.142 511.815 512.721
3858.18 60.6618 110.216 508.472 542.364
3861.09 134.104 107.581 606.806 593.772
3864 127.976 125.65 666.037 730.172
3866.91 114.871 99.2799 917.672 906.065
3869.82 54.9926 46.4395 1134.49 1072.75
3872.74 -30.5455 4.97602 1166.08 1122.04
3875.65 -9.51903 -0.77359 1065.55 1077.2
3878.56 37.7438 25.6437 999.955 941.569
3881.47 48.7064 63.433 759.203 840.625
3884.38 103.849 73.2027 762.717 721.282
3887.29 67.053 89.6196 641.926 679.903
3890.2 97.957 80.5356 635.066 605.063
3893.12 76.5968 92.9105 538.197 561.267
3896.03 104.178 102.356 510.539 535.147
3898.94 126.294 97.9339 556.705 531.489
3901.85 63.3297 83.5308 527.224 550.266
3904.76 60.9686 70.0991 566.869 564.321
3907.67 85.9989 62.1739 598.871 603.056
3910.58 39.5542 71.2397 643.43 582.457
3913.49 88.1661 83.1585 505.071 546.383
3916.41 121.755 102.084 490.648 502.841
3919.32 96.3296 110.729 512.804 542.871
3922.23 114.104 93.8854 625.161 600.445
3925.14 71.2232 73.2752 663.37 655.835
3928.05 34.499 65.2288 678.975 635.934
3930.96 89.9643 58.2343 565.455 627.465
3933.87 50.2396 66.7904 637.963 599.915
3936.78 60.1674 63.5061 596.326 618.033
3939.7 80.1112 72.263 619.81 599.547
3942.61 76.5103 77.061 582.503 592.489
3945.52 74.5613 73.2599 575.155 576.965
3948.43 68.7081 80.9095 573.237 584.684
3951.34 99.459 83.599 605.661 625.267
3954.25 82.6298 81.1463 696.904 641.24
3957.16 61.3501 69.9905 621.156 680.549
3960.07 65.9916 72.8142 723.587 684.433
3962.98 91.1009 74.4759 708.555 723.087
3965.89 66.3353 88.5323 737.119 708.01
3968.8 108.161 99.1594 678.355 702.415
3971.72 122.982 116.189 691.77 680.909
3974.63 117.424 132.247 672.601 671.007
3977.54 156.334 136.732 648.652 661.256
3980.45 136.439 158.972 662.516 639.128
3983.36 184.145 161.041 606.215 630.87
3986.27 162.541 176.869 623.879 638.923
3989.18 183.92 171.406 686.673 680.432
3992.09 167.757 191.413 730.742 757.597
3995 222.563 208.674 855.377 805.731
3997.91 235.702 238.876 831.075 834.823
4000.82 258.365 243.175 818.017 845.184
4003.73 235.458 234.953 886.46 848.809
4006.64 211.036 237.328 841.95 899.638
4009.56 265.49 254.926 970.506 929.245
4012.47 288.252 273.757 975.279 966.28
4015.38 267.53 292.102 953.055 992.148
4018.29 320.523 284.412 1048.11 1011.6
4021.2 265.183 280.882 1033.62 1041.96
4024.11 256.941 275.937 1044.15 1026.07
4027.02 305.688 287.495 1000.45 1014.27
4029.93 299.857 321.068 998.219 991.948
4032.84 357.66 345.36 977.175 956.193
4035.75 378.562 342.048 893.186 946.15
4038.66 289.921 348.11 968.089 939.046
4041.57 375.848 356.265 955.862 949.407
4044.48 403.025 416.329 924.269 949.981
4047.39 470.114 410.888 969.812 979.893
4050.3 359.526 426.221 1045.6 1044.04
4053.21 449.024 422.069 1116.7 1058.64
4056.12 457.657 455.581 1013.62 1085.43
4059.03 460.062 447.334 1125.96 1104.81
4061.94 424.284 457.701 1174.85 1144.69
4064.85 488.756 468.498 1133.25 1180.06
4067.76 492.456 458.758 1232.08 1164.09
4070.67 395.064 471.068 1126.95 1173.41
4073.58 525.686 455.63 1161.19 1160.83
4076.49 446.142 487.469 1194.35 1172.76
4079.4 490.579 491.543 1162.74 1151.35
4082.31 537.908 523.092 1096.96 1119.8
4085.22 540.788 526.151 1099.69 1103.59
4088.13 499.757 523.529 1114.12 1119.93
4091.04 530.044 525.464 1145.99 1136.27
4093.95 546.592 538.979 1148.71 1155.79
4096.86 540.303 559.138 1172.68 1190.16
4099.77 590.519 548.243 1249.1 1233.1
4102.68 513.905 519.7 1277.52 1268.39
4105.59 454.676 513.771 1278.55 1260.99
4108.5 572.732 499.262 1226.89 1229.21
4111.41 470.378 509.225 1182.2 1200.84
4114.32 484.565 491.787 1193.44 1150
4117.23 520.418 503.182 1074.36 1095.62
4120.14 504.564 493.813 1019.06 1042.65
4123.05 456.458 458.377 1034.52 1017.78
4125.96 414.109 448.907 999.746 1048.98
4128.87 476.152 439.953 1112.68 1051.82
4131.78 429.599 460.892 1043.02 1103.69
4134.69 476.926 453.124 1155.38 1105.08
4137.6 452.848 436.937 1116.85 1193.96
4140.51 381.037 408.866 1309.65 1224.04
4143.42 392.713 391.764 1245.62 1263.87
4146.33 401.543 390.408 1236.35 1287.13
4149.24 376.968 385.304 1379.42 1291.98
4152.14 377.402 372.084 1260.18 1322.86
4155.05 361.881 336.413 1328.98 1302.55
4157.96 269.958 309.136 1318.5 1290.54
4160.87 295.57 307.087 1224.15 1309.43
4163.78 355.731 315.625 1385.64 1326.88
4166.69 295.572 338.984 1370.85 1389.95
4169.6 365.65 327.366 1413.34 1412.43
4172.51 320.876 336.831 1453.08 1399.85
4175.42 323.967 317.07 1333.13 1385.56
4178.33 306.367 309.577 1370.47 1361.8
4181.24 298.398 306.469 1381.81 1392.93
4184.15 314.643 326.902 1426.52 1369.69
4187.05 367.665 345.784 1300.73 1411.55
4189.96 355.046 364.934 1507.41 1453.19
4192.87 372.092 366.791 1551.41 1470.91
4195.78 373.237 371.226 1353.91 1423.59
4198.69 368.348 382.81 1365.46 1329.77
4201.6 406.845 368.963 1269.93 1356.9
4204.51 331.697 341.145 1435.32 1401.28
4207.42 284.892 332.188 1498.58 1454.04
4210.33 379.975 329.017 1428.23 1471.4
4213.23 322.185 358.17 1487.39 1455.4
4216.14 372.349 366.619 1450.58 1470.54
4219.05 405.323 389.719 1473.65 1487.07
4221.96 391.485 399.834 1536.98 1499.78
4224.87 402.694 409.889 1488.72 1512.35
4227.78 435.487 414.194 1511.37 1470.76
4230.69 404.401 407.497 1412.18 1499.26
4233.6 382.604 401.259 1574.24 1479.76
4236.5 416.772 417.236 1452.87 1482.76
4239.41 452.331 433.211 1421.17 1465.45
4242.32 430.529 408.2 1522.31 1488.11
4245.23 341.741 363.661 1520.84 1435.74
4248.14 318.712 338.954 1264.07 1401.5
4251.05 356.41 359.941 1419.58 1322.38
4253.95 404.7 401.647 1283.48 1347.85
4256.86 443.832 414.141 1340.49 1319.55
4259.77 393.89 415.448 1334.68 1311.08
4262.68 408.623 403.533 1258.08 1250.81
4265.59 408.085 410.993 1159.67 1244.54
4268.49 416.271 421.064 1315.88 1271.66
4271.4 438.834 423.709 1339.42 1352.07
4274.31 416.022 452.964 1400.9 1384.66
4277.22 504.038 432.692 1413.65 1414.52
4280.13 378.015 440.239 1429.01 1430.05
4283.03 438.665 395.844 1447.49 1470.99
4285.94 370.851 401.415 1536.47 1497.43
4288.85 394.73 400.814 1508.35 1506.53
4291.76 436.862 411.997 1474.76 1516.82
4294.67 404.398 450.95 1567.35 1528.31
4297.57 511.59 448.345 1542.81 1544.82
4300.48 429.046 477.104 1524.3 1554.11
4303.39 490.676 469.057 1595.21 1586.81
4306.3 487.45 498.804 1640.93 1590.86
4309.2 518.288 513.646 1536.43 1599.36
4312.11 535.2 533.077 1620.71 1549.67
4315.02 545.743 535.943 1491.88 1582.51
4317.93 526.886 527.016 1634.94 1574.73
4320.83 508.419 532.24 1597.37 1648.45
4323.74 561.415 533.345 1713.04 1636.02
4326.65 530.201 526.096 1597.66 1675.83
4329.56 486.672 511.476 1716.78 1683.24
4332.46 517.553 523.744 1735.3 1712.87
4335.37 567.007 546.618 1686.54 1713.66
4338.28 555.293 570.863 1719.15 1682.27
4341.19 590.29 587.598 1641.13 1691.81
4344.09 617.21 570.742 1715.15 1700.76
4347 504.725 581.212 1746.02 1721.07
4349.91 621.7 577.866 1702.06 1734.27
4352.81 607.173 606.696 1754.75 1718.78
4355.72 591.215 593.999 1699.55 1733.2
4358.63 583.609 535.811 1745.32 1714.81
4361.54 432.609 493.418 1699.57 1725.69
4364.44 464.037 484.61 1732.18 1716.84
4367.35 557.186 501.103 1718.79 1719.37
4370.26 482.087 505.627 1707.13 1737.84
4373.16 477.608 546.652 1787.59 1785.07
4376.07 680.259 575.35 1860.5 1801.67
4378.98 568.182 603.181 1756.92 1829.17
4381.88 561.101 564.476 1870.1 1797.63
4384.79 564.147 560.176 1765.87 1812.51
4387.7 555.28 551.009 1801.56 1776.78
4390.6 533.599 543.56 1762.9 1807.56
4393.51 541.802 541.989 1858.23 1808.96
4396.42 550.565 550.383 1805.76 1802.27
4399.32 558.783 549.865 1742.81 1786.22
4402.23 540.247 529.758 1810.1 1798.94
4405.14 490.244 521.344 1843.9 1804.2
4408.04 533.542 518.851 1758.6 1773.77
4410.95 532.767 530.121 1718.8 1759.8
4413.85 524.053 538.342 1802.01 1780.75
4416.76 558.207 507.518 1821.45 1811.33
4419.67 440.294 498.495 1810.54 1810.22
4422.57 496.983 436.052 1798.67 1823.29
4425.48 370.879 452.078 1860.65 1826.77
4428.39 488.371 416.171 1820.98 1830.69
4431.29 389.264 472.368 1810.43 1821.18
4434.2 539.469 480.922 1832.13 1814.7
4437.1 514.034 519.813 1801.55 1812.95
4440.01 505.935 504.719 1805.18 1787.79
4442.92 494.186 465.305 1756.66 1775.59
4445.82 395.793 500.696 1764.94 1774.05
4448.73 612.108 499.519 1800.55 1808.98
4451.63 490.657 559.991 1861.46 1803.72
4454.54 577.209 534.739 1749.14 1816.62
4457.44 536.35 527.196 1839.26 1789.43
4460.35 468.028 491.017 1779.89 1782.64
4463.25 468.673 460.677 1728.77 1749.67
4466.16 445.33 428.088 1740.35 1703.35
4469.07 370.262 433.87 1640.94 1711.47
4471.97 486.019 447.751 1753.11 1678.1
4474.88 486.972 473.568 1640.25 1703.55
4477.78 447.713 463.031 1717.3 1667.97
4480.69 454.409 452.689 1646.37 1734.55
4483.59 455.944 431.544 1839.97 1754.02
4486.5 384.281 435.241 1775.73 1785.04
4489.4 465.498 422.995 1739.43 1734.51
4492.31 419.206 384.821 1688.38 1691.02
4495.21 269.758 376.107 1645.25 1670.67
4498.12 439.355 373.963 1678.37 1658.04
4501.02 412.775 368.494 1650.49 1690.84
4503.93 253.352 328.086 1743.67 1679.24
4506.83 318.132 306.268 1643.55 1681.88
4509.74 347.32 298.493 1658.43 1720.97
4512.64 230.027 295.692 1860.94 1739.03
4515.55 309.73 294.845 1697.73 1756.43
4518.45 344.778 332.672 1710.62 1686.14
4521.36 343.508 327.426 1650.08 1661.64
4524.26 293.991 314.601 1624.23 1628.88
4527.17 306.305 303.788 1612.31 1650.53
4530.07 311.068 300.649 1715.04 1661.43
4532.97 284.573 293.732 1656.94 1680.89
4535.88 285.556 269.613 1670.69 1718.9
4538.78 238.71 243.25 1829.07 1762.51
4541.69 205.486 228.919 1787.77 1779.09
4544.59 242.561 236.673 1720.44 1747.62
4547.5 261.972 248.744 1734.66 1744.65
4550.4 241.699 251.578 1778.86 1759.3
4553.3 251.064 239.08 1764.38 1756.95
4556.21 224.478 239.815 1727.62 1728.59
4559.11 243.902 219.887 1693.76 1707.38
4562.02 191.282 250.456 1700.77 1710.38
4564.92 316.185 237.32 1736.59 1700.52
4567.82 204.493 276.288 1664.19 1713.48
4570.73 308.187 263.593 1739.66 1728.2
4573.63 278.098 225.354 1780.75 1758.14
4576.54 89.7787 193.097 1754.01 1749.71
4579.44 211.414 194.223 1714.37 1727.54
4582.34 281.476 248.379 1714.23 1773.26
4585.25 252.247 257.657 1891.17 1803.33
4588.15 239.246 227.232 1804.61 1821.1
4591.05 190.203 203.761 1767.53 1809.82
4593.96 181.835 217.913 1857.33 1815.68
4596.86 281.702 243.598 1822.18 1829.7
4599.76 267.256 283.541 1809.58 1854.63
4602.67 301.664 278.777 1932.13 1901.51
4605.57 267.41 293.389 1962.81 1927.47
4608.47 311.093 324.957 1887.48 1914.33
4611.38 396.368 332.853 1892.7 1886.11
4614.28 291.097 344.112 1878.14 1914.12
4617.18 344.872 324.369 1971.5 1898.98
4620.09 337.139 310.78 1847.31 1892.98
4622.99 250.33 314.12 1860.14 1913.23
4625.89 354.89 319.545 2032.23 1955.53
4628.8 353.415 336.767 1974.23 2016.61
4631.7 301.997 325.198 2043.39 1981.42
4634.6 320.183 341.89 1926.64 1956.47
4637.5 403.49 340.793 1899.38 1869.07
4640.41 298.706 373.117 1781.18 1852.24
4643.31 417.154 390.612 1876.16 1813.12
4646.21 455.978 454.993 1782.01 1913.97
4649.11 491.846 486.278 2083.73 1964.97
4652.02 511.01 487.198 2029.18 2024.12
4654.92 458.738 477.865 1959.45 2006.91
4657.82 463.846 453.113 2032.12 2037.69
4660.72 436.754 462.449 2121.52 2119.82
4663.63 486.746 492.215 2205.83 2157.67
4666.53 553.144 518.498 2145.67 2186.16
4669.43 515.603 532.547 2206.98 2117.89
4672.33 528.892 533.943 2001.01 2162.73
4675.23 557.334 576.227 2280.21 2134.03
4678.14 642.456 592.818 2120.88 2211.72
4681.04 578.664 626.919 2234.07 2219.75
4683.94 659.636 616.094 2304.31 2265.92
4686.84 609.983 659.731 2259.38 2269.26
4689.74 709.576 693.883 2244.09 2259.49
4692.65 762.089 699.6 2274.99 2269.35
4695.55 627.136 703.741 2288.97 2255.01
4698.45 721.998 711.753 2201.07 2288.96
4701.35 786.126 767.553 2376.83 2324.56
4704.25 794.535 758.65 2395.79 2306.43
4707.15 695.289 755.144 2146.68 2286.87
4710.05 775.609 788.949 2318.14 2283.41
4712.96 895.948 849.042 2385.41 2363.13
4715.86 875.569 846.088 2385.84 2402.9
4718.76 766.747 848.941 2437.45 2392.27
4721.66 904.508 880.257 2353.52 2428.16
4724.56 969.517 880.069 2493.51 2411.28
4727.46 766.184 895.026 2386.81 2410.51
4730.36 949.377 879.433 2351.2 2395.25
4733.26 922.737 949.581 2447.74 2445.6
4736.16 976.628 945.539 2537.86 2494.86
4739.07 937.253 925.136 2498.99 2493.14
4741.97 861.526 900.648 2442.57 2464.21
4744.87 903.165 919.788 2451.08 2469.14
4747.77 994.673 965.456 2513.76 2499.87
4750.67 998.53 1005.86 2534.77 2499.28
4753.57 1024.37 1010.85 2449.31 2502.06
4756.47 1009.65 968.936 2522.09 2534.78
4759.37 872.791 919.326 2632.94 2534.08
4762.27 875.541 914.417 2447.21 2515.71
4765.17 994.917 966.264 2466.98 2472.93
4768.07 1028.34 1012.5 2504.59 2472.08
4770.97 1014.26 963.106 2444.68 2460.11
4773.87 846.724 968.452 2431.06 2495.99
4776.77 1044.37 997.642 2612.24 2508.5
4779.67 1101.83 1075.32 2482.2 2561.17
4782.57 1079.75 1085.64 2589.06 2528.85
4785.47 1075.34 1034.35 2515.29 2523
4788.37 947.959 998.801 2464.67 2516.2
4791.27 973.103 987.191 2568.65 2552.08
4794.17 1040.51 968.829 2622.9 2556.65
4797.07 892.87 966.984 2478.39 2508.09
4799.97 967.57 908.628 2422.98 2476.46
4802.87 865.443 908.525 2528.03 2498.4
4805.77 892.561 873.123 2544.2 2487.78
4808.67 861.364 904.183 2391.12 2464.83
4811.57 958.624 900.191 2459.17 2459.48
4814.47 880.586 885.598 2528.14 2501.34
4817.37 817.585 850.098 2516.7 2460.6
4820.27 852.124 833.691 2336.97 2500.87
4823.16 831.363 758.086 2648.94 2476.56
4826.06 590.77 675.594 2443.78 2506.44
4828.96 604.647 646.924 2426.59 2424.24
4831.86 745.355 696.299 2402.36 2414.32
4834.76 738.895 713.394 2414.02 2395.71
4837.66 655.932 665.898 2370.76 2361.16
4840.56 602.867 644.837 2298.69 2411.73
4843.46 675.713 643.903 2565.72 2434.19
4846.36 653.128 594.94 2438.17 2471.76
4849.25 455.979 567.663 2411.38 2392.34
4852.15 593.882 562.147 2327.46 2372.89
4855.05 636.581 553.592 2379.84 2317.88
4857.95 430.313 540.319 2246.35 2309.07
4860.85 554.064 513.563 2301.03 2277.73
4863.75 556.313 544.655 2285.82 2291.79
4866.64 523.588 547.298 2288.52 2313.3
4869.54 561.993 532.659 2365.56 2318.38
4872.44 512.396 522.181 2301.07 2363.35
4875.34 492.155 468.609 2423.43 2340.23
4878.24 401.277 445.906 2296.18 2310.65
4881.13 444.285 400.602 2212.33 2277.56
4884.03 356.244 419.314 2324.18 2280.51
4886.93 457.413 446.697 2305.02 2242.07
4889.83 526.436 507.308 2097.01 2246.47
4892.73 538.074 508.953 2337.37 2273.89
4895.62 462.348 466.432 2387.3 2310.67
4898.52 398.873 380.977 2207.33 2295.87
4901.42 281.709 315.796 2293 2280.32
4904.32 266.806 273.987 2340.63 2295.35
4907.21 273.446 306.38 2252.41 2293.34
4910.11 378.887 277.996 2286.98 2259.28
4913.01 181.655 269.642 2238.44 2246.12
4915.9 248.383 214.979 2212.93 2222.78
4918.8 214.9 268.493 2216.97 2293.18
4921.7 342.195 291.059 2449.62 2296.44
4924.6 316.082 325.988 2222.72 2268.34
4927.49 319.687 313.545 2132.67 2179.21
4930.39 304.866 290.723 2182.23 2211.23
4933.29 247.615 241.03 2318.78 2266.1
4936.18 170.609 245.945 2297.28 2314.24
4939.08 319.61 269.406 2326.66 2286.9
4941.98 317.998 319.279 2236.77 2303.79
4944.87 320.23 352.909 2347.93 2274.7
4947.77 420.5 360.263 2239.39 2244.84
4950.66 340.057 369.017 2147.21 2269.47
4953.56 346.493 327.119 2421.8 2301.45
4956.46 294.808 332.916 2335.34 2414.29
4959.35 357.448 341.06 2485.73 2393.18
4962.25 370.924 352.615 2358.48 2433.83
4965.15 329.472 359.487 2457.28 2395.96
4968.04 378.066 384.381 2372.12 2365.3
4970.94 445.605 411.107 2266.49 2344.8
4973.83 409.649 410.244 2395.8 2377.2
4976.73 375.478 376.891 2469.29 2429.03
4979.62 345.547 354.048 2422 2407.46
4982.52 341.118 318.962 2331.07 2420.35
4985.42 270.222 287.868 2507.99 2377.15
4988.31 252.263 292.38 2292.39 2368.75
4991.21 354.655 313.732 2305.88 2324.4
4994.1 334.277 359.229 2374.93 2340.14
4997 388.756 343.994 2339.61 2379.95
4999.89 308.948 337.032 2425.3 2350.64
5002.79 313.392 301.584 2287.01 2358.53
5005.68 282.411 327.569 2363.28 2322.15
5008.58 386.904 337.591 2316.17 2315.85
5011.47 343.458 369.012 2268.08 2292.72
5014.37 376.673 366.464 2293.9 2294.25
5017.26 379.262 361.332 2320.77 2327.15
5020.16 328.063 338.276 2366.78 2280.12
5023.05 307.504 327.63 2152.82 2299.59
5025.95 347.323 322.547 2379.16 2308.06
5028.84 312.813 330.232 2392.2 2373.72
5031.73 330.559 314.171 2349.8 2353.53
5034.63 299.14 338.878 2318.6 2298.58
5037.52 386.933 304.288 2227.33 2237.48
5040.42 226.79 311.346 2166.52 2229.37
5043.31 320.315 286.414 2294.24 2309.77
5046.21 312.138 287.998 2468.56 2516.82
5049.1 231.543 298.543 2787.66 2726.12
5051.99 351.948 293.641 2922.15 2838.36
5054.89 297.431 362.14 2805.28 2791.05
5057.78 437.039 353.569 2645.72 2599.58
5060.67 326.236 392.417 2347.72 2475.43
5063.57 413.975 383.399 2432.84 2437.78
5066.46 409.987 392.095 2532.78 2456.74
5069.36 352.322 426.293 2404.62 2433.07
5072.25 516.571 453.799 2361.81 2335.93
5075.14 492.506 474.138 2241.35 2326.61
5078.04 413.338 468.383 2376.67 2313.75
5080.93 499.303 482.397 2323.23 2394.69
5083.82 534.55 529.595 2484.19 2385.83
5086.72 554.933 531.71 2350.09 2374.78
5089.61 505.648 551.054 2290.06 2363.05
5092.5 592.581 566.175 2448.98 2406.86
5095.39 600.295 601.894 2481.53 2462.32
5098.29 612.805 630.345 2456.46 2502.02
5101.18 677.935 609.656 2568.08 2546.57
5104.07 538.23 621.335 2615.16 2519.66
5106.96 647.84 633.963 2375.75 2486.19
5109.86 715.82 649.775 2467.67 2425.36
5112.75 585.666 664.999 2432.67 2488.68
5115.64 693.511 654.163 2565.71 2549.12
5118.53 683.311 698.934 2648.99 2575.34
5121.43 719.981 686.427 2511.3 2622.79
5124.32 655.987 653.395 2708.08 2591.06
5127.21 584.217 650.403 2553.79 2614.42
5130.1 711.004 663.124 2581.39 2563.74
5132.99 694.151 645.49 2556.04 2528.98
5135.89 531.314 602.329 2449.51 2591.5
5138.78 581.522 600.278 2768.96 2610.19
5141.67 687.998 578.522 2612.11 2658.41
5144.56 466.047 574.401 2594.17 2620.34
5147.45 569.156 508.344 2654.75 2643.01
5150.34 489.828 524.653 2680.11 2703.05
5153.23 514.974 500.331 2774.28 2736.68
5156.13 496.19 492.489 2755.64 2695.54
5159.02 466.304 493.535 2556.7 2591.97
5161.91 518.111 453.791 2463.58 2506.99
5164.8 376.958 446.489 2500.71 2564.47
5167.69 444.399 404.283 2729.11 2495.62
5170.58 391.493 385.089 2257.03 2432.57
5173.47 319.375 386.309 2311.55 2335.48
5176.36 448.058 400.955 2437.86 2363.99
5179.25 435.432 449.061 2342.55 2376.14
5182.14 463.694 406.432 2348.02 2376.54
5185.03 320.17 399.521 2439.05 2376.9
5187.92 414.7 391.515 2343.65 2421.14
5190.82 439.674 437.03 2480.73 2417.74
5193.71 456.716 435.777 2428.83 2581.49
5196.6 410.94 399.076 2834.92 2680.59
5199.49 329.573 335.788 2778.02 2866.46
5202.38 266.851 280.598 2986.43 2941.61
5205.27 245.371 263.622 3060.39 2972.35
5208.16 278.644 317.516 2870.22 2882.99
5211.05 428.531 354.866 2718.36 2678.46
5213.94 357.423 398.204 2446.82 2653.03
5216.82 408.658 387.275 2793.93 2559.77
5219.71 395.745 371.731 2438.57 2544.34
5222.6 310.791 328.515 2400.53 2442.41
5225.49 279.008 335.963 2488.14 2388.72
5228.38 418.089 383.501 2277.51 2371.44
5231.27 453.408 441.503 2348.69 2411.56
5234.16 453.013 453.39 2608.5 2373.04
5237.05 453.75 453.506 2161.94 2379.7
5239.94 453.755 453.235 2368.66 2329.09
5242.83 452.2 425.141 2456.66 2425.96
5245.72 369.47 432.928 2452.55 2427.12
5248.61 477.114 450.501 2372.16 2423.93
5251.49 504.921 511.66 2447.08 2404.38
5254.38 552.946 522.577 2393.91 2461.53
5257.27 509.864 462.037 2543.61 2429.04
5260.16 323.301 451.589 2349.61 2456.62
5263.05 521.601 463.805 2476.63 2421.78
5265.94 546.514 483.287 2439.09 2422.38
5268.82 381.746 438.397 2351.43 2446.87
5271.71 386.93 383.969 2550.11 2445.27
5274.6 383.231 442.054 2434.29 2460.54
5277.49 556.001 476.194 2397.21 2382.9
5280.38 489.351 526.251 2317.2 2410.6
5283.26 533.4 520.316 2517.37 2434.54
5286.15 538.198 527.825 2469.03 2478.4
5289.04 511.877 551.644 2448.79 2486.53
5291.93 604.856 562.742 2541.78 2541.8
5294.81 571.492 563.81 2634.82 2542.17
5297.7 515.08 539.617 2449.9 2493.71
5300.59 532.277 500.114 2396.4 2429.2
5303.48 452.986 521.7 2441.3 2470.13
5306.36 579.837 476.677 2572.7 2478.55
5309.25 397.207 518.732 2421.65 2490.31
5312.14 579.152 503.103 2476.57 2480.36
5315.02 532.95 517.317 2542.86 2532.62
5317.91 439.848 535.667 2578.43 2530.21
5320.8 634.203 541.153 2469.35 2506.19
5323.68 549.408 584.632 2470.8 2504.15
5326.57 570.285 573.009 2572.29 2533.28
5329.46 599.335 599.43 2556.76 2587.52
5332.34 628.671 631.355 2633.5 2582.78
5335.23 666.058 641.075 2558.08 2495.75
5338.11 628.496 666.725 2295.67 2504.36
5341 705.622 657.147 2659.32 2480.41
5343.89 637.324 653.537 2486.24 2631.64
5346.77 617.665 612.291 2749.38 2648.95
5349.66 581.884 644.16 2711.22 2677.3
5352.54 732.932 674.519 2571.3 2643.82
5355.43 708.741 747.576 2648.93 2583.12
5358.32 801.056 715.695 2529.12 2616.93
5361.2 637.289 741.116 2672.74 2579.62
5364.09 785.003 754.722 2537.01 2614.02
5366.97 841.874 837.536 2632.32 2580.48
5369.86 885.73 871.159 2572.1 2555.02
5372.74 885.873 875.132 2460.63 2555.09
5375.63 853.792 872.704 2632.56 2588.48
5378.51 878.448 868.107 2672.25 2670.38
5381.4 872.08 877.542 2706.35 2659.78
5384.28 882.097 880.706 2600.75 2619.86
5387.17 887.941 914.887 2552.49 2620.75
5390.05 974.622 935.841 2709.01 2698.1
5392.94 944.958 926.347 2832.8 2751.08
5395.82 859.459 925.707 2711.42 2788.41
5398.7 972.705 908.658 2821.01 2751
5401.59 893.81 938.858 2720.58 2785.64
5404.47 950.059 875.553 2815.32 2787.52
5407.36 782.789 897.212 2826.66 2802.37
5410.24 958.789 885.468 2765.13 2817.88
5413.12 914.826 924.048 2861.86 2812.91
5416.01 898.528 920.625 2811.75 2818.52
5418.89 948.521 907.346 2781.96 2828.86
5421.78 874.988 898.202 2892.88 2910.14
5424.66 871.097 853.387 3055.58 2929.93
5427.54 814.075 885.916 2841.32 2932.48
5430.43 972.576 916.316 2900.53 2882.98
5433.31 962.298 973.328 2907.09 2831.96
5436.19 985.109 1002.73 2688.27 2827.44
5439.07 1060.79 979.967 2886.97 2796.78
5441.96 894.007 975.26 2815.1 2815.22
5444.84 970.989 967.21 2743.61 2821.66
5447.72 1036.64 1011.3 2906.27 2858.6
5450.61 1026.27 1017.53 2925.92 2899.18
5453.49 989.669 993.287 2865.36 2854.57
5456.37 963.919 967.49 2772.44 2799.15
5459.25 948.881 951.721 2759.63 2823.69
5462.14 942.362 966.565 2939 2853.43
5465.02 1008.45 964.267 2861.66 2869.67
5467.9 941.988 985.777 2808.34 2865.1
5470.78 1006.89 973.533 2925.3 2782.79
5473.66 971.72 971.146 2614.73 2750.33
5476.55 934.826 942.548 2710.97 2730.79
5479.43 921.099 934.003 2866.68 2822.37
5482.31 946.084 924.327 2889.47 2882.71
5485.19 905.799 897.489 2891.97 2812.56
5488.07 840.584 875.121 2656.25 2767.85
5490.95 878.98 783.158 2755.34 2690.74
5493.84 629.908 739.033 2660.63 2752.23
5496.72 708.211 698.475 2840.72 2763.4
5499.6 757.305 744.236 2788.85 2785.11
5502.48 767.193 775.459 2725.76 2739.41
5505.36 801.88 763.141 2703.63 2750.39
5508.24 720.349 735.288 2821.78 2711.13
5511.12 683.633 627.881 2607.97 2765.88
5514 479.659 645.832 2867.88 2730.66
5516.88 774.202 646.624 2716.12 2782.12
5519.76 686.01 680.029 2762.37 2761.97
5522.64 579.874 659.174 2807.4 2782.81
5525.52 711.637 664.755 2778.67 2754.28
5528.4 702.754 698.166 2676.78 2670.86
5531.28 680.108 727.046 2557.13 2601.45
5534.16 798.278 668.414 2570.43 2624.27
5537.04 526.855 633.012 2745.26 2656.38
5539.92 573.904 583.707 2653.47 2685.72
5542.8 650.362 644.852 2658.44 2624.78
5545.68 710.291 688.144 2562.42 2664.24
5548.56 703.778 702.656 2771.86 2631.32
5551.44 693.898 659.431 2559.67 2670.62
5554.32 580.616 684.69 2680.34 2703.94
5557.2 779.555 689.263 2871.81 2743
5560.08 707.617 733.52 2676.85 2810.82
5562.96 713.39 631.93 2883.8 2868.97
5565.84 474.785 656.737 3046.28 3008.53
5568.72 782.037 660.046 3095.52 2982.67
5571.59 723.316 759.983 2806.22 2903.07
5574.47 774.595 718.304 2807.47 2736.69
5577.35 657 410.665 2596.37 2597.18
5580.23 -199.599 386.638 2387.69 2610.53
5583.11 702.512 275.828 2847.54 2698.53
5585.99 324.569 577.458 2860.36 2859.61
5588.87 705.293 585.174 2870.92 2796.67
5591.74 725.66 713.004 2658.73 2740.46
5594.62 708.06 719.06 2691.73 2643.41
5597.5 723.459 711.625 2579.78 2655.85
5600.38 703.356 727.983 2696.03 2622.28
5603.25 757.133 666.941 2591.04 2655.96
5606.13 540.334 684.981 2680.81 2651.02
5609.01 757.475 631.72 2681.22 2683.02
5611.89 597.35 717.666 2687.05 2657.6
5614.76 798.172 693.196 2604.55 2706.96
5617.64 684.064 751.791 2829.28 2737.47
5620.52 773.136 723.214 2778.57 2747.79
5623.4 712.441 680.181 2635.51 2668.26
5626.27 554.965 652.19 2590.68 2657.48
5629.15 689.164 655.714 2746.25 2720.19
5632.03 723.012 706.926 2823.63 2813.32
5634.9 708.603 642.998 2870.07 2873.15
5637.78 497.379 576.858 2925.77 2838.32
5640.65 524.592 599.382 2719.12 2816.42
5643.53 776.175 655.225 2804.37 2728.33
5646.41 664.907 689.814 2661.5 2703.65
5649.28 628.359 628.173 2645.06 2696.41
5652.16 591.252 620.966 2782.66 2729.74
5655.03 643.287 587.797 2761.49 2730.82
5657.91 528.854 542.279 2648.31 2635.15
5660.79 454.697 538.867 2495.66 2614.65
5663.66 633.049 560.008 2699.97 2642.4
5666.54 592.278 551.981 2731.57 2685.5
5669.41 430.618 541.666 2624.95 2692.11
5672.29 602.104 524.363 2719.8 2696.07
5675.16 540.368 519.331 2743.47 2719.15
5678.04 415.521 448.92 2694.17 2671.26
5680.91 390.869 451.536 2576.14 2661.74
5683.79 548.217 500.437 2714.91 2610.69
5686.66 562.224 549.884 2541.01 2660.83
5689.54 539.211 539.09 2726.59 2584.52
5692.41 515.835 459.583 2485.97 2592.37
5695.29 323.703 452.675 2564.56 2511.31
5698.16 518.488 392.403 2483.41 2533.62
5701.03 335.018 437.204 2552.9 2570.55
5703.91 458.107 435.254 2675.34 2592.36
5706.78 512.637 465.345 2548.86 2579.14
5709.66 425.29 417.52 2513.21 2549.7
5712.53 314.634 416.453 2587.03 2503.93
5715.4 509.435 433.755 2411.54 2500.48
5718.28 477.197 496.305 2502.86 2427.88
5721.15 502.284 474.069 2369.24 2453.47
5724.02 442.727 415.983 2488.29 2472.21
5726.9 302.937 408.852 2559.11 2528.59
5729.77 480.893 432.352 2538.36 2578.05
5732.64 513.226 489.45 2636.67 2572.91
5735.52 474.232 439.945 2543.71 2540.37
5738.39 332.377 442.854 2440.73 2549
5741.26 521.954 395.836 2662.57 2575.62
5744.13 333.177 483.469 2623.55 2571.31
5747.01 595.277 457.805 2427.8 2510.99
5749.88 444.961 482.052 2481.63 2547.69
5752.75 405.919 481.377 2733.63 2552.72
5755.62 593.253 552.646 2442.91 2607.18
5758.5 658.767 604.363 2645.02 2586.06
5761.37 561.07 539.587 2670.26 2620.99
5764.24 398.924 518.264 2547.68 2634.24
5767.11 594.798 519.505 2684.78 2615.34
5769.98 564.792 585.872 2613.55 2650.6
5772.86 598.026 567.425 2653.49 2627.93
5775.73 539.457 566.719 2616.76 2632.84
5778.6 562.675 560.333 2628.27 2663.98
5781.47 578.867 601.582 2746.92 2656.65
5784.34 663.203 639.32 2594.76 2713.04
5787.21 675.889 657.018 2797.44 2657.6
5790.08 631.962 560.443 2580.59 2634.34
5792.95 373.478 541.874 2524.99 2623.52
5795.82 620.182 545.795 2764.98 2643.1
5798.69 643.727 599.518 2639.34 2666.31
5801.56 534.644 596.012 2594.59 2576.36
5804.44 609.664 574.667 2495.16 2530.31
5807.31 579.693 583.64 2501.19 2479.65
5810.18 561.563 539.904 2442.6 2530.21
5813.05 478.455 516.277 2646.83 2550.26
5815.92 508.814 496.886 2561.36 2598.53
5818.79 503.388 538.372 2587.4 2566.05
5821.65 602.914 555.664 2549.39 2536.41
5824.52 560.69 573.204 2472.44 2547.12
5827.39 556.007 511.132 2619.53 2579
5830.26 416.7 512.787 2645.02 2604.14
5833.13 565.653 488.377 2547.87 2635.84
5836 482.778 541.762 2714.64 2601.13
5838.87 576.856 529.827 2540.89 2604.91
5841.74 529.847 557.757 2559.19 2536.08
5844.61 566.569 479.025 2508.17 2548.47
5847.48 340.66 497.511 2578.05 2571.59
5850.35 585.303 485.384 2628.55 2653.42
5853.21 530.188 554.954 2753.68 2676.47
5856.08 549.371 501.646 2647.19 2731.68
5858.95 425.378 510.351 2794.18 2707.49
5861.82 556.304 442.708 2681.11 2687.62
5864.69 346.441 478.928 2587.56 2624.49
5867.55 534.038 459.508 2604.79 2565.21
5870.42 498.045 533.04 2503.27 2572.66
5873.29 567.036 554.082 2609.93 2574.23
5876.16 597.164 558.965 2609.5 2693.77
5879.03 512.695 452.05 2861.87 2711.5
5881.89 246.293 423.466 2663.12 2678.3
5884.76 511.411 424.376 2509.9 2544.55
5887.63 515.425 521.917 2460.64 2507.96
5890.49 538.915 528.453 2553.36 2530.88
5893.36 531.019 544.401 2578.65 2587.47
5896.23 563.27 550.219 2630.42 2553.13
5899.09 556.369 530.606 2450.33 2557.64
5901.96 472.177 493.15 2592.16 2565.89
5904.83 450.904 459.889 2655.17 2617.99
5907.69 456.587 464.579 2606.63 2497.03
5910.56 486.246 466.365 2229.3 2411.34
5913.43 456.264 481.074 2398.1 2364.3
5916.29 500.713 440.67 2465.49 2366.53
5919.16 365.033 446.069 2236 2400.32
5922.02 472.461 418.19 2499.47 2425.37
5924.89 417.077 437.204 2540.64 2587.1
5927.75 422.073 346.955 2721.2 2601.88
5930.62 201.716 321.302 2543.81 2652.55
5933.49 340.116 337.34 2692.64 2608.51
5936.35 470.187 418.594 2589.08 2595.69
5939.22 445.48 451.895 2505.34 2584.1
5942.08 440.017 421.577 2657.88 2584.36
5944.95 379.235 411.306 2589.86 2601.4
5947.81 414.667 411.969 2556.44 2537.75
5950.67 442.007 365.008 2466.96 2543.23
5953.54 238.351 325.702 2606.28 2569.87
5956.4 296.748 300.092 2636.36 2572.58
5959.27 365.177 353.866 2475.11 2542.19
5962.13 399.674 382.702 2515.08 2530.46
5965 383.256 392.792 2601.17 2551.12
5967.86 395.447 397.736 2537.1 2534.27
5970.72 414.504 340.587 2464.53 2541.13
5973.59 211.809 325.665 2621.76 2515.48
5976.45 350.682 285.678 2460.14 2516.35
5979.31 294.543 348.424 2467.14 2434.03
5982.18 400.046 360.838 2374.81 2428.18
5985.04 387.925 316.299 2442.59 2426.27
5987.9 160.927 295.559 2461.42 2495.2
5990.77 337.825 248.954 2581.59 2545.14
5993.63 248.108 307.906 2592.42 2574.15
5996.49 337.785 271.206 2548.43 2541.33
5999.36 227.726 308.68 2483.14 2481.97
6002.22 360.53 322.799 2414.34 2428.35
6005.08 380.142 348.841 2387.58 2455.8
6007.94 305.851 311.459 2565.48 2435.76
6010.8 248.384 318.364 2354.2 2438.38
6013.67 400.858 301.614 2395.44 2425.08
6016.53 255.601 320.642 2525.59 2456.92
6019.39 305.467 313.971 2449.72 2465.72
6022.25 380.847 372.328 2421.86 2486.26
6025.11 430.671 427.019 2587.19 2516.78
6027.97 469.537 447.442 2541.31 2553.93
6030.84 442.117 478.136 2533.31 2549.22
6033.7 522.755 478.231 2573.05 2536.3
6036.56 469.82 501.438 2502.54 2571.44
6039.42 511.74 417.185 2638.74 2583.31
6042.28 269.993 443.22 2608.65 2565.19
6045.14 547.927 412.555 2448.18 2576.69
6048 419.745 489.923 2673.23 2600.03
6050.86 502.097 429.786 2678.68 2628.45
6053.72 367.515 448.334 2533.45 2610.41
6056.58 475.391 453.129 2619.11 2595.76
6059.44 516.48 515.296 2634.73 2641.77
6062.3 554.017 556.319 2671.46 2667.53
6065.16 598.46 544.655 2696.4 2640.86
6068.02 481.488 545.985 2554.73 2611.07
6070.88 558.006 526.454 2582.09 2594.71
6073.74 539.869 521.955 2647.32 2622.15
6076.6 467.99 526.635 2637.04 2642.3
6079.46 572.046 515.684 2642.55 2630.44
6082.32 507.017 544.85 2611.73 2630.45
6085.18 555.488 562.497 2637.07 2612.14
6088.04 624.986 577.396 2587.63 2608.89
6090.89 551.714 600.302 2601.98 2585.81
6093.75 624.207 611.781 2567.81 2633.99
6096.61 659.421 641.633 2732.19 2654.95
6099.47 641.269 616.312 2664.84 2733.8
6102.33 548.246 583.786 2804.38 2749.62
6105.19 561.843 557.675 2779.65 2745.16
6108.04 562.936 584.143 2651.45 2709.51
6110.9 627.652 538.593 2697.43 2690.37
6113.76 425.193 527.274 2722.22 2673.95
6116.62 528.977 507.378 2602.21 2558.49
6119.47 567.964 563.683 2351.03 2456.84
6122.33 594.107 602.879 2417.27 2490.87
6125.19 646.565 564.949 2704.32 2548.91
6128.05 454.175 519.557 2525.15 2573.38
6130.9 457.931 504.287 2490.66 2527.35
6133.76 600.754 477.836 2566.25 2543.41
6136.62 374.823 524.566 2573.32 2513.59
6139.47 598.12 494.125 2401.19 2555.17
6142.33 509.431 553.393 2691 2542.33
6145.19 552.63 514.36 2534.78 2607.25
6148.04 481.02 522.166 2595.98 2599.26
6150.9 532.848 505.586 2667.03 2639.52
6153.75 502.889 513.876 2655.55 2626.09
6156.61 505.892 487.17 2555.68 2591.24
6159.46 452.728 436.196 2562.5 2546.54
6162.32 349.967 430.306 2521.44 2574.42
6165.18 488.225 452.301 2639.32 2555.2
6168.03 518.713 499.895 2504.85 2573.31
6170.89 492.748 487.322 2575.75 2509.58
6173.74 450.506 495.266 2448.15 2505.8
6176.6 542.545 498.101 2493.5 2500.02
6179.45 501.251 511.29 2558.41 2518.23
6182.31 490.073 510.861 2502.79 2555.18
6185.16 541.259 522.997 2604.33 2574.81
6188.01 537.66 520.687 2617.32 2645.67
6190.87 483.142 500.349 2715.35 2612.71
6193.72 480.247 477.404 2505.45 2576.26
6196.58 468.824 503.503 2507.97 2529.41
6199.43 561.438 536.362 2574.82 2550.55
6202.28 578.824 569.94 2568.85 2514.89
6205.14 569.558 561.163 2401 2503.9
6207.99 535.106 511.131 2541.86 2441.8
6210.84 428.73 495.159 2382.52 2454.14
6213.7 521.642 440.285 2438.04 2389.68
6216.55 370.485 453.624 2348.47 2480
6219.4 468.746 458.382 2653.5 2422.44
6222.26 535.915 498.808 2265.34 2467.5
6225.11 491.764 529.015 2483.65 2411.68
6227.96 559.365 504.272 2486.06 2508.46
6230.81 461.687 494.531 2555.68 2533.32
6233.67 462.54 450.805 2558.23 2505.88
6236.52 428.188 472.467 2403.72 2465.15
6239.37 526.672 508.86 2433.49 2416.24
6242.22 571.72 478.66 2411.52 2406.89
6245.07 337.589 399.592 2375.65 2377.83
6247.93 289.466 379.886 2346.31 2363.56
6250.78 512.603 439.207 2368.72 2389.37
6253.63 515.553 459.339 2453.07 2358.28
6256.48 349.863 421.928 2253.05 2434.59
6259.33 400.369 425.5 2597.65 2383.45
6262.18 526.268 472.806 2299.65 2433.95
6265.03 491.781 515.243 2404.55 2366.16
6267.88 527.679 495.471 2394.29 2423.97
6270.73 466.952 509.472 2473.07 2446.88
6273.59 533.785 445.306 2473.26 2440.32
6276.44 335.181 430.915 2374.64 2425.04
6279.29 423.777 408.343 2427.24 2366.72
6282.14 466.072 370.098 2298.29 2396.35
6284.99 220.445 391.502 2463.54 2357.68
6287.84 487.99 378.974 2311.2 2468.58
6290.69 428.487 492.596 2630.99 2551.1
6293.53 561.312 462.966 2711.12 2576.6
6296.38 399.099 463.466 2387.7 2412.46
6299.23 429.986 401.638 2138.55 2226.32
6302.08 375.828 390.623 2152.72 2180.52
6304.93 366.054 368.785 2250.28 2285.62
6307.78 364.472 380.027 2453.87 2267.43
6310.63 409.554 348.925 2098.15 2210.39
6313.48 272.748 333.305 2079.14 2152.32
6316.33 317.613 285.425 2279.67 2112.4
6319.17 265.913 233.541 1978.39 2184.45
6322.02 117.097 213.297 2295.3 2123.45
6324.87 256.881 189.682 2096.66 2154.61
6327.72 195.067 200.606 2071.86 2080.65
6330.57 149.87 180.969 2073.42 2120.3
6333.41 197.971 204.535 2215.62 2152.97
6336.26 265.765 188.846 2169.87 2139.49
6339.11 102.8 141.617 2032.97 2077.49
6341.96 56.2863 97.5111 2029.62 2034.43
6344.8 133.447 115.011 2040.71 2084.02
6347.65 155.3 140.409 2181.72 2111.68
6350.5 132.481 143.29 2112.6 2100.91
6353.34 142.088 79.0895 2008.42 2055.78
6356.19 -37.3005 -9.46311 2046.31 2104.83
6359.04 -133.177 -12.9497 2259.76 2104.23
6361.88 131.629 25.0497 2006.63 2073.82
6364.73 76.6977 14.1568 1955.09 2018.41
6367.57 -165.856 9.71935 2093.52 2014.13
6370.42 118.316 21.155 1993.79 2033.16
6373.27 111.005 93.5108 2012.15 1959.05
6376.11 51.2115 62.9691 1871.21 1954.5
6378.96 26.691 12.6218 1980.13 1958.14
6381.8 -40.0372 13.8839 2023.08 1985.09
6384.65 54.9978 31.4246 1952.05 1993.3
6387.49 79.3131 78.4821 2004.78 2003.45
6390.34 101.136 89.9246 2053.51 1987.04
6393.18 89.3251 93.3962 1902.84 1966.29
6396.03 89.7279 102.25 1942.54 1971.69
6398.87 127.698 100.437 2069.71 1962.73
6401.71 83.8849 62.7521 1875.94 1983.05
6404.56 -23.3262 62.6348 2003.52 1915.89
6407.4 127.346 73.9446 1868.22 1979.68
6410.25 117.814 111.481 2067.31 1926.82
6413.09 89.2838 109.129 1844.94 1942.13
6415.93 120.288 123.74 1914.13 1916.87
6418.78 161.648 90.1656 1991.54 1927.61
6421.62 -11.4391 86.8319 1877.16 1965.62
6424.46 110.287 81.7789 2028.18 1977.07
6427.31 146.489 100.704 2025.88 1951.07
6430.15 45.3358 96.0904 1799.16 1894.28
6432.99 96.4466 101.637 1857.79 1870.81
6435.83 163.128 153.351 1955.48 1960.06
6438.68 200.48 203.034 2066.92 1995.61
6441.52 245.494 174.363 1964.42 2051.94
6444.36 77.1157 166.899 2124.48 2047.79
6447.2 178.088 158.115 2054.48 2050.87
6450.05 219.141 208.707 1973.65 2017.2
6452.89 228.891 232.479 2023.47 2011.02
6455.73 249.403 232.551 2035.95 2002.66
6458.57 219.358 237.031 1948.55 2057.22
6461.41 242.333 174.476 2187.17 2050.18
6464.25 61.737 128.659 2014.84 2109.34
6467.09 81.9059 114.169 2126.02 2078.26
6469.93 198.864 181.796 2093.92 2115.61
6472.78 264.618 248.283 2126.89 2134.22
6475.62 281.367 279.186 2181.87 2108.56
6478.46 291.574 284.783 2016.94 2094.58
6481.3 281.409 294.316 2084.94 2095.66
6484.14 309.966 309.667 2185.11 2093.26
6486.98 337.626 290.679 2009.74 2117.71
6489.82 224.445 310.854 2158.28 2107.95
6492.66 370.49 262.229 2155.83 2129.31
6495.5 191.753 283.893 2073.82 2144.48
6498.34 289.437 289.983 2203.78 2180.04
6501.17 388.759 337.535 2262.53 2211.96
6504.01 334.409 398.13 2169.58 2245.54
6506.85 471.221 362.869 2304.5 2217.54
6509.69 282.976 384.387 2178.54 2237.13
6512.53 398.965 361.565 2228.34 2209.46
6515.37 402.756 347.224 2221.5 2205.39
6518.21 239.95 350.989 2166.33 2188.67
6521.05 410.262 355.971 2178.16 2162.9
6523.88 417.702 386.247 2144.21 2199.14
6526.72 330.777 395.521 2275.04 2241.78
6529.56 438.085 401.369 2306.09 2274.35
6532.4 435.246 438.319 2241.91 2263.72
6535.23 441.626 433.321 2243.15 2254.06
6538.07 423.091 448.179 2277.11 2313.1
6540.91 479.819 449.879 2419.05 2368.17
6543.75 446.728 448.599 2408.36 2400.44
6546.58 419.249 423.355 2373.9 2401.69
6549.42 404.089 429.178 2422.81 2381.49
6552.26 464.195 367.402 2347.78 2383.23
6555.09 233.922 316.023 2379.11 2371.47
6557.93 249.954 294.79 2387.53 2295.68
6560.77 400.496 366.714 2120.41 2303.79
6563.6 449.692 430.175 2403.44 2218.74
6566.44 440.338 397.748 2132.37 2270.51
6569.27 303.213 393.947 2275.72 2221.72
6572.11 438.289 417.31 2257.07 2268.21
6574.94 510.428 477.215 2271.85 2257.87
6577.78 482.927 481.085 2244.69 2284.86
6580.61 449.9 445.673 2338.03 2304.77
6583.45 404.192 437.977 2331.6 2318.52
6586.28 459.84 435.208 2285.93 2238.74
6589.12 441.592 465.469 2098.68 2264.63
6591.95 494.975 443.258 2409.29 2238.64
6594.79 393.206 428.767 2207.94 2246.74
6597.62 398.119 406.068 2122.97 2232.16
6600.46 426.878 412.367 2365.57 2217.66
6603.29 412.103 429.797 2164.44 2303.79
6606.12 450.411 363.618 2381.38 2283.54
6608.96 228.34 364.666 2304.81 2335.76
6611.79 415.246 370.396 2321.09 2303.81
6614.62 467.604 408.404 2285.54 2307.3
6617.46 342.364 425.116 2315.27 2292.6
6620.29 465.381 409.5 2276.99 2352.89
6623.12 420.756 397.875 2466.43 2359.07
6625.96 307.488 397.313 2333.81 2414.99
6628.79 463.696 395.444 2444.73 2304.29
6631.62 415.149 426.343 2134.33 2276.72
6634.45 400.183 412.879 2251.1 2228.07
6637.29 423.305 374.873 2298.77 2233.64
6640.12 301.131 384.751 2151.03 2250.74
6642.95 429.817 381.792 2302.41 2210.36
6645.78 414.429 429.43 2177.64 2232.19
6648.61 444.046 398.8 2216.52 2229.16
6651.44 337.925 364.237 2293.32 2262.8
6654.27 310.74 318.3 2278.56 2250.94
6657.11 306.234 359.46 2180.93 2259.11
6659.94 461.406 388.807 2317.83 2240.44
6662.77 398.78 406.714 2222.57 2253.14
6665.6 359.956 396.352 2219.02 2219.78
6668.43 430.319 408.614 2217.75 2209.73
6671.26 435.568 431.033 2192.42 2226.36
6674.09 427.212 415.134 2268.9 2255.07
6676.92 382.621 387.69 2303.89 2256.85
6679.75 353.237 379.287 2197.74 2245.36
6682.58 402.004 393.675 2234.44 2236.92
6685.41 425.783 405.463 2278.58 2275.24
6688.24 388.603 409.269 2312.68 2294.6
6691.07 413.422 404.423 2292.52 2323.32
6693.9 411.245 403.249 2364.76 2277.07
6696.72 385.081 355.275 2173.92 2288.48
6699.55 269.5 358.395 2326.76 2199.65
6702.38 420.602 358.51 2098.26 2223.69
6705.21 385.426 410.361 2246.04 2153.56
6708.04 425.054 418.42 2116.37 2201.57
6710.87 444.781 393.853 2242.29 2210.25
6713.69 311.723 373.85 2272.08 2275.15
6716.52 365.047 327.891 2311.08 2218.82
6719.35 306.902 339.488 2073.3 2163.85
6722.18 346.514 335.914 2107.17 2115.12
6725 354.326 357.576 2164.89 2183.09
6727.83 371.889 374.996 2277.21 2215.53
6730.66 398.774 388.396 2204.5 2245.33
6733.48 394.525 397.175 2254.29 2265.18
6736.31 398.225 396.26 2336.75 2291.89
6739.14 396.031 399.596 2284.63 2268.17
6741.96 404.531 388.727 2183.13 2153.67
6744.79 365.618 390.357 1993.25 2112.91
6747.62 400.923 385.174 2162.35 2070
6750.44 388.981 377.109 2054.39 2085.94
6753.27 341.423 367.916 2041.07 2104.42
6756.09 373.344 355.219 2217.79 2131.65
6758.92 350.889 376.354 2136.07 2206.12
6761.74 404.83 354.21 2264.51 2159.17
6764.57 306.911 335.244 2076.91 2178.99
6767.39 293.992 321.026 2195.55 2168.55
6770.22 362.174 329.683 2233.19 2191.86
6773.04 332.885 313.461 2146.83 2176.09
6775.87 245.323 280.648 2148.26 2160.57
6778.69 263.736 266.768 2186.62 2196.45
6781.52 291.245 289.662 2254.47 2164.4
6784.34 314.003 303.083 2052.11 2165.76
6787.16 304.001 308.616 2190.71 2160.42
6789.99 307.842 300.155 2238.46 2212.44
6792.81 288.623 293.933 2208.15 2287.65
6795.63 285.334 287.147 2416.33 2353.83
6798.46 287.483 272.488 2437.02 2469.16
6801.28 244.647 249.679 2554.12 2501.88
6804.1 216.908 183.186 2514.49 2524.17
6806.93 88.003 203.606 2503.89 2725.82
6809.75 305.906 78.5659 3159.07 3444.25
6812.57 -158.212 -90.755 4669.78 4701.28
6815.39 -419.96 -444.521 6274.98 6011.42
6818.22 -755.393 -659.319 7089.51 6568
6821.04 -802.604 -670.784 6339.52 5994.61
6823.86 -454.356 -467.607 4554.8 4868.83
6826.68 -145.861 -182.554 3712.16 3705.61
6829.5 52.5553 38.1606 2849.87 3212.02
6832.32 207.788 130.618 3074.04 3028.31
6835.14 131.51 19.3096 3161.02 3227.24
6837.96 -281.369 -83.7278 3446.66 3380.23
6840.79 -101.324 -120.332 3533.01 3365.19
6843.61 21.6983 11.5327 3115.89 3119.54
6846.43 114.224 59.0792 2709.72 2766.74
6849.25 41.3149 109.607 2474.62 2486.44
6852.07 173.281 148.236 2274.97 2292.24
6854.89 230.112 226.512 2127.14 2146.16
6857.71 276.143 237.643 2036.36 2029.15
6860.53 206.673 146.99 1923.94 1951.16
6863.34 -41.8478 96.6444 1893.18 1846.61
6866.16 125.108 86.2807 1722.7 1719.94
6868.98 175.582 121.654 1543.95 1607.56
6871.8 64.2717 135.307 1556.04 1590.52
6874.62 166.067 148.641 1671.57 1690.02
6877.44 215.586 217.162 1842.46 1752.22
6880.26 269.832 220.544 1742.65 1766.22
6883.08 176.213 178.627 1713.57 1744.16
6885.89 89.8366 155.49 1776.27 1800.67
6888.71 200.42 150.458 1912.18 1848.28
6891.53 161.118 165.745 1856.41 1855.76
6894.35 135.697 113.331 1798.68 1832.37
6897.16 43.1762 37.6967 1842.02 1757.42
6899.98 -65.7832 -15.6629 1631.55 1734.12
6902.8 -24.3818 -22.6832 1728.8 1742.96
6905.62 22.1153 18.2833 1868.54 1833.64
6908.43 57.1164 97.4879 1903.58 1863.03
6911.25 213.232 152.985 1816.96 1869.37
6914.07 188.608 214.867 1887.57 1930.6
6916.88 242.76 115.617 2087.27 1929.07
6919.7 -84.518 122.131 1812.38 1926.65
6922.51 208.152 28.3916 1880.28 1875.92
6925.33 -38.4593 106.747 1935.11 1911.14
6928.14 150.548 80.0143 1918.04 1933.22
6930.96 127.954 142.574 1946.52 1943.18
6933.78 149.22 136.732 1964.96 1980.16
6936.59 133.021 129.461 2028.98 1989.21
6939.4 106.142 119.367 1973.7 1977.96
6942.22 118.938 116.361 1931.2 1923.22
6945.03 124.004 115.21 1864.76 1891.84
6947.85 102.688 134.697 1879.56 1859.73
6950.66 177.398 82.1745 1834.88 1880.58
6953.48 -33.562 35.3305 1927.3 1871.47
6956.29 -37.8444 -26.7286 1852.25 1892.64
6959.1 -8.77941 19.3296 1898.38 1911.3
6961.92 104.613 72.0199 1983.28 1879.78
6964.73 120.227 100.966 1757.68 1909.89
6967.54 78.0599 107.081 1988.7 1940.08
6970.36 122.955 87.8118 2073.86 2199.99
6973.17 62.4203 53.2853 2537.41 2491.39
6975.98 -25.5195 -14.6271 2862.9 2746.3
6978.8 -80.7822 -50.9238 2838.59 2781.51
6981.61 -46.4696 -28.5912 2643.03 2633.23
6984.42 41.4782 -57.6251 2418.06 2511.33
6987.23 -167.884 -108.784 2472.91 2479.8
6990.04 -199.946 -146.122 2548.44 2558.66
6992.85 -70.5359 -113.807 2654.65 2579.66
6995.67 -70.9401 -35.0701 2535.89 2435.33
6998.48 36.2659 -11.4659 2115.43 2234.26
7001.29 0.276383 22.1463 2051.44 2023.31
7004.1 29.8967 24.0425 1903.05 1914.32
7006.91 41.9545 70.8928 1788.45 1872.38
7009.72 140.827 78.341 1925.63 1829.54
7012.53 52.2414 93.6658 1774.55 1856.41
7015.34 87.9289 77.8122 1869.06 1798.51
7018.15 93.2662 97.461 1751.93 1845.62
7020.96 111.188 99.0071 1915.89 1857.88
7023.77 92.5673 91.3171 1905.83 1855.71
7026.58 70.1963 65.4159 1745.41 1796.42
7029.39 33.4842 56.2626 1738.02 1781.13
7032.2 65.1074 45.3842 1859.97 1795.93
7035.01 37.561 72.0795 1789.8 1792.48
7037.82 113.57 21.7959 1727.66 1759.44
7040.63 -85.7433 27.3942 1760.85 1714.65
7043.43 54.356 12.4672 1655.45 1702.27
7046.24 68.789 27.1552 1690.52 1703.6
7049.05 -41.6793 -3.94913 1764.85 1834.23
7051.86 -38.9571 -35.518 2047.32 1832.21
7054.67 -25.9176 4.89182 1684.46 1785
7057.47 79.5502 35.3164 1623.23 1669.63
7060.28 52.3167 27.818 1701.2 1677.19
7063.09 -48.4129 -10.0562 1707.15 1708.87
7065.9 -34.0724 -2.81772 1718.26 1690.89
7068.7 74.0321 38.948 1647.26 1695.57
7071.51 76.8844 63.1372 1721.18 1709.12
7074.32 38.495 60.3089 1758.94 1693.05
7077.12 65.5474 34.1236 1599.04 1714.18
7079.93 -1.67148 42.4126 1784.57 1696.45
7082.73 63.362 -0.535633 1705.75 1708.08
7085.54 -63.2974 -26.3251 1633.91 1683.47
7088.35 -79.0399 -27.7855 1710.73 1771.35
7091.15 58.9809 8.83177 1969.41 1787.36
7093.96 46.5543 73.6855 1681.94 1821.62
7096.76 115.521 73.6913 1813.52 1766.85
7099.57 58.9981 83.8442 1805.11 1839.69
7102.37 77.0132 67.5147 1900.44 1821.73
7105.18 66.5327 62.1227 1759.65 1812.5
7107.98 42.8223 13.1212 1777.4 1728.36
7110.78 -69.9915 -23.138 1648.03 1720.63
7113.59 -42.2449 -15.5294 1736.45 1702.32
7116.39 65.648 33.6644 1722.48 1727.14
7119.2 77.5899 70.2396 1722.48 1775.64
7122 67.481 66.2866 1881.95 1761.29
7124.8 53.789 52.4769 1679.42 1724.16
7127.61 36.1608 48.3459 1611.11 1623.11
7130.41 55.0878 40.3773 1578.8 1630.93
7133.21 29.8833 23.5317 1702.88 1656.96
7136.02 -14.376 -20.1285 1689.2 1712.78
7138.82 -75.8927 -61.4211 1746.26 1757.63
7141.62 -93.9946 -42.2452 1837.43 1787.33
7144.42 43.1517 -10.9744 1778.32 1744.55
7147.22 17.9197 14.0253 1617.91 1667.55
7150.03 -18.9955 -17.9608 1606.43 1644.35
7152.83 -52.8067 -11.7928 1708.71 1673.43
7155.63 36.4236 17.4044 1705.13 1726.09
7158.43 68.5963 64.2304 1764.41 1678.18
7161.23 87.6712 66.2902 1565.01 1707.81
7164.03 42.603 51.8318 1794.01 1665.92
7166.83 25.2211 16.7571 1638.75 1677.87
7169.63 -17.5529 -35.3227 1600.83 1613.35
7172.43 -113.636 -46.3787 1600.46 1594.43
7175.23 -7.94677 -14.8649 1581.99 1649.15
7178.03 76.9884 20.324 1765 1646.03
7180.83 -8.0696 27.3254 1591.09 1639.81
7183.63 13.0575 -22.2443 1563.33 1632.18
7186.43 -71.7207 -10.1873 1742.11 1593.1
7189.23 28.1014 -17.7198 1473.86 1603.38
7192.03 -9.54004 16.737 1594.16 1534.78
7194.83 31.6496 18.5781 1536.31 1569.6
7197.63 33.6248 18.9443 1578.33 1574.81
7200.43 -8.44138 7.48328 1609.78 1592.07
7203.22 -2.73357 9.54861 1588.11 1600.16
7206.02 39.8208 -4.14673 1602.6 1583.92
7208.82 -49.5274 44.4617 1561.06 1582.21
7211.62 143.092 78.2307 1582.96 1566.04
7214.41 141.128 149.051 1554.09 1602.44
7217.21 162.934 148.387 1670.25 1557.86
7220.01 141.099 151.005 1449.23 1569.66
7222.81 148.982 133.45 1589.51 1545.06
7225.6 110.269 134.735 1596.44 1603.11
7228.4 144.952 135.767 1623.38 1628.48
7231.2 152.08 164.676 1665.62 1616.65
7233.99 196.995 192.489 1560.94 1624.52
7236.79 228.392 190.175 1646.99 1666.16
7239.58 145.137 152.567 1790.56 1733.69
7242.38 84.1712 68.7075 1763.53 1685.55
7245.18 -23.1861 41.0532 1502.57 1636.69
7247.97 62.1745 53.9668 1643.98 1547
7250.77 122.912 119.111 1494.45 1556.77
7253.56 172.248 134.706 1531.86 1544.8
7256.36 108.957 132.589 1608.09 1564.46
7259.15 116.562 131.472 1553.43 1562.67
7261.94 168.897 134.399 1526.49 1528.85
7264.74 117.739 135.061 1506.63 1482.79
7267.53 118.549 136.156 1415.27 1476.97
7270.33 172.181 150.364 1509 1475.15
7273.12 160.362 160.876 1501.18 1535.95
7275.91 150.086 123.012 1597.66 1585.39
7278.71 58.5867 104.275 1657.33 1648.17
7281.5 104.151 83.508 1689.53 1574.48
7284.29 87.7859 98.5414 1376.59 1561.02
7287.08 103.687 111.853 1616.95 1535.59
7289.88 144.087 128.617 1613.22 1570.22
7292.67 138.078 155.895 1480.5 1544.88
7295.46 185.521 147.277 1540.94 1494.51
7298.25 118.233 128.095 1462.08 1493.94
7301.05 80.5322 97.8613 1478.79 1488.79
7303.84 94.8189 104.075 1525.5 1495.33
7306.63 136.873 133.311 1481.71 1520.4
7309.42 168.241 140.143 1553.97 1486.14
7312.21 115.315 134.034 1422.74 1548.07
7315 118.547 103.148 1667.49 1545.28
7317.79 75.5802 115.297 1545.6 1637.9
7320.58 151.764 104.741 1700.61 1614
7323.37 86.8782 118.181 1595.8 1611.81
7326.16 115.9 80.556 1539.02 1562.75
7328.95 38.8896 80.2796 1553.44 1530.51
7331.74 86.0489 75.7111 1499.08 1477.16
7334.53 102.195 106.382 1378.96 1539.76
7337.32 130.902 118.033 1741.25 1548.35
7340.11 121.003 124.363 1524.84 1663.1
7342.9 121.185 126.92 1723.2 1612.22
7345.69 138.571 115.952 1588.61 1663.39
7348.48 88.1007 115.071 1678.35 1529.01
7351.26 118.54 107.488 1320.05 1517.57
7354.05 115.824 102.64 1554.3 1432.42
7356.84 73.5572 74.0713 1422.91 1449.43
7359.63 32.8326 65.154 1371.08 1463.55
7362.41 89.0722 52.3683 1596.66 1466.37
7365.2 35.2001 72.3165 1431.38 1573.5
7367.99 92.6771 78.4814 1692.46 1589.1
7370.78 107.567 94.6794 1643.46 1547.4
7373.56 83.7939 77.4591 1306.27 1459.74
7376.35 41.0163 72.7055 1429.49 1403.24
7379.14 93.3063 87.307 1473.97 1390.75
7381.92 127.598 111.105 1268.78 1376.24
7384.71 112.412 115.465 1385.98 1399.89
7387.49 106.384 109.653 1544.92 1439.03
7390.28 110.165 100.992 1386.19 1466.19
7393.06 86.4271 122.59 1467.46 1461.51
7395.85 171.178 105.028 1530.87 1461.92
7398.63 57.4792 103.145 1387.42 1428.93
7401.42 80.7777 66.6542 1368.5 1370.61
7404.2 61.7058 67.4845 1355.9 1458.98
7406.99 59.97 79.3999 1652.55 1473.24
7409.77 116.524 83.4913 1411.27 1504.21
7412.56 73.9803 103.272 1448.81 1447.45
7415.34 119.312 87.5068 1482.28 1480.73
7418.12 69.2281 99.6699 1511.09 1433.51
7420.91 110.47 86.1833 1307.15 1422.52
7423.69 78.8519 89.8927 1449.32 1388.39
7426.47 80.3565 91.8245 1408.72 1425.86
7429.26 116.265 92.8901 1419.54 1332.9
7432.04 82.0488 85.4042 1170.45 1305.82
7434.82 57.899 77.697 1327.48 1322.09
7437.6 93.1431 81.2947 1468.33 1344.63
7440.39 92.8419 100.399 1238.07 1383.16
7443.17 115.212 84.1255 1443.08 1337.61
7445.95 44.3228 86.5848 1331.66 1354.57
7448.73 100.22 81.4349 1288.97 1308.22
7451.51 99.7623 91.9529 1304.01 1339.61
7454.29 75.8766 70.6419 1425.85 1371.81
7457.07 36.2867 68.107 1385.57 1399.7
7459.86 92.1578 71.965 1387.68 1400.71
7462.64 87.4505 108.39 1428.87 1390.2
7465.42 145.561 97.0157 1354.06 1377.86
7468.2 58.0357 92.3024 1350.65 1340.74
7470.98 73.3106 65.2446 1317.5 1373.57
7473.76 64.3875 77.4427 1452.58 1363.93
7476.53 94.6301 80.9658 1321.72 1363.76
7479.31 83.8799 96.7848 1316.98 1327.05
7482.09 111.844 113.444 1342.45 1326.05
7484.87 144.609 102.575 1318.72 1320.72
7487.65 51.2732 82.1084 1300.98 1317.43
7490.43 50.4431 64.3747 1332.59 1372.47
7493.21 91.4079 59.4096 1483.85 1388.98
7495.99 36.3779 56.2408 1350.51 1393.26
7498.76 40.9367 56.1355 1345.43 1370.93
7501.54 91.0918 81.3293 1416.84 1383.41
7504.32 111.959 108.497 1387.96 1371.15
7507.1 122.44 92.615 1308.66 1326.7
7509.87 43.4456 86.9763 1283.47 1346.65
7512.65 95.043 79.208 1447.82 1309.59
7515.43 99.1354 94.3673 1197.49 1332.74
7518.2 88.9235 74.2309 1352.91 1268.08
7520.98 34.6339 55.3398 1253.84 1371.53
7523.76 42.4619 36.1997 1507.85 1359.12
7526.53 31.5034 48.0568 1315.66 1418.84
7529.31 70.2052 37.4037 1433.02 1418.3
7532.08 10.5026 42.5728 1506.21 1421.48
7534.86 47.0105 53.7598 1325.21 1413.13
7537.63 103.766 83.8369 1407.98 1336.82
7540.41 100.734 82.1717 1277.28 1334.96
7543.18 42.0149 72.0774 1319.62 1276.36
7545.96 73.4834 51.762 1232.17 1289.68
7548.73 39.7878 65.0385 1317.25 1320.96
7551.5 81.8442 78.7694 1413.46 1337.67
7554.28 114.676 79.4181 1282.29 1364.64
7557.05 41.734 72.5065 1398.17 1336.58
7559.83 61.1093 51.7868 1329.29 1363.43
7562.6 52.517 61.9952 1362.83 1375.08
7565.37 72.3592 45.2407 1433.11 1375.92
7568.14 10.8458 37.5307 1331.83 1342.67
7570.92 29.3872 27.3306 1263.08 1267.49
7573.69 41.7588 35.9522 1207.57 1292.32
7576.46 36.7107 33.5259 1406.3 1283.76
7579.23 22.1081 45.3824 1237.41 1335.67
7582.01 77.3284 53.8672 1363.29 1307.5
7584.78 62.1651 58.6851 1321.8 1338.16
7587.55 36.5619 52.2712 1329.39 1253.14
7590.32 58.0865 37.4441 1108.24 1105.29
7593.09 17.6839 26.4058 878.236 888.386
7595.86 3.44701 28.7778 678.679 747.029
7598.63 65.2024 37.1313 684.173 600.403
7601.4 42.7444 61.5313 438.357 524.526
7604.17 76.6471 40.0657 451.047 437.31
7606.94 0.805648 40.4044 422.526 538.429
7609.71 43.7604 39.3169 741.715 620.407
7612.48 73.3848 50.5906 696.98 747.153
7615.25 34.6267 41.842 802.765 761.372
7618.02 17.5147 22.906 784.369 805.437
7620.79 16.5766 37.3351 829.178 764.804
7623.56 77.9142 33.7813 680.865 762.017
7626.33 6.85306 36.575 776.009 708.36
7629.09 24.9578 20.5616 668.204 739.517
7631.86 29.8739 27.3924 774.337 680.622
7634.63 27.3454 20.9616 599.324 700.429
7637.4 5.66554 11.296 727.625 717.37
7640.17 0.87709 18.1225 825.16 801.218
7642.93 47.825 21.2804 850.869 837.675
7645.7 15.1391 27.8982 836.995 826.636
7648.47 20.7304 27.2168 792.043 894.358
7651.23 45.7808 43.6624 1054.03 940.93
7654 64.476 39.2703 976.711 958.993
7656.77 7.55412 30.4391 846.234 1008.55
7659.53 19.2871 21.9232 1202.7 1008.48
7662.3 38.9285 31.212 976.505 1087.74
7665.06 35.4204 29.0295 1084 1051.85
7667.83 12.7396 9.75066 1095.05 1106.61
7670.59 -18.908 -6.44984 1140.78 1094.22
7673.36 -13.1811 -20.4913 1046.83 1084.74
7676.12 -29.3847 -9.04176 1066.62 1060.56
7678.89 15.4405 4.52116 1068.22 1145.6
7681.65 27.5077 19.549 1301.95 1175.77
7684.42 15.6989 16.9872 1157.15 1182.47
7687.18 7.75504 15.3521 1088.31 1136.24
7689.94 22.6023 11.5943 1163.24 1174.81
7692.71 4.4255 23.7002 1272.87 1189.9
7695.47 44.0729 1.79054 1133.57 1128.53
7698.23 -43.1268 -7.88502 979.141 1069.4
7701 -24.6012 -28.5689 1095.5 1037.42
7703.76 -17.9788 -30.0364 1037.61 1061.6
7706.52 -47.5292 -26.722 1051.7 1081.13
7709.28 -14.658 -34.9437 1154.06 1066.26
7712.04 -42.644 -28.0919 993.029 1116.37
7714.81 -26.9736 -30.6715 1202.03 1148.55
7717.57 -22.3969 -37.8886 1250.6 1223.3
7720.33 -64.2952 -16.2651 1217.27 1204.51
7723.09 37.8969 -15.7174 1145.67 1205.19
7725.85 -20.754 3.33893 1252.64 1226.22
7728.61 -7.12617 -15.1844 1280.37 1188.62
7731.37 -17.6731 -6.7955 1032.86 1150.43
7734.13 4.41278 -14.0957 1138.08 1096.94
7736.89 -29.0269 -17.2893 1119.87 1178.53
7739.65 -27.2537 -25.9708 1277.65 1174.37
7742.41 -21.6317 -28.7195 1125.59 1137.79
7745.17 -37.273 -15.0525 1010.14 1115.49
7747.93 13.7472 -26.2515 1210.73 1126.44
7750.69 -55.2285 -20.5296 1158.44 1141.35
7753.45 -20.1074 -36.5709 1054.88 1096.1
7756.21 -34.3767 -59.6874 1074.99 1077.64
7758.97 -124.578 -52.505 1103.06 1114.05
7761.72 1.43968 -58.5615 1164.1 1103
7764.48 -52.5461 -36.7401 1041.86 1121.06
7767.24 -59.1139 -37.003 1157.24 1112.71
7770 0.650957 -29.5735 1139.04 1140.48
7772.75 -30.2574 -43.3738 1125.16 1124.98
7775.51 -100.515 -68.0105 1110.74 1057.11
7778.27 -73.2594 -61.0198 935.438 1094.57
7781.02 -9.28524 -51.0428 1237.53 1057.88
7783.78 -70.5838 -25.9069 1000.66 1083.38
7786.54 2.14847 -44.4272 1011.95 979.364
7789.29 -64.8462 -46.7502 925.487 951.49
7792.05 -77.553 -47.073 917.035 1018.51
7794.8 1.18027 -31.6474 1213.02 1097.74
7797.56 -18.5696 -26.4248 1163.17 1152.34
7800.31 -61.8851 -49.3829 1080.85 1080.56
7803.07 -67.6939 -62.1294 997.681 1053.27
7805.82 -56.8093 -38.3491 1081.29 1037.99
7808.58 9.45603 -34.5973 1035.01 1074.24
7811.33 -56.4385 -35.831 1106.42 1102.29
7814.09 -60.5107 -42.0647 1165.44 1041.7
7816.84 -9.24507 -15.2177 853.24 1043.32
7819.59 24.1028 0.415809 1111.28 982.624
7822.35 -13.6103 -22.5171 983.354 1094.64
7825.1 -78.0438 -53.1347 1189.3 1054.77
7827.85 -67.75 -51.8292 991.656 1052.84
7830.61 -9.69386 -42.397 977.564 1038.47
7833.36 -49.7471 -14.745 1146.2 1042.97
7836.11 15.2059 -16.5386 1005.15 1057.53
7838.86 -15.0747 -1.79928 1021.25 1053.54
7841.61 -5.52901 -23.4776 1134.22 1035.73
7844.37 -49.8289 -4.00882 951.716 1016.7
7847.12 43.3315 -35.9732 964.173 959.112
7849.87 -101.422 -15.8836 961.447 990.165
7852.62 10.4398 -33.7388 1044.87 1060.19
7855.37 -10.2339 -8.53334 1174.25 1057.75
7858.12 -25.8059 -13.4781 954.13 1109.02
7860.87 -4.39463 -25.0671 1198.69 1003.18
7863.62 -45.0007 -36.9146 856.725 1011.31
7866.37 -61.3484 -43.9024 978.511 918.248
7869.12 -25.3582 -50.3523 919.508 995.139
7871.87 -64.3504 -20.223 1087.4 1025.32
7874.62 29.0394 -25.696 1069.04 1029.05
7877.37 -41.777 -19.7267 930.697 985.225
7880.12 -46.4426 -14.8661 955.938 959.204
7882.86 43.6212 -10.3192 990.978 968.147
7885.61 -28.1361 9.09601 957.524 970.645
7888.36 11.8029 -3.07407 963.433 1015.55
7891.11 7.11095 -16.0264 1125.69 1035.14
7893.86 -66.9931 -30.0937 1016.3 1016.11
7896.6 -30.399 -54.0614 906.347 992.054
7899.35 -64.7921 -56.0786 1053.52 969.616
7902.1 -73.0446 -71.9065 948.984 991.895
7904.84 -77.8827 -76.46 973.184 910.391
7907.59 -78.4526 -49.4588 809.005 872.824
7910.34 7.95881 -27.5417 836.282 849.643
7913.08 -12.1314 -1.49007 903.641 928.927
7915.83 -0.297645 20.6709 1046.86 949.375
7918.57 74.4418 12.3929 897.627 962.767
7921.32 -36.9654 3.28236 943.817 964.872
7924.06 -27.6293 -39.0817 1053.17 1002.77
7926.81 -52.6505 -24.7162 1011.31 994.654
7929.55 6.1312 -18.091 919.477 986.672
7932.3 -7.75361 -10.7264 1029.23 929.77
7935.04 -30.5567 -22.0814 840.606 914.165
7937.79 -27.934 -24.6099 872.662 841.072
7940.53 -15.3389 -53.0644 809.949 816.6
7943.27 -115.92 -53.6566 767.189 768.945
7946.02 -29.7106 -50.7987 729.698 765.264
7948.76 -6.76507 -5.57695 798.906 850.599
7951.5 19.7449 -5.18014 1023.19 922.022
7954.25 -28.5202 -8.59542 943.966 910.301
7956.99 -17.0109 -30.1266 763.743 831.955
7959.73 -44.8488 -12.5893 788.156 811.23
7962.47 24.0918 -1.85714 881.791 898.48
7965.21 15.1856 -11.529 1025.49 964.85
7967.95 -73.8644 -35.313 987.267 894.474
7970.7 -47.2601 -41.1738 670.662 858.476
7973.44 -2.39682 -14.1667 917.497 806.469
7976.18 7.15676 3.89995 831.247 875.674
7978.92 6.93991 7.35686 878.277 940.328
7981.66 7.9739 -15.1436 1111.46 957.331
7984.4 -60.3447 -15.625 882.256 975.578
7987.14 5.49573 -16.8812 933.018 857.294
7989.88 4.20536 -12.0564 756.61 883.783
7992.62 -45.8704 -15.4516 961.721 864.705
7995.36 -4.68969 -48.8188 875.784 853.198
7998.1 -95.8964 -50.9019 722.09 867.814
8000.83 -52.1196 -51.9628 1005.57 890.038
8003.57 -7.8725 -35.8502 942.456 881.497
8006.31 -47.5587 -26.4588 696.466 845.273
8009.05 -23.9451 -36.1484 896.897 819.362
8011.79 -36.9414 -37.8245 864.724 807.654
8014.52 -52.5869 -49.8345 661.34 800.717
8017.26 -59.9754 -41.7108 876.088 807.009
8020 -12.5702 -30.9931 883.598 896.208
8022.74 -20.4337 4.81791 928.939 832.92
8025.47 47.4576 14.5714 686.222 870.235
8028.21 16.6902 11.8976 995.543 845.942
8030.95 -28.455 -10.3634 856.06 928.573
8033.68 -19.3252 -27.5897 934.117 869.089
8036.42 -34.9887 -22.3231 817.089 889.981
8039.15 -12.6555 -33.1909 918.736 828.626
8041.89 -51.9286 -37.5285 750.055 845.068
8044.62 -48.0012 -37.7804 866.414 786.068
8047.36 -13.4114 -11.4006 741.737 808.184
8050.09 27.2107 -8.3565 816.402 781.58
8052.83 -38.8688 -18.3239 786.601 824.87
8055.56 -43.3135 -53.8112 871.607 781.439
8058.29 -79.2512 -52.6975 686.109 776.543
8061.03 -35.5278 -38.4174 771.913 795.362
8063.76 -0.473283 -25.5552 928.063 835.462
8066.49 -40.6644 -26.1975 806.409 850.956
8069.23 -37.4548 -33.0277 818.396 802.838
8071.96 -20.964 -27.9438 783.707 812.378
8074.69 -25.4127 -32.1817 835.031 789.084
8077.43 -50.1685 -28.954 748.514 783.583
8080.16 -11.2809 -40.0506 767.205 797.988
8082.89 -58.7023 -24.389 878.245 843.723
8085.62 -3.18384 -46.5752 885.72 890.582
8088.35 -77.8395 -42.0322 907.78 837.84
8091.08 -45.0734 -45.5291 720.02 809.613
8093.81 -13.6745 -16.5901 801.038 793.838
8096.54 8.97766 -13.6368 860.456 783.747
8099.27 -36.2137 -19.094 689.746 818.027
8102 -30.0458 -25.1923 903.88 783.687
8104.73 -9.31723 -31.4948 757.435 814.073
8107.46 -55.1214 -18.9441 780.904 816.2
8110.19 7.60625 -30.2248 910.259 825.58
8112.92 -43.1592 -19.4486 785.577 805.815
8115.65 -22.7928 -38.2481 721.609 767.095
8118.38 -48.7925 -28.555 794.098 726.625
8121.11 -14.0796 -37.1641 664.168 739.515
8123.84 -48.6203 -2.54722 760.278 736.387
8126.57 55.0582 23.464 784.716 776.213
8129.29 63.9539 66.9844 783.645 791.437
8132.02 81.941 53.6869 805.951 795.965
8134.75 15.1657 60.9755 798.3 764.29
8137.47 85.8199 45.2633 688.62 731.527
8140.2 34.8043 62.65 707.663 732.49
8142.93 67.3259 51.7425 801.188 722.327
8145.65 53.0972 59.1089 658.13 740.824
8148.38 56.9036 56.9928 763.154 755.282
8151.11 60.9775 65.153 844.562 767.892
8153.83 77.578 62.2411 695.96 751.051
8156.56 48.1679 65.4323 712.632 710.001
8159.28 70.551 51.1997 721.412 707.151
8162.01 34.8801 63.7745 687.41 703.085
8164.73 85.8923 37.3403 700.434 713.01
8167.46 -8.75157 43.7648 751.187 707.221
8170.18 54.1536 33.8417 670.043 724.458
8172.9 56.1232 47.8277 752.144 689.226
8175.63 33.2064 45.0021 645.491 707.709
8178.35 45.6767 56.4806 725.491 708.239
8181.08 90.5587 54.0243 753.736 737.04
8183.8 25.8375 56.6714 731.892 746.985
8186.52 53.618 38.7697 755.327 705.583
8189.24 36.8535 51.7842 629.53 694.642
8191.97 64.8811 53.1311 699.068 673.316
8194.69 57.6585 67.1838 691.349 719.873
8197.41 79.0116 63.3456 769.201 746.667
8200.13 53.3667 57.0972 779.452 741.806
8202.85 38.9131 53.6788 676.766 719.937
8205.57 68.7567 52.5102 703.593 698.904
8208.29 49.8607 60.8872 716.353 731.185
8211.01 64.0442 53.7055 773.611 749.811
8213.73 47.2116 51.2398 759.471 741.262
8216.45 42.4635 47.6936 690.705 687.573
8219.17 53.4057 36.326 612.543 649.21
8221.89 13.1087 39.2429 644.382 652.85
8224.61 51.2144 27.7216 701.626 659.53
8227.33 18.8417 37.1495 632.581 644.117
8230.05 41.3925 32.0822 598.143 643.294
8232.77 36.0125 39.4472 699.157 644.058
8235.49 40.9365 34.3316 634.873 637.991
8238.21 26.0456 27.666 579.943 646.237
8240.92 16.0159 7.73628 723.894 649.703
8243.64 -18.8527 18.2134 645.27 655.344
8246.36 57.4771 30.5846 596.866 642.382
8249.08 53.1294 45.788 685.01 654.536
8251.79 26.7574 38.307 681.732 683.399
8254.51 35.0341 26.6986 683.454 648.943
8257.23 18.3043 19.6806 581.644 642.816
8259.94 5.70332 15.3431 663.349 629.537
8262.66 22.0216 22.4552 643.618 657.09
8265.37 39.6407 44.6804 664.304 656.209
8268.09 72.3791 43.724 660.705 659.738
8270.81 19.1524 34.8907 654.203 634.36
8273.52 13.1406 36.9327 588.172 643.105
8276.24 78.5053 27.854 686.94 593.058
8278.95 -8.08398 64.0136 504.064 665.199
8281.66 121.619 59.6388 804.594 686.569
8284.38 65.3809 44.3304 751.049 697.716
8287.09 -54.0092 3.75109 537.506 645.545
8289.8 -0.118459 -15.0901 648.081 576.668
8292.52 8.85732 36.4246 544.416 604.618
8295.23 100.535 44.854 621.359 611.678
8297.94 25.17 46.0128 669.258 723.163
8300.66 12.3335 3.94461 878.872 661.873
8303.37 -25.6697 -3.46123 437.487 667.932
8306.08 2.95246 -12.6804 687.437 580.922
8308.79 -15.3241 11.9705 617.842 648.717
8311.5 48.2831 22.158 640.871 636.641
8314.22 33.515 32.7346 651.211 653.888
8316.93 16.4057 36.7135 669.58 669.658
8319.64 60.2198 23.2053 688.182 682.603
8322.35 -7.00946 23.3991 690.046 666.807
8325.06 16.9869 0.427947 622.192 646.469
8327.77 -8.6936 -3.08528 627.17 659.51
8330.48 -17.5491 -6.36944 729.168 651.361
8333.19 7.13442 11.3633 597.744 675.247
8335.9 44.5045 20.9174 698.828 649.165
8338.61 11.1131 58.5607 650.922 699.304
8341.31 120.064 90.225 748.163 686.488
8344.02 139.498 93.6269 660.381 716.885
8346.73 21.3188 21.8716 742.111 624.273
8349.44 -95.2017 -22.1149 470.329 669.187
8352.15 7.53815 -29.0094 795.12 647.679
8354.85 0.63526 6.20578 677.587 665.791
8357.56 10.4439 6.85142 524.665 618.668
8360.27 9.47507 11.0518 653.752 580.674
8362.97 13.2363 11.9641 563.606 628.065
8365.68 13.181 7.5173 666.837 613.728
8368.39 -3.86537 3.5642 610.741 630.592
8371.09 1.37696 0.672522 614.198 614.284
8373.8 4.50597 1.38553 617.913 632.891
8376.5 -1.72635 3.73393 666.562 606.82
8379.21 8.42217 -6.78351 535.984 610.691
8381.92 -27.0463 5.8559 629.526 595.654
8384.62 36.1919 5.25751 621.453 593.554
8387.32 6.62697 22.4308 529.682 581.557
8390.03 24.4735 1.27397 593.536 587.563
8392.73 -27.2786 16.255 639.472 634.181
8395.44 51.57 31.1208 669.534 584.965
8398.14 69.0711 63.6884 445.887 625.317
8400.84 70.4241 33.6411 760.529 647.487
8403.55 -38.572 13.3151 736.045 667.176
8406.25 8.09303 -5.06094 504.954 591.684
8408.95 15.2961 21.8365 534.053 592.133
8411.65 42.1205 20.8402 737.392 655.439
8414.36 5.10398 2.63989 694.873 681.401
8417.06 -39.3048 -17.804 611.938 617.875
8419.76 -19.2111 -35.3436 546.813 615.125
8422.46 -47.5149 -7.658 686.626 588.008
8425.16 43.7519 2.95935 530.585 568.977
8427.86 12.641 -2.65121 489.721 479.667
8430.56 -64.3465 -29.7903 418.695 452.005
8433.26 -37.6653 -61.7947 447.599 431.235
8435.96 -83.3722 -50.0571 427.411 506.105
8438.66 -29.1338 -45.6538 643.304 571.863
8441.36 -24.4554 -27.1836 644.875 588.146
8444.06 -27.9617 -20.1111 476.261 584.786
8446.76 -7.91628 -1.33795 633.221 573.806
8449.46 31.8641 9.12392 611.935 635.78
8452.16 3.42398 1.4893 662.183 559.678
8454.85 -30.8202 -9.9607 404.915 571.331
8457.55 -2.48593 -31.9841 646.895 505.367
8460.25 -62.6462 -35.7916 464.29 526.973
8462.95 -42.2428 -51.1606 469.734 503.614
8465.64 -48.5929 -56.0484 576.819 492.983
8468.34 -77.3095 -71.0531 432.396 539.361
8471.04 -87.2569 -75.2795 608.869 534.633
8473.73 -61.2722 -51.4647 562.636 586.932
8476.43 -5.86506 -42.9516 589.292 574.116
8479.13 -61.7176 -35.937 570.42 578.492
8481.82 -40.2283 -48.8023 575.765 562.294
8484.52 -44.4611 -45.883 540.697 535.461
8487.21 -52.9596 -36.9679 489.92 528.049
8489.91 -13.4831 -33.6954 553.529 555.909
8492.6 -34.6436 -29.0271 624.276 601.903
8495.29 -38.9547 -49.3799 627.903 616.841
8497.99 -74.5415 -50.6334 598.345 542.438
8500.68 -38.404 -51.5709 401.066 512.247
8503.38 -41.7674 -53.7518 537.33 460.489
8506.07 -81.0839 -73.3224 443.071 536.226
8508.76 -97.116 -62.6402 628.276 537.425
8511.45 -9.7206 -53.7093 540.928 540.582
8514.15 -54.2913 -40.2546 452.541 497.173
8516.84 -56.752 -49.1897 498.051 514.473
8519.53 -36.5259 -36.9588 592.827 561.216
8522.22 -17.5985 -27.1813 592.769 598.015
8524.91 -27.4194 -25.6112 608.448 583.306
8527.61 -31.8158 -38.0559 548.7 537.76
8530.3 -54.9326 -37.9187 456.133 508.979
8532.99 -27.0076 -44.8141 522.104 522.574
8535.68 -52.5022 -36.9584 589.485 541.639
8538.37 -31.3655 -27.387 513.329 586.861
8541.06 1.70672 -25.8634 657.768 534.108
8543.75 -47.9315 -17.7074 431.227 552.622
8546.44 -6.89739 -29.7837 568.872 498.351
8549.12 -34.5222 -31.8606 494.955 544.071
8551.81 -54.1623 -41.8245 568.385 549.902
8554.5 -36.7889 -44.9437 586.365 575.64
8557.19 -43.8799 -42.4813 572.169 532.683
8559.88 -46.775 -47.9548 439.515 522.588
8562.57 -53.2096 -50.9753 556.079 487.602
8565.25 -52.9413 -60.4598 467.212 531.496
8567.94 -75.2285 -56.2136 571.198 490.721
8570.63 -40.4709 -62.9021 433.754 513.85
8573.31 -73.0068 -55.8124 536.598 467.963
8576 -53.9594 -67.8445 433.539 477.529
8578.69 -76.5673 -59.015 462.45 487.699
8581.37 -46.5182 -59.2409 567.109 486.982
8584.06 -54.6372 -44.5509 431.389 516.153
8586.74 -32.4972 -39.149 549.961 483.938
8589.43 -30.3126 -37.1116 470.464 512.619
8592.11 -48.5251 -51.4474 517.431 538.778
8594.8 -75.5045 -55.4975 628.437 578.41
8597.48 -42.4627 -49.8404 589.361 567.807
8600.17 -31.5538 -45.7857 485.623 507.924
8602.85 -63.3406 -46.6936 448.789 484.27
8605.53 -45.1864 -64.4593 518.399 459.083
8608.22 -84.8509 -58.7113 410.061 447.98
8610.9 -46.0965 -69.9168 415.481 453.275
8613.58 -78.803 -70.2218 534.283 507.762
8616.26 -85.7658 -65.3616 573.524 530.217
8618.95 -31.5161 -71.1009 482.844 552.304
8621.63 -96.021 -64.0178 600.543 485.905
8624.31 -64.5163 -51.5777 374.328 513.545
8626.99 5.80408 -33.2537 565.763 478.892
8629.67 -41.0489 -20.5888 496.586 565.089
8632.35 -26.5216 -70.8237 632.919 582.021
8635.03 -144.901 -60.8534 616.558 603.203
8637.71 -11.1378 -88.4876 560.13 536.775
8640.39 -109.424 -63.5613 433.635 478.568
8643.07 -70.1217 -60.0148 441.938 456.632
8645.75 -0.498391 -30.2853 494.324 478.825
8648.43 -20.2357 -18.9718 500.213 543.537
8651.11 -36.1813 -26.1386 636.073 484.317
8653.79 -21.9989 -49.7145 316.666 489.93
8656.47 -90.9634 -46.9654 517.053 363.504
8659.15 -27.9341 -47.9389 256.794 443.225
8661.82 -24.9192 -29.6995 555.828 455.611
8664.5 -36.2452 -53.2262 554.212 525.116
8667.18 -98.5142 -49.9992 465.309 474.258
8669.86 -15.2383 -69.9757 403.254 372.099
8672.53 -96.1747 -53.9423 247.735 404.684
8675.21 -50.4138 -69.6811 563.064 353.522
8677.89 -62.4547 -56.7957 249.766 471.395
8680.56 -57.5185 -52.6806 601.355 449.151
8683.24 -38.0685 -44.6866 496.331 534.706
8685.91 -38.4727 -45.6731 506.432 452.335
8688.59 -60.4783 -45.357 354.242 430.317
8691.26 -37.1199 -36.9483 430.277 426.037
8693.94 -13.2467 -41.504 493.592 466.965
8696.61 -74.1453 -38.4535 477.026 481.085
8699.29 -27.9686 -62.139 472.637 493.635
8701.96 -84.303 -48.0813 531.242 469.297
8704.63 -31.9724 -51.1951 404.013 445.91
8707.31 -37.31 -42.8002 402.475 446.929
8709.98 -59.1182 -45.4401 534.298 466.72
8712.65 -39.8921 -42.3724 463.388 510.391
8715.32 -28.1069 -38.2987 533.487 494.171
8718 -46.897 -45.8714 485.639 493.901
8720.67 -62.6102 -44.9936 462.577 467.272
8723.34 -25.4734 -49.5406 453.599 480.076
8726.01 -60.5381 -44.9266 524.053 472.56
8728.68 -48.7683 -48.0351 440.029 464.651
8731.35 -34.7989 -39.1113 429.87 422.485
8734.02 -33.7669 -34.7021 397.556 437.021
8736.69 -35.5406 -49.2259 483.637 454.746
8739.36 -78.3703 -47.5277 483.045 476.195
8742.03 -28.6721 -46.0496 461.903 466.091
8744.7 -31.1062 -20.3534 453.326 474.783
8747.37 -1.28191 -21.9782 509.121 489.313
8750.04 -33.5464 -12.8597 505.493 529.188
8752.71 -3.7509 -12.1676 572.949 552.756
8755.38 0.794342 -21.8458 579.824 608.228
8758.05 -62.581 -30.7749 671.911 584.066
8760.71 -30.538 -27.792 500.463 657.955
8763.38 9.74306 -5.0288 801.489 482.507
8766.05 5.70859 -23.1825 145.568 472.898
8768.72 -84.999 -53.5274 471.635 360.007
8771.38 -81.2916 -48.0693 462.818 528.659
8774.05 22.0827 -51.7999 651.523 523.96
8776.71 -96.1908 -25.6469 457.538 585.527
8779.38 -2.83265 -44.3479 647.52 512.673
8782.05 -34.0202 -22.0288 432.962 458.477
8784.71 -29.2335 -16.8501 294.951 444.29
8787.38 12.7034 -12.2904 604.958 453.9
8790.04 -20.3409 -7.01202 461.79 468.354
8792.71 -13.3985 -20.1843 338.314 393.042
8795.37 -26.8134 -7.92779 379.022 310.792
8798.03 16.4285 0.497535 215.04 379.801
8800.7 11.8775 -5.6698 545.341 371.754
8803.36 -45.3154 -30.5293 354.881 447.715
8806.02 -58.1499 -26.62 442.923 432.856
8808.69 23.6052 -12.0162 500.764 453.262
8811.35 -1.50379 1.90702 416.099 495.141
8814.01 -16.3803 1.27945 568.561 476.264
8816.67 21.7225 -11.3136 444.132 506.937
8819.33 -39.2829 -14.7557 508.118 658.969
8822 -26.7068 -16.5192 1024.66 779.705
8824.66 16.4319 32.7055 806.338 849.49
8827.32 108.391 35.7821 717.475 677.908
8829.98 -17.4768 0.00195936 509.912 581.432
8832.64 -90.9086 -50.8582 516.91 436.531
8835.3 -44.1892 -88.9476 282.769 454.313
8837.96 -131.745 -54.8823 563.258 389.114
8840.62 11.2873 -75.2259 321.315 411.252
8843.28 -105.22 -38.1817 349.182 423.604
8845.94 -20.6124 -47.2345 600.315 507.726
8848.59 -15.8712 -11.0149 573.682 512.084
8851.25 3.43876 -1.21121 362.256 488.293
8853.91 8.79877 6.8531 528.942 434.707
8856.57 8.32178 7.42214 412.924 481.089
8859.23 5.14589 -2.54839 501.402 498.083
8861.88 -21.1128 -6.19506 579.923 633.451
8864.54 -2.61823 0.706314 819.028 671.405
8867.2 25.85 5.15059 615.264 588.32
8869.85 -7.78001 13.1955 330.668 352.465
8872.51 21.5164 19.8884 111.462 249.227
8875.16 45.9289 27.2344 305.552 264.371
8877.82 14.2578 30.9314 376.098 462.298
8880.48 32.6073 24.7261 705.244 733.5
8883.13 27.313 35.5371 1119.16 900.106
8885.78 46.6911 37.2463 875.917 860.376
8888.44 37.7348 54.2697 586.053 506.143
8891.09 78.3832 51.5182 56.4581 290.737
8893.75 38.4367 38.8796 229.7 177.613
8896.4 -0.180959 7.34672 246.68 403.564
8899.05 -16.2156 13.941 734.313 608.436
8901.71 58.2196 14.2662 844.314 709.531
8904.36 0.794481 50.7716 549.967 672.767
8907.01 93.3008 68.7636 624.018 558.433
8909.66 112.195 85.9218 501.315 587.875
8912.32 52.2693 36.6451 638.291 722.965
8914.97 -54.5293 18.4811 1029.29 977.278
8917.62 57.7034 29.676 1264.26 1189.47
8920.27 85.8537 57.7466 1274.85 1105.44
8922.92 29.6827 55.3615 777.202 540.253
8925.57 50.5481 22.5877 -431.298 161.914
8928.22 -12.4677 -15.6285 139.837 21.4372
8930.87 -84.9657 -31.6424 355.772 334.967
8933.52 2.50618 -33.7591 509.291 524.545
8936.17 -18.8179 3.56319 708.573 670.903
8938.82 27.0013 9.63543 794.846 763.171
8941.47 20.7229 13.4857 786.094 766.068
8944.11 -7.26715 17.49 717.263 679.565
8946.76 39.0143 7.04928 535.337 507.954
8949.41 -10.5993 0.108075 271.262 425.901
8952.06 -28.0908 11.0994 471.104 713.424
8954.7 71.9882 30.1493 1397.91 934.176
8957.35 46.5503 44.1549 933.52 1097.9
8960 13.9262 3.90733 962.276 580.718
8962.64 -48.7546 -18.2244 -153.642 167.688
8965.29 -19.8448 -0.530659 -305.569 -128.795
8967.94 67.0074 24.3902 72.8253 27.0067
8970.58 26.008 51.6511 313.764 297.227
8973.23 61.9381 40.5134 505.092 472.337
8975.87 33.5941 47.3093 598.154 592.476
8978.52 46.3958 49.4043 674.183 609.851
8981.16 68.2229 47.9998 557.216 656.721
8983.8 29.3807 68.5979 738.765 719.222
8986.45 108.19 72.6273 861.684 727.556
8989.09 80.3111 83.4509 582.219 669.409
8991.74 61.8517 74.7403 564.325 495.314
8994.38 82.0581 55.5589 339.397 491.501
8997.02 22.767 47.6095 570.781 554.218
8999.66 38.0033 44.6975 752.475 613.923
9002.3 73.3222 55.4749 518.514 508.916
9004.95 55.0992 55.4641 255.759 217.702
9007.59 37.9707 40.3414 -121.167 71.119
9010.23 27.9543 29.4036 78.7653 94.885
9012.87 22.2856 45.2327 327.057 295.215
9015.51 85.4582 43.0312 479.823 438.633
9018.15 21.3499 48.633 509.02 499.657
9020.79 39.0911 25.6718 510.129 515.459
9023.43 16.5744 40.7267 527.228 531.261
9026.07 66.5145 50.4983 556.426 540.254
9028.71 68.406 64.5682 537.107 563.94
9031.35 58.7842 66.3318 598.287 583.889
9033.99 71.8051 75.2821 616.272 610.263
9036.62 95.257 76.66 616.229 601.809
9039.26 62.9178 92.6575 572.925 519.657
9041.9 119.798 79.8212 369.817 473.502
9044.54 56.7483 73.0515 477.763 510.042
9047.17 42.6087 51.6995 682.545 597.315
9049.81 55.7414 61.3266 631.636 631.075
9052.45 85.6296 67.1504 579.043 480.099
9055.08 60.0804 46.5484 229.618 349.505
9057.72 -6.06483 35.9612 239.852 276.151
9060.35 53.8681 32.2801 358.983 331.146
9062.99 49.037 62.1782 394.602 451.333
9065.62 83.6293 70.8009 600.413 468.626
9068.26 79.7363 67.0829 410.863 422.017
9070.89 37.8831 39.2065 254.775 221.879
