wavelength spec_sum spec_optimal
3526.2 0.274537 64.5102
3529.11 -0.345828 57.0616
3532.03 -1.36062 80.9926
3534.94 5.71317 73.9673
3537.85 -0.257163 86.1998
3540.76 1.45006 58.6782
3543.68 -10.8883 66.1293
3546.59 -0.319121 73.8645
3549.5 8.78951 68.7347
3552.41 3.73418 43.4953
3555.33 -0.979648 73.6577
3558.24 6.27571 89.047
3561.15 7.86168 84.9158
3564.06 -0.0149528 72.6042
3566.97 2.92144 82.5812
3569.89 0.911976 82.3669
3572.8 2.43798 87.421
3575.71 -2.08923 69.059
3578.62 0.311536 91.392
3581.54 0.422921 87.4493
3584.45 -6.34763 82.2229
3587.36 8.12568 72.8372
3590.27 5.48395 91.9393
3593.19 0.944728 79.2681
3596.1 -2.14737 72.1653
3599.01 4.20682 75.4969
3601.92 9.51444 81.5447
3604.83 7.55694 70.4997
3607.75 9.2222 74.073
3610.66 -3.0567 78.543
3613.57 9.09729 76.8565
3616.48 2.80034 85.5823
3619.4 7.92261 60.205
3622.31 9.30269 77.2847
3625.22 11.2852 78.3459
3628.13 3.1494 76.1537
3631.05 12.7902 71.7772
3633.96 11.4711 84.5257
3636.87 7.282 89.3356
3639.78 12.4561 82.6407
3642.69 16.0581 78.002
3645.61 14.2796 85.7574
3648.52 10.3216 86.0831
3651.43 9.65036 98.2823
3654.34 12.9319 66.6213
3657.26 15.2185 67.8534
3660.17 20.6527 80.611
3663.08 10.2964 68.8417
3665.99 15.442 86.6155
3668.9 15.8814 75.2503
3671.82 12.1429 72.5002
3674.73 5.58772 79.5971
3677.64 9.45168 70.4945
3680.55 13.9166 85.7905
3683.47 16.015 97.7247
3686.38 18.7574 80.9852
3689.29 10.5398 75.3297
3692.2 20.8037 73.0244
3695.11 22.3101 66.5165
3698.03 16.2692 77.3023
3700.94 11.2083 81.5418
3703.85 14.4247 82.3865
3706.76 18.534 75.7597
3709.67 14.8377 96.7838
3712.59 17.8273 75.1662
3715.5 15.4281 79.18
3718.41 20.2612 78.5843
3721.32 17.4255 74.2027
3724.24 22.0786 74.4951
3727.15 19.3854 75.3959
3730.06 20.7732 80.6238
3732.97 15.2915 82.8221
3735.88 23.5559 72.2468
3738.8 24.2807 83.9725
3741.71 14.0392 82.1641
3744.62 15.4122 72.1132
3747.53 17.9763 95.3092
3750.44 16.6321 75.1083
3753.36 13.1179 95.3952
3756.27 19.9669 73.2778
3759.18 18.7433 95.9859
3762.09 19.45 72.0278
3765 16.303 79.5353
3767.92 14.752 84.006
3770.83 15.198 93.212
3773.74 21.8861 91.4047
3776.65 17.6968 85.5681
3779.56 14.2924 75.6776
3782.47 25.9974 86.2845
3785.39 24.5304 95.7582
3788.3 23.9383 86.6143
3791.21 30.5004 93.978
3794.12 32.8823 96.8715
3797.03 28.8315 100.938
3799.95 23.5975 98.6363
3802.86 28.8271 91.5823
3805.77 30.8771 88.9606
3808.68 32.8236 105.008
3811.59 33.8556 100.291
3814.5 28.6165 112.974
3817.42 38.6581 103.042
3820.33 25.3054 87.0672
3823.24 30.0616 85.9247
3826.15 34.8162 98.2025
3829.06 34.9195 97.5463
3831.97 33.5506 86.9869
3834.89 29.4652 91.5613
3837.8 28.0298 82.7254
3840.71 28.6679 100.649
3843.62 29.5953 88.9649
3846.53 23.0488 95.2846
3849.44 21.7049 80.3811
3852.36 18.6928 85.7866
3855.27 20.1655 84.0128
3858.18 8.92641 82.7164
3861.09 19.5695 97.8418
3864 18.5226 106.459
3866.91 16.4924 145.427
3869.82 7.83331 178.278
3872.74 -4.3173 181.726
3875.65 -1.33525 164.717
3878.56 5.25526 153.352
3881.47 6.73253 115.525
3884.38 14.2529 115.173
3887.29 9.13876 96.2067
3890.2 13.2596 94.4772
3893.12 10.2986 79.4841
3896.03 13.9148 74.862
3898.94 16.7597 81.0586
3901.85 8.35064 76.2355
3904.76 7.98899 81.4096
3907.67 11.1993 85.4276
3910.58 5.11972 91.1753
3913.49 11.3434 71.101
3916.41 15.572 68.6223
3919.32 12.2482 71.2624
3922.23 14.4244 86.3266
3925.14 8.95224 91.029
3928.05 4.31176 92.5924
3930.96 11.1809 76.6374
3933.87 6.2092 85.9372
3936.78 7.39521 79.8422
3939.7 9.79245 82.486
3942.61 9.30144 77.058
3945.52 9.01548 75.6341
3948.43 8.26304 74.9364
3951.34 11.8971 78.7093
3954.25 9.8313 90.0363
3957.16 7.26062 79.7818
3960.07 7.76853 92.3977
3962.98 10.6677 89.9539
3965.89 7.72679 93.0394
3968.8 12.5324 85.1287
3971.72 14.1747 86.3112
3974.63 13.4632 83.4378
3977.54 17.8308 80.0058
3980.45 15.4804 81.2482
3983.36 20.7841 73.9187
3986.27 18.2501 75.6381
3989.18 20.5429 82.7758
3992.09 18.64 87.5854
3995 24.6009 101.939
3997.91 25.9175 98.477
4000.82 28.2614 96.376
4003.73 25.6214 103.843
4006.64 22.844 98.064
4009.56 28.5877 112.387
4012.47 30.8762 112.292
4015.38 28.5063 109.102
4018.29 33.9735 119.292
4021.2 27.9599 116.964
4024.11 26.9481 117.472
4027.02 31.8915 111.904
4029.93 31.1183 111.008
4032.84 36.9215 108.04
4035.75 38.874 98.184
4038.66 29.6158 105.806
4041.57 38.1933 103.871
4044.48 40.7428 99.8658
4047.39 47.2803 104.193
4050.3 35.9734 111.703
4053.21 44.7007 118.633
4056.12 45.3313 107.086
4059.03 45.343 118.302
4061.94 41.6113 122.769
4064.85 47.7016 117.787
4067.76 47.8325 127.38
4070.67 38.1916 115.902
4073.58 50.5828 118.808
4076.49 42.7326 121.58
4079.4 46.7778 117.771
4082.31 51.0646 110.563
4085.22 51.1162 110.303
4088.13 47.0381 111.223
4091.04 49.6826 113.875
4093.95 51.027 113.628
4096.86 50.2412 115.485
4099.77 54.699 122.476
4102.68 47.4221 124.727
4105.59 41.8002 124.302
4108.5 52.4598 118.782
4111.41 42.9275 113.982
4114.32 44.062 114.593
4117.23 47.1513 102.736
4120.14 45.5497 97.0481
4123.05 41.0576 98.1152
4125.96 37.1126 94.4251
4128.87 42.5159 104.654
4131.78 38.2163 97.6882
4134.69 42.2661 107.75
4137.6 39.9781 103.705
4140.51 33.5067 121.071
4143.42 34.3952 114.634
4146.33 35.0244 113.259
4149.24 32.7426 125.772
4152.14 32.6393 114.349
4155.05 31.158 119.997
4157.96 23.1372 118.448
4160.87 25.2129 109.399
4163.78 30.1973 123.168
4166.69 24.9645 121.182
4169.6 30.7237 124.23
4172.51 26.8185 126.983
4175.42 26.93 115.812
4178.33 25.3264 118.341
4181.24 24.5297 118.596
4184.15 25.7189 121.683
4187.05 29.8824 110.271
4189.96 28.6918 127.003
4192.87 29.8974 129.903
4195.78 29.8182 112.667
4198.69 29.2604 112.933
4201.6 32.1364 104.394
4204.51 26.0544 117.281
4207.42 22.2549 121.725
4210.33 29.5219 115.335
4213.23 24.8997 119.429
4216.14 28.6274 115.823
4219.05 31.0052 117.025
4221.96 29.7999 121.41
4224.87 30.5079 116.996
4227.78 32.8417 118.191
4230.69 30.364 109.912
4233.6 28.6076 121.972
4236.5 31.0395 112.087
4239.41 33.5622 109.196
4242.32 31.8327 116.521
4245.23 25.1847 115.989
4248.14 23.4148 96.0773
4251.05 26.1077 107.549
4253.95 29.5631 96.9396
4256.86 32.3363 100.948
4259.77 28.6255 100.228
4262.68 29.6245 94.2187
4265.59 29.5167 86.6198
4268.49 30.0409 98.0357
4271.4 31.5993 99.5373
4274.31 29.8915 103.846
4277.22 36.1374 104.53
4280.13 27.0437 105.402
4283.03 31.3148 106.496
4285.94 26.4156 112.753
4288.85 28.0533 110.399
4291.76 30.9759 107.649
4294.67 28.6055 114.087
4297.57 36.0984 111.976
4300.48 30.1956 110.297
4303.39 34.4393 115.062
4306.3 34.1153 117.966
4309.2 36.1649 110.068
4312.11 37.2264 115.677
4315.02 37.8329 106.069
4317.93 36.3979 115.77
4320.83 34.995 112.637
4323.74 38.4978 120.27
4326.65 36.2172 111.672
4329.56 33.1127 119.454
4332.46 35.073 120.189
4335.37 38.2681 116.267
4338.28 37.3236 117.959
4341.19 39.512 112.074
4344.09 41.1436 116.578
4347 33.5063 118.118
4349.91 41.1021 114.606
4352.81 39.9787 117.609
4355.72 38.7714 113.39
4358.63 38.1211 115.922
4361.54 28.1482 112.388
4364.44 30.079 114.056
4367.35 35.9839 112.705
4370.26 31.0229 111.491
4373.16 30.6295 116.298
4376.07 43.4822 120.595
4378.98 36.2044 113.483
4381.88 35.6476 120.396
4384.79 35.7415 113.334
4387.7 35.0884 115.292
4390.6 33.637 112.517
4393.51 34.0769 118.306
4396.42 34.5549 114.699
4399.32 35.0016 110.461
4402.23 33.7778 114.492
4405.14 30.5981 116.407
4408.04 33.246 110.823
4410.95 33.1461 108.129
4413.85 32.5559 113.179
4416.76 34.6286 114.22
4419.67 27.2766 113.363
4422.57 30.748 112.453
4425.48 22.9163 116.157
4428.39 30.1376 113.514
4431.29 23.9913 112.69
4434.2 33.2065 113.871
4437.1 31.6002 111.799
4440.01 31.0613 111.847
4442.92 30.2989 108.661
4445.82 24.2323 108.985
4448.73 37.4212 110.981
4451.63 29.9504 114.516
4454.54 35.1765 107.386
4457.44 32.6307 112.674
4460.35 28.4225 108.784
4463.25 28.4075 105.403
4466.16 26.9387 105.837
4469.07 22.351 99.525
4471.97 29.2753 106.035
4474.88 29.2668 98.9242
4477.78 26.845 103.267
4480.69 27.1813 98.7026
4483.59 27.2061 109.97
4486.5 22.8721 105.797
4489.4 27.6347 103.305
4492.31 24.8208 99.9496
4495.21 15.9292 97.0802
4498.12 25.8728 98.7097
4501.02 24.24 96.7514
4503.93 14.8359 101.876
4506.83 18.5761 95.7114
4509.74 20.2217 96.2606
4512.64 13.3536 107.663
4515.55 17.9274 97.9026
4518.45 19.8968 98.3306
4521.36 19.7641 94.5504
4524.26 16.8643 92.7802
4527.17 17.5175 91.8174
4530.07 17.7361 97.376
4532.97 16.1763 93.8024
4535.88 16.183 94.3092
4538.78 13.4875 102.96
4541.69 11.5755 100.356
4544.59 13.6238 96.3127
4547.5 14.6712 96.846
4550.4 13.4972 99.0484
4553.3 13.9811 97.9815
4556.21 12.4665 95.6857
4559.11 13.5094 93.5629
4562.02 10.5677 93.7013
4564.92 17.4253 95.4214
4567.82 11.2434 91.1998
4570.73 16.9066 95.0789
4573.63 15.2237 97.0608
4576.54 4.9049 95.3401
4579.44 11.5289 92.9261
4582.34 15.3235 92.6556
4585.25 13.7111 101.924
4588.15 12.9865 96.9732
4591.05 10.312 94.6958
4593.96 9.84819 99.2004
4596.86 15.2443 97.0172
4599.76 14.4534 96.036
4602.67 16.3073 102.2
4605.57 14.4525 103.47
4608.47 16.8131 99.155
4611.38 21.4253 99.0784
4614.28 15.7403 97.9664
4617.18 18.6571 102.467
4620.09 18.2503 95.6659
4622.99 13.5614 95.9835
4625.89 19.2427 104.487
4628.8 19.1815 101.142
4631.7 16.4082 104.317
4634.6 17.4161 98.0153
4637.5 21.9738 96.2994
4640.41 16.2877 90.005
4643.31 22.7755 94.4973
4646.21 24.9275 89.4736
4649.11 26.9234 104.306
4652.02 28.0088 101.28
4654.92 25.1758 97.5297
4657.82 25.4876 100.883
4660.72 24.0274 105.062
4663.63 26.8078 108.988
4666.53 30.4965 105.793
4669.43 28.4537 108.609
4672.33 29.2116 98.3067
4675.23 30.8047 111.858
4678.14 35.5304 103.911
4681.04 32.0168 109.341
4683.94 36.5082 112.679
4686.84 33.7657 110.401
4689.74 39.2795 109.587
4692.65 42.181 111.039
4695.55 34.7017 111.673
4698.45 39.9333 107.344
4701.35 43.4544 115.876
4704.25 43.886 116.761
4707.15 38.3689 104.583
4710.05 42.7549 112.892
4712.96 49.3265 116.115
4715.86 48.1359 116.073
4718.76 42.0859 118.507
4721.66 49.5595 114.337
4724.56 53.018 121.024
4727.46 41.8096 115.716
4730.36 51.6867 113.84
4733.26 50.1112 118.332
4736.16 52.896 122.47
4739.07 50.6177 120.346
4741.97 46.3862 117.354
4744.87 48.4708 117.451
4747.77 53.1991 120.096
4750.67 53.2129 120.7
4753.57 54.3851 116.211
4756.47 53.3962 119.205
4759.37 45.9756 123.94
4762.27 45.9355 114.712
4765.17 51.9878 115.138
4768.07 53.5176 116.377
4770.97 52.5737 113.086
4773.87 43.7168 111.954
4776.77 53.7141 119.764
4779.67 56.4584 113.306
4782.57 55.129 117.68
4785.47 54.717 113.857
4788.37 48.081 111.127
4791.27 49.2096 115.385
4794.17 52.4754 117.413
4797.07 44.9199 110.591
4799.97 48.5744 107.809
4802.87 43.3695 112.2
4805.77 44.6645 112.678
4808.67 43.0584 105.718
4811.57 47.8903 108.591
4814.47 43.9837 111.552
4817.37 40.8487 111.021
4820.27 42.608 103.127
4823.16 41.6237 117
4826.06 29.6302 108.093
4828.96 30.3927 107.539
4831.86 37.5617 106.716
4834.76 37.3444 107.528
4837.66 33.2575 105.926
4840.56 30.6723 103.052
4843.46 34.504 115.439
4846.36 33.4777 110.117
4849.25 23.4636 109.336
4852.15 30.6814 105.956
4855.05 33.0187 108.782
4857.95 22.4083 103.097
4860.85 28.9645 106.028
4863.75 29.1911 105.735
4866.64 27.5716 106.25
4869.54 29.6925 110.207
4872.44 27.1545 107.542
4875.34 26.1525 113.581
4878.24 21.3727 107.878
4881.13 23.7076 104.143
4884.03 19.0358 109.567
4886.93 24.4622 108.759
4889.83 28.1601 98.969
4892.73 28.7708 110.265
4895.62 24.6951 112.493
4898.52 21.2685 103.826
4901.42 14.9868 107.596
4904.32 14.1541 109.505
4907.21 14.4587 105.013
4910.11 19.9594 106.206
4913.01 9.5301 103.501
4915.9 12.9732 101.844
4918.8 11.1713 101.521
4921.7 17.7002 111.587
4924.6 16.2652 100.7
4927.49 16.3637 96.0821
4930.39 15.5208 97.7545
4933.29 12.5373 103.273
4936.18 8.59117 101.727
4939.08 16.0066 102.436
4941.98 15.8403 97.9195
4944.87 15.8677 102.217
4947.77 20.7296 96.9647
4950.66 16.6817 92.4912
4953.56 16.9175 103.801
4956.46 14.3302 99.6258
4959.35 17.3034 105.579
4962.25 17.8876 99.7713
4965.15 15.8343 103.573
4968.04 18.1148 99.6628
4970.94 21.2942 94.9547
4973.83 19.5308 100.124
4976.73 17.8658 102.973
4979.62 16.4136 100.815
4982.52 16.1798 96.877
4985.42 12.8016 104.091
4988.31 11.9389 95.0382
4991.21 16.7713 95.5106
4994.1 15.7975 98.2983
4997 18.3628 96.779
4999.89 14.5875 100.276
5002.79 14.7929 94.5227
5005.68 13.3274 97.6448
5008.58 18.2551 95.6729
5011.47 16.2024 93.6634
5014.37 17.7661 94.7057
5017.26 17.8845 95.7879
5020.16 15.466 97.6536
5023.05 14.4918 88.7882
5025.95 16.361 98.0712
5028.84 14.727 98.5438
5031.73 15.5512 96.7185
5034.63 14.0604 95.3392
5037.52 18.167 91.4766
5040.42 10.6341 88.853
5043.31 14.9969 93.939
5046.21 14.5895 100.894
5049.1 10.8025 113.712
5051.99 16.3874 118.946
5054.89 13.8196 113.932
5057.78 20.2612 107.198
5060.67 15.0894 94.8899
5063.57 19.1016 98.08
5066.46 18.8713 101.844
5069.36 16.1765 96.4339
5072.25 23.658 94.4639
5075.14 22.4988 89.4052
5078.04 18.8344 94.5479
5080.93 22.6945 92.1761
5083.82 24.2366 98.3037
5086.72 25.0998 92.7571
5089.61 22.8169 90.1614
5092.5 26.6791 96.1847
5095.39 26.9678 97.2368
5098.29 27.473 96.0411
5101.18 30.3343 100.196
5104.07 24.0402 101.836
5106.96 28.8888 92.3489
5109.86 31.8736 95.7678
5112.75 26.0449 94.2755
5115.64 30.8067 99.3074
5118.53 30.3248 102.42
5121.43 31.9266 97.0051
5124.32 29.0696 104.523
5127.21 25.8753 98.5026
5130.1 31.4775 99.5128
5132.99 30.7216 98.4924
5135.89 23.5096 94.3552
5138.78 25.7276 106.633
5141.67 30.4362 100.575
5144.56 20.6173 99.8731
5147.45 25.1798 102.2
5150.34 21.6722 103.175
5153.23 22.7874 106.802
5156.13 21.9592 106.089
5159.02 20.6396 98.4362
5161.91 22.9359 94.8568
5164.8 16.6895 96.2917
5167.69 19.6775 105.09
5170.58 17.3361 86.9125
5173.47 14.143 89.0092
5176.36 19.8409 93.8653
5179.25 19.28 90.183
5182.14 20.5279 90.3746
5185.03 14.1705 93.8514
5187.92 18.3483 90.148
5190.82 19.4453 95.3796
5193.71 20.1895 93.338
5196.6 18.1561 108.883
5199.49 14.5525 106.633
5202.38 11.7753 114.556
5205.27 10.8199 117.31
5208.16 12.2781 109.938
5211.05 18.8679 104.039
5213.94 15.7243 93.5686
5216.82 17.9633 106.751
5219.71 17.3807 93.0914
5222.6 13.6376 91.5564
5225.49 12.232 94.8105
5228.38 18.313 86.7034
5231.27 19.8421 89.3289
5234.16 19.807 99.1165
5237.05 19.8215 82.0705
5239.94 19.8042 89.8331
5242.83 19.7193 93.0834
5245.72 16.0981 92.8419
5248.61 20.7713 89.7173
5251.49 21.9647 92.4692
5254.38 24.0359 90.3821
5257.27 22.1475 95.9538
5260.16 14.0341 88.5637
5263.05 22.6276 93.278
5265.94 23.6939 91.7935
5268.82 16.5408 88.4283
5271.71 16.756 95.8292
5274.6 16.5868 91.4105
5277.49 24.0517 89.9536
5280.38 21.1575 86.8896
5283.26 23.0503 94.3291
5286.15 23.2458 92.4525
5289.04 22.0977 91.6298
5291.93 26.0982 95.0418
5294.81 24.6459 98.4504
5297.7 22.2013 91.4743
5300.59 22.9301 89.4107
5303.48 19.5034 91.0175
5306.36 24.9505 95.8429
5309.25 17.0815 90.1446
5312.14 24.8901 92.1143
5315.02 22.8893 94.5012
5317.91 18.8775 95.7406
5320.8 27.1987 91.6087
5323.68 23.5438 91.5782
5326.57 24.4182 95.2486
5329.46 25.6397 94.5796
5332.34 26.8701 97.3188
5335.23 28.4407 94.4319
5338.11 26.8101 84.6533
5341 30.0691 97.954
5343.89 27.1298 91.4747
5346.77 26.2643 101.04
5349.66 24.7152 99.5202
5352.54 31.0955 94.272
5355.43 30.0343 97.001
5358.32 33.9064 92.5008
5361.2 26.9427 97.6339
5364.09 33.1478 92.5613
5366.97 35.5066 95.9199
5369.86 37.3111 93.609
5372.74 37.2721 89.4411
5375.63 35.879 95.5718
5378.51 36.8709 96.893
5381.4 36.5599 98.0087
5384.28 36.9362 94.0697
5387.17 37.1375 92.2123
5390.05 40.7161 97.7499
5392.94 39.4322 102.096
5395.82 35.8248 97.6076
5398.7 40.5014 101.437
5401.59 37.1771 97.7155
5404.47 39.4762 101.007
5407.36 32.4933 101.304
5410.24 39.76 98.9934
5413.12 37.9006 102.349
5416.01 37.1903 100.453
5418.89 39.2234 99.2881
5421.78 36.1497 103.143
5424.66 35.9569 108.837
5427.54 33.5736 101.106
5430.43 40.0755 103.113
5433.31 39.6179 103.248
5436.19 40.5224 95.3861
5439.07 43.5986 102.341
5441.96 36.7128 99.6998
5444.84 39.8405 97.0782
5447.72 42.4985 102.739
5450.61 42.0379 103.339
5453.49 40.5045 101.108
5456.37 39.4171 97.7404
5459.25 38.7691 97.2006
5462.14 38.4694 103.424
5465.02 41.1315 100.611
5467.9 38.3868 98.6471
5470.78 40.995 102.662
5473.66 39.5272 91.6788
5476.55 37.9914 94.9659
5479.43 37.3988 100.328
5482.31 38.3774 101.033
5485.19 36.7087 101.028
5488.07 34.0336 92.7085
5490.95 35.5545 96.0792
5493.84 25.4555 92.6921
5496.72 28.5928 98.8766
5499.6 30.5462 96.9839
5502.48 30.9162 94.7052
5505.36 32.2842 93.853
5508.24 28.9752 97.8684
5511.12 27.4736 90.3741
5514 19.2592 99.2954
5516.88 31.0586 93.961
5519.76 27.4971 95.4809
5522.64 23.2235 96.9572
5525.52 28.4773 95.887
5528.4 28.0996 92.2972
5531.28 27.1733 88.1025
5534.16 31.8711 88.4927
5537.04 21.0197 94.4406
5539.92 22.8813 91.216
5542.8 25.9128 91.3214
5545.68 28.2833 87.9617
5548.56 28.0076 95.0866
5551.44 27.5991 87.7493
5554.32 23.0812 91.8264
5557.2 30.9737 98.3235
5560.08 28.1016 91.5914
5562.96 28.3174 98.6119
5565.84 18.8374 104.105
5568.72 31.0136 105.725
5571.59 28.6719 95.7874
5574.47 30.6908 95.774
5577.35 26.0197 88.521
5580.23 -7.90129 81.359
5583.11 27.7967 96.9718
5585.99 12.8363 97.3519
5588.87 27.88 97.6545
5591.74 28.6708 90.3841
5594.62 27.9608 91.4519
5597.5 28.5534 87.5962
5600.38 27.7442 91.4882
5603.25 29.8477 87.8717
5606.13 21.2877 90.8596
5609.01 29.8226 90.8159
5611.89 23.5019 90.9545
5614.76 31.3797 88.1039
5617.64 26.8726 95.6412
5620.52 30.3468 93.8625
5623.4 27.9407 88.9678
5626.27 21.7457 87.3932
5629.15 26.9799 92.5757
5632.03 28.2791 95.1168
5634.9 27.6899 96.6132
5637.78 19.4178 98.4191
5640.65 20.4611 91.4044
5643.53 30.2456 94.2056
5646.41 25.8859 89.3462
5649.28 24.4408 88.7362
5652.16 22.977 93.2928
5655.03 24.9776 92.526
5657.91 20.5171 88.681
5660.79 17.6259 83.5218
5663.66 24.5208 90.3107
5666.54 22.9249 91.3212
5669.41 16.6564 87.7151
5672.29 23.2749 90.8447
5675.16 20.8766 91.5988
5678.04 16.0451 89.9206
5680.91 15.0866 85.9544
5683.79 21.1521 90.5604
5686.66 21.6862 84.7414
5689.54 20.7942 90.9153
5692.41 19.8902 82.8824
5695.29 12.4813 85.4964
5698.16 19.9927 82.7886
5701.03 12.9199 85.1059
5703.91 17.6709 89.1916
5706.78 19.7807 84.9815
5709.66 16.4172 83.8019
5712.53 12.1519 86.2749
5715.4 19.6878 80.4351
5718.28 18.4553 83.4958
5721.15 19.4417 79.0535
5724.02 17.1525 83.0431
5726.9 11.749 85.4253
5729.77 18.6726 84.7519
5732.64 19.9536 88.0547
5735.52 18.4635 84.9701
5738.39 12.9603 81.549
5741.26 20.386 88.9813
5744.13 13.0361 87.6965
5747.01 23.3357 81.1702
5749.88 17.4787 82.9861
5752.75 15.9799 91.4293
5755.62 23.4088 81.7187
5758.5 26.0582 88.4915
5761.37 22.2515 89.3457
5764.24 15.8642 85.2514
5767.11 23.7209 89.8445
5769.98 22.5905 87.464
5772.86 23.9922 88.8018
5775.73 21.7092 87.5719
5778.6 22.7143 87.9546
5781.47 23.4416 91.9207
5784.34 26.9419 86.8229
5787.21 27.5439 93.5966
5790.08 25.8345 86.3321
5792.95 15.3149 84.4617
5795.82 25.5083 92.4766
5798.69 26.5549 88.2608
5801.56 22.1179 86.7496
5804.44 25.2907 83.4098
5807.31 24.11 83.5949
5810.18 23.4131 81.6196
5813.05 19.9934 88.4244
5815.92 21.3062 85.5492
5818.79 21.1184 86.398
5821.65 25.335 85.1075
5824.52 23.5934 82.5171
5827.39 23.4225 87.4028
5830.26 17.5686 88.229
5833.13 23.8612 84.9645
5836 20.3703 90.4999
5838.87 24.3395 84.6828
5841.74 22.3502 85.2675
5844.61 23.8875 83.5427
5847.48 14.3528 85.8446
5850.35 24.6384 87.4998
5853.21 22.2949 91.6377
5856.08 23.0738 88.0674
5858.95 17.8422 92.9297
5861.82 23.3 89.1427
5864.69 14.4879 86.0071
5867.55 22.2971 86.5548
5870.42 20.7596 83.1578
5873.29 23.595 86.6768
5876.16 24.8058 86.6389
5879.03 21.2603 94.9928
5881.89 10.1958 88.3732
5884.76 21.1356 83.2681
5887.63 21.2671 81.6145
5890.49 22.2022 84.6707
5893.36 21.8451 85.491
5896.23 23.1407 87.1897
5899.09 22.8294 81.205
5901.96 19.354 85.8903
5904.83 18.465 87.964
5907.69 18.6833 86.3434
5910.56 19.8842 73.8348
5913.43 18.6487 79.4162
5916.29 20.4575 81.6394
5919.16 14.9099 74.0336
5922.02 19.2943 82.7506
5924.89 17.0311 84.1081
5927.75 17.235 90.0808
5930.62 8.23745 84.2051
5933.49 13.8911 89.129
5936.35 19.2071 85.6994
5939.22 18.2021 82.9269
5942.08 17.9837 87.9762
5944.95 15.5042 85.7258
5947.81 16.9582 84.6215
5950.67 18.0822 81.6622
5953.54 9.754 86.2776
5956.4 12.1477 87.2778
5959.27 14.9535 81.9443
5962.13 16.3706 83.2732
5965 15.702 86.1301
5967.86 16.2047 84.0155
5970.72 16.9882 81.6197
5973.59 8.68159 86.8352
5976.45 14.3739 81.4905
5979.31 12.0723 81.7313
5982.18 16.3948 78.6815
5985.04 15.8954 80.9367
5987.9 6.59263 81.5705
5990.77 13.8358 85.5635
5993.63 10.1583 85.9332
5996.49 13.825 84.4857
5999.36 9.31685 82.3316
6002.22 14.744 80.0605
6005.08 15.5391 79.1829
6007.94 12.4963 85.0933
6010.8 10.1434 78.0947
6013.67 16.3616 79.4718
6016.53 10.4273 83.7989
6019.39 12.4549 81.2901
6022.25 15.5201 80.3735
6025.11 17.541 85.868
6027.97 19.1138 84.3523
6030.84 17.988 84.093
6033.7 21.2579 85.4177
6036.56 19.0957 83.0815
6039.42 20.7895 87.607
6042.28 10.9635 86.6107
6045.14 22.2398 81.2844
6048 17.0301 88.757
6050.86 20.3637 88.9375
6053.72 14.9002 84.1142
6056.58 19.2677 86.956
6059.44 20.9268 87.4718
6062.3 22.4415 88.6878
6065.16 24.2355 89.512
6068.02 19.494 84.8051
6070.88 22.5871 85.7093
6073.74 21.8486 87.8703
6076.6 18.9361 87.5251
6079.46 23.1426 87.7042
6082.32 20.5085 86.6779
6085.18 22.4659 87.5159
6088.04 25.2732 85.8729
6090.89 22.3074 86.3476
6093.75 25.2355 85.213
6096.61 26.656 90.6682
6099.47 25.9194 88.4347
6102.33 22.1571 93.0682
6105.19 22.7043 92.2518
6108.04 22.746 88.0026
6110.9 25.3582 89.5361
6113.76 17.1767 90.3682
6116.62 21.3668 86.3949
6119.47 22.9389 78.067
6122.33 23.9919 80.28
6125.19 26.1071 89.8302
6128.05 18.3364 83.8962
6130.9 18.4858 82.7692
6133.76 24.2482 85.3024
6136.62 15.1271 85.5603
6139.47 24.1362 79.8599
6142.33 20.5549 89.5255
6145.19 22.2956 84.3552
6148.04 19.4046 86.4207
6150.9 21.4935 88.8171
6153.75 20.2834 88.4669
6156.61 20.4031 85.172
6159.46 18.258 85.4327
6162.32 14.1131 84.0977
6165.18 19.6881 88.066
6168.03 20.9174 83.6147
6170.89 19.8704 86.0191
6173.74 18.1675 81.7942
6176.6 21.8801 83.3475
6179.45 20.2161 85.5568
6182.31 19.767 83.7364
6185.16 21.834 87.1753
6188.01 21.6918 87.6526
6190.87 19.4955 90.9803
6193.72 19.3822 83.989
6196.58 18.925 84.1154
6199.43 22.6686 86.4005
6202.28 23.376 86.243
6205.14 23.0074 80.6479
6207.99 21.6211 85.4213
6210.84 17.3273 80.1055
6213.7 21.0878 82.0116
6216.55 14.981 79.0358
6219.4 18.959 89.3424
6222.26 21.6809 76.3076
6225.11 19.8993 83.6978
6227.96 22.6397 83.8143
6230.81 18.69 86.1963
6233.67 18.7278 86.3157
6236.52 17.3396 81.1322
6239.37 21.3305 82.1655
6242.22 23.1573 81.4499
6245.07 13.6748 80.2624
6247.93 11.7259 79.2928
6250.78 20.7647 80.0697
6253.63 20.8832 82.9389
6256.48 14.1704 76.1903
6259.33 16.2137 87.8568
6262.18 21.3082 77.7874
6265.03 19.9073 81.3432
6267.88 21.3547 81.0017
6270.73 18.8915 83.6711
6273.59 21.5883 83.6806
6276.44 13.5513 80.346
6279.29 17.1272 82.1275
6282.14 18.8297 77.7661
6284.99 8.90289 83.3597
6287.84 19.7008 78.2077
6290.69 17.2925 89.0333
6293.53 22.6453 91.7511
6296.38 16.096 80.8131
6299.23 17.3367 72.389
6302.08 15.1492 72.8796
6304.93 14.7521 76.1968
6307.78 14.6858 83.1096
6310.63 16.5003 71.0814
6313.48 10.9879 70.4604
6316.33 12.7953 77.2858
6319.17 10.7132 67.1013
6322.02 4.71832 77.8896
6324.87 10.3531 71.19
6327.72 7.86417 70.3939
6330.57 6.04444 70.4986
6333.41 7.9883 75.3947
6336.26 10.73 73.9036
6339.11 4.15319 69.3074
6341.96 2.27567 69.264
6344.8 5.39957 69.7174
6347.65 6.28916 74.6191
6350.5 5.36992 72.34
6353.34 5.76478 68.8559
6356.19 -1.51485 70.2423
6359.04 -5.41408 77.6679
6361.88 5.35668 69.0566
6364.73 3.12453 67.3706
6367.57 -6.76382 72.2349
6370.42 4.8302 68.8839
6373.27 4.53651 69.6087
6376.11 2.09506 64.8162
6378.96 1.09304 68.6761
6381.8 -1.6412 70.2525
6384.65 2.2566 67.8679
6387.49 3.25721 69.7824
6390.34 4.15697 71.5588
6393.18 3.67441 66.379
6396.03 3.69366 67.8323
6398.87 5.26011 72.3408
6401.71 3.45732 65.6248
6404.56 -0.961851 70.1432
6407.4 5.25316 65.453
6410.25 4.86149 72.4747
6413.09 3.6851 64.7161
6415.93 4.96561 67.1773
6418.78 6.67368 69.9255
6421.62 -0.472285 65.9352
6424.46 4.55333 71.2638
6427.31 6.04754 71.2035
6430.15 1.87138 63.2503
6432.99 3.98049 65.3243
6435.83 6.73113 68.7702
6438.68 8.27036 72.6983
6441.52 10.1245 69.0994
6444.36 3.1794 74.7342
6447.2 7.33997 72.2744
6450.05 9.02885 69.432
6452.89 9.42716 71.1845
6455.73 10.2681 71.6224
6458.57 9.02775 68.5459
6461.41 9.9695 76.9375
6464.25 2.53888 70.8728
6467.09 3.36706 74.7809
6469.93 8.17212 73.6494
6472.78 10.8704 74.8071
6475.62 11.5547 76.7397
6478.46 11.9701 70.9385
6481.3 11.5494 73.3305
6484.14 12.7179 76.8549
6486.98 13.8492 70.6886
6489.82 9.20434 75.9159
6492.66 15.1901 75.8333
6495.5 7.86018 72.9526
6498.34 11.862 77.5296
6501.17 15.9296 79.6025
6504.01 13.7002 76.339
6506.85 19.3021 81.0942
6509.69 11.5896 76.67
6512.53 16.3378 78.432
6515.37 16.4911 78.2013
6518.21 9.82384 76.2698
6521.05 16.795 76.6978
6523.88 17.0981 75.5143
6526.72 13.5389 80.1355
6529.56 17.9299 81.2439
6532.4 17.8126 78.9979
6535.23 18.0729 79.0574
6538.07 17.3137 80.2712
6540.91 19.6345 85.2937
6543.75 18.28 84.9365
6546.58 17.1553 83.7414
6549.42 16.5348 85.4883
6552.26 18.9942 82.8627
6555.09 9.57182 83.9913
6557.93 10.2279 84.3125
6560.77 16.3883 74.9015
6563.6 18.4017 84.925
6566.44 18.0194 75.3705
6569.27 12.4084 80.4634
6572.11 17.9367 79.8308
6574.94 20.8896 80.3812
6577.78 19.7649 79.4486
6580.61 18.414 82.7825
6583.45 16.5439 82.5859
6586.28 18.8224 80.9996
6589.12 18.0763 74.3942
6591.95 20.2625 85.4394
6594.79 16.0972 78.3319
6597.62 16.2991 75.3496
6600.46 17.4773 83.997
6603.29 16.8731 76.8897
6606.12 18.4424 84.6351
6608.96 9.34996 81.9524
6611.79 17.004 82.5709
6614.62 19.1487 81.3461
6617.46 14.0205 82.4457
6620.29 19.0589 81.1241
6623.12 17.2319 87.9193
6625.96 12.5933 83.2363
6628.79 18.9913 87.2397
6631.62 17.0032 76.2053
6634.45 16.3905 80.4198
6637.29 17.3378 82.1701
6640.12 12.334 76.9339
6642.95 17.6052 82.3971
6645.78 16.9754 77.9788
6648.61 18.1891 79.4196
6651.44 13.8428 82.2225
6654.27 12.7298 81.7447
6657.11 12.546 78.2923
6659.94 18.9046 83.2607
6662.77 16.3402 79.8911
6665.6 14.7509 79.8164
6668.43 17.6366 79.8244
6671.26 17.8542 78.9663
6674.09 17.5146 81.7771
6676.92 15.6894 83.0959
6679.75 14.4875 79.323
6682.58 16.4915 80.7048
6685.41 17.4716 82.358
6688.24 15.9506 83.6509
6691.07 16.9747 82.9822
6693.9 16.8913 85.6601
6696.72 15.8227 78.8054
6699.55 11.0782 84.4089
6702.38 17.2974 76.1764
6705.21 15.8585 81.6023
6708.04 17.4982 76.9479
6710.87 18.3206 81.5855
6713.69 12.8476 82.7282
6716.52 15.0549 84.2066
6719.35 12.6654 75.5936
6722.18 14.3103 76.8781
6725 14.6438 79.0323
6727.83 15.3817 83.181
6730.66 16.5072 80.5686
6733.48 16.3454 82.4292
6736.31 16.5135 85.4831
6739.14 16.438 83.6099
6741.96 16.8071 79.9229
6744.79 15.2059 72.9925
6747.62 16.6919 79.2028
6750.44 16.2125 75.2603
6753.27 14.2466 74.7788
6756.09 15.5969 81.2544
6758.92 14.6769 78.2552
6761.74 16.9545 82.9483
6764.57 12.8705 76.0587
6767.39 12.3454 80.3773
6770.22 15.2298 81.7213
6773.04 14.0183 78.5221
6775.87 10.3461 78.5296
6778.69 11.1394 79.8813
6781.52 12.3203 82.3032
6784.34 13.3037 74.8607
6787.16 12.9004 79.8553
6789.99 13.0844 81.5304
6792.81 12.2874 80.3607
6795.63 12.1673 87.864
6798.46 12.2791 88.5424
6801.28 10.4668 92.7205
6804.1 9.29536 91.208
6806.93 3.77754 90.752
6809.75 13.1527 114.412
6812.57 -6.81366 169.006
6815.39 -18.1158 226.95
6818.22 -32.6383 256.255
6821.04 -34.7336 229.023
6823.86 -19.6938 164.472
6826.68 -6.3321 133.995
6829.5 2.285 102.84
6832.32 9.04771 110.91
6835.14 5.73468 114.04
6837.96 -12.2869 124.351
6840.79 -4.43075 127.488
6843.61 0.9501 112.469
6846.43 5.00798 97.848
6849.25 1.81367 89.4051
6852.07 7.61606 82.2439
6854.89 10.1259 76.9563
6857.71 12.1653 73.734
6860.53 9.11501 69.729
6863.34 -1.84762 68.6851
6866.16 5.52943 62.5707
6868.98 7.76814 56.1467
6871.8 2.84633 56.6603
6874.62 7.3615 60.9518
6877.44 9.56553 67.2818
6880.26 11.9833 63.7355
6883.08 7.83256 62.7735
6885.89 3.99661 65.18
6888.71 8.92366 70.2904
6891.53 7.17961 68.3646
6894.35 6.05165 66.3631
6897.16 1.92702 68.0934
6899.98 -2.93824 60.433
6902.8 -1.08984 64.1658
6905.62 0.989255 69.4971
6908.43 2.55675 70.9505
6911.25 9.55184 67.8689
6914.07 8.45469 70.6619
6916.88 10.8896 78.3119
6919.7 -3.79385 68.1525
6922.51 9.34983 70.8673
6925.33 -1.72868 73.1025
6928.14 6.77136 72.626
6930.96 5.75894 73.8774
6933.78 6.72051 74.753
6936.59 5.99489 77.3703
6939.4 4.78669 75.4399
6942.22 5.36731 73.9901
6945.03 5.59965 71.6128
6947.85 4.64021 72.3511
6950.66 8.0216 70.796
6953.48 -1.51865 74.5348
6956.29 -1.71362 71.7969
6959.1 -0.397817 73.7522
6961.92 4.74369 77.2242
6964.73 5.45569 68.5913
6967.54 3.54486 77.7754
6970.36 5.5879 81.2797
6973.17 2.83901 99.6554
6975.98 -1.1616 112.668
6978.8 -3.68008 111.935
6981.61 -2.11872 104.424
6984.42 1.89278 95.7147
6987.23 -7.66783 98.0625
6990.04 -9.14051 101.233
6992.85 -3.22755 105.629
6995.67 -3.24915 101.067
6998.48 1.66264 84.441
7001.29 0.0126835 82.0103
7004.1 1.37338 76.1895
7006.91 1.92925 71.7032
7009.72 6.48252 77.3099
7012.53 2.40728 71.3406
7015.34 4.05602 75.2395
7018.15 4.30679 70.616
7020.96 5.13984 77.3236
7023.77 4.28365 77.0148
7026.58 3.2519 70.6207
7029.39 1.55285 70.4095
7032.2 3.02262 75.4438
7035.01 1.74564 72.6884
7037.82 5.28376 70.253
7040.63 -3.99336 71.6937
7043.43 2.53419 67.4889
7046.24 3.21042 69.009
7049.05 -1.94719 72.1397
7051.86 -1.82186 83.8006
7054.67 -1.21326 69.0451
7057.47 3.72756 66.6313
7060.28 2.45381 69.936
7063.09 -2.27284 70.288
7065.9 -1.60107 70.8562
7068.7 3.48192 68.0364
7071.51 3.61926 71.2049
7074.32 1.81368 72.8866
7077.12 3.09083 66.3704
7079.93 -0.0788818 74.1951
7082.73 2.99261 71.037
7085.54 -2.99189 68.16
7088.35 -3.73883 71.485
7091.15 2.79202 82.4321
7093.96 2.20535 70.5174
7096.76 5.47619 76.1596
7099.57 2.79864 75.9306
7102.37 3.65556 80.0693
7105.18 3.16007 74.2551
7107.98 2.03513 75.1203
7110.78 -3.32827 69.7578
7113.59 -2.00997 73.6087
7116.39 3.12512 73.1202
7119.2 3.69549 73.2207
7122 3.21558 80.1045
7124.8 2.56431 71.5733
7127.61 1.72467 68.7437
7130.41 2.62846 67.4403
7133.21 1.42641 72.8171
7136.02 -0.686461 72.3042
7138.82 -3.62519 74.8169
7141.62 -4.49137 78.7932
7144.42 2.06259 76.323
7147.22 0.856801 69.4946
7150.03 -0.90851 69.0551
7152.83 -2.52635 73.5065
7155.63 1.74304 73.4053
7158.43 3.28356 76.0105
7161.23 4.19778 67.4666
7164.03 2.04042 77.391
7166.83 1.20826 70.7408
7169.63 -0.841127 69.1504
7172.43 -5.44688 69.1812
7175.23 -0.381016 68.4299
7178.03 3.69234 76.3999
7180.83 -0.38713 68.9219
7183.63 0.62661 67.7702
7186.43 -3.44287 75.5792
7189.23 1.34942 63.9938
7192.03 -0.45827 69.2765
7194.83 1.52089 66.8228
7197.63 1.61644 68.7161
7200.43 -0.405966 70.1561
7203.22 -0.13152 69.285
7206.02 1.91677 69.9952
7208.82 -2.38515 68.2606
7211.62 6.89459 69.3027
7214.41 6.80362 68.125
7217.21 7.85936 73.3139
7220.01 6.81024 63.6998
7222.81 7.19532 69.9651
7225.6 5.32921 70.3732
7228.4 7.01041 71.6695
7231.2 7.36069 73.6497
7233.99 9.54214 69.1321
7236.79 11.0722 73.0643
7239.58 7.04231 79.5686
7242.38 4.08793 78.5049
7245.18 -1.12718 67.0083
7247.97 3.02567 73.4492
7250.77 5.98787 66.8945
7253.56 8.40083 68.7009
7256.36 5.32033 72.2619
7259.15 5.69874 69.9457
7261.94 8.26814 68.8735
7264.74 5.77163 68.1199
7267.53 5.81959 64.1254
7270.33 8.46498 68.521
7273.12 7.89604 68.3159
7275.91 7.40179 72.8686
7278.71 2.89404 75.7612
7281.5 5.15339 77.4088
7284.29 4.35101 63.2153
7287.08 5.14798 74.4239
7289.88 7.16628 74.4242
7292.67 6.87944 68.459
7295.46 9.25941 71.418
7298.25 5.91139 67.9187
7301.05 4.03349 68.8524
7303.84 4.75726 71.1882
7306.63 6.87895 69.2999
7309.42 8.46966 72.8405
7312.21 5.8148 66.8348
7315 5.98738 78.5002
7317.79 3.82323 72.9149
7320.58 7.68855 80.3924
7323.37 4.4077 75.5887
7326.16 5.88818 73.0407
7328.95 1.97831 73.8635
7331.74 4.38264 71.4077
7334.53 5.21086 65.7998
7337.32 6.6815 83.2247
7340.11 6.18202 72.9961
7342.9 6.19659 82.6159
7345.69 7.09108 76.2731
7348.48 4.51157 80.6936
7351.26 6.07431 63.5519
7354.05 5.93877 74.9274
7356.84 3.77376 68.6815
7359.63 1.68537 66.2634
7362.41 4.57475 77.262
7365.2 1.80886 69.3511
7367.99 4.76511 82.1043
7370.78 5.53385 79.8295
7373.56 4.31342 63.5338
7376.35 2.11274 69.6207
7379.14 4.80952 71.8872
7381.92 6.58208 61.9693
7384.71 5.80355 67.7962
7387.49 5.49737 75.6908
7390.28 5.69853 68.0279
7393.06 4.47563 72.1433
7395.85 8.87544 75.4018
7398.63 2.98431 68.4716
7401.42 4.2003 67.6806
7404.2 3.21391 67.2075
7406.99 3.1292 82.1073
7409.77 6.09221 70.2963
7412.56 3.87616 72.3584
7415.34 6.26539 74.2349
7418.12 3.64394 75.8945
7420.91 5.82912 65.8458
7423.69 4.17126 73.2273
7426.47 4.26184 71.394
7429.26 6.18252 72.1658
7432.04 4.37453 59.6879
7434.82 3.09509 67.9064
7437.6 4.99212 75.344
7440.39 4.98882 63.7239
7443.17 6.2064 74.4993
7445.95 2.39344 68.9494
7448.73 5.42449 66.9294
7451.51 5.41163 67.8964
7454.29 4.12445 74.4352
7457.07 1.9762 72.512
7459.86 5.02765 72.7918
7462.64 4.77808 75.1133
7465.42 7.96337 71.3194
7468.2 3.17836 71.2631
7470.98 4.01804 69.6183
7473.76 3.53075 76.8519
7476.53 5.19014 69.9967
7479.31 4.60002 69.7949
7482.09 6.13116 71.1767
7484.87 7.92207 69.9333
7487.65 2.80635 68.9918
7490.43 2.75783 70.653
7493.21 4.99088 78.6414
7495.99 1.98327 71.5342
7498.76 2.22816 71.2145
7501.54 4.9493 74.9312
7504.32 6.07166 73.3339
7507.1 6.62703 69.0717
7509.87 2.34674 67.6665
7512.65 5.12319 76.2415
7515.43 5.33265 62.9825
7518.2 4.77341 71.0693
7520.98 1.85532 65.7835
7523.76 2.27008 79.0135
7526.53 1.68095 68.8607
7529.31 3.73901 74.9178
7532.08 0.558372 78.6601
7534.86 2.49525 69.1393
7537.63 5.49962 73.393
7540.41 5.33192 66.5294
7543.18 2.22139 68.692
7545.96 3.88161 64.1098
7548.73 2.10025 68.5156
7551.5 4.31816 73.5093
7554.28 6.04872 66.6885
7557.05 2.20115 72.7272
7559.83 3.22345 69.1664
7562.6 2.77109 70.9446
7565.37 3.82001 74.6486
7568.14 0.57297 69.4251
7570.92 1.55384 65.9001
7573.69 2.21029 63.0685
7576.46 1.94546 73.5327
7579.23 1.17322 64.7851
7582.01 4.10998 71.4769
7584.78 3.30968 69.4083
7587.55 1.95017 69.9228
7590.32 3.10448 58.3946
7593.09 0.947165 46.3631
7595.86 0.185048 35.9003
7598.63 3.50882 36.2676
7601.4 2.30616 23.2889
7604.17 4.14644 24.019
7606.94 0.0437068 22.5551
7609.71 2.38101 39.6943
7612.48 4.00511 37.3986
7615.25 1.89582 43.1925
7618.02 0.962089 42.3219
7620.79 0.91365 44.87
7623.56 4.3094 36.9549
7626.33 0.380403 42.2489
7629.09 1.39046 36.4945
7631.86 1.67065 42.4284
7634.63 1.53516 32.9481
7637.4 0.319316 40.1374
7640.17 0.0496328 45.6757
7642.93 2.71738 47.2648
7645.7 0.863778 46.6617
7648.47 1.1878 44.3176
7651.23 2.63435 59.1958
7654 3.72625 55.061
7656.77 0.438495 47.8886
7659.53 1.12452 68.3249
7662.3 2.27988 55.6933
7665.06 2.08377 62.0695
7667.83 0.752878 62.9546
7670.59 -1.12251 65.8491
7673.36 -0.786124 60.6737
7676.12 -1.76057 62.0752
7678.89 0.92939 62.4269
7681.65 1.66337 76.4035
7684.42 0.953698 68.1918
7687.18 0.473284 64.405
7689.94 1.38574 69.1302
7692.71 0.272571 75.9671
7695.47 2.72685 67.9406
7698.23 -2.68038 58.9343
7701 -1.53588 66.2191
7703.76 -1.12742 62.9861
7706.52 -2.99357 64.112
7709.28 -0.927221 70.6492
7712.04 -2.70906 61.0472
7714.81 -1.7208 74.2065
7717.57 -1.43473 77.5266
7720.33 -4.13537 75.7728
7723.09 2.44712 71.6087
7725.85 -1.34533 78.6133
7728.61 -0.463673 80.6773
7731.37 -1.15412 65.3407
7734.13 0.289188 72.2802
7736.89 -1.90874 71.3994
7739.65 -1.798 81.77
7742.41 -1.43158 72.3085
7745.17 -2.47408 65.131
7747.93 0.915086 78.3464
7750.69 -3.68612 75.2275
7753.45 -1.34539 68.7386
7756.21 -2.3055 70.2844
7758.97 -8.37289 72.3555
7761.72 0.0969522 76.6018
7764.48 -3.54507 68.7708
7767.24 -3.99487 76.618
7770 0.044059 75.6358
7772.75 -2.05081 74.929
7775.51 -6.82164 74.1775
7778.27 -4.9778 62.6432
7781.02 -0.631598 83.097
7783.78 -4.80606 67.3705
7786.54 0.146426 68.3087
7789.29 -4.42331 62.6325
7792.05 -5.29435 62.2181
7794.8 0.0806354 82.5055
7797.56 -1.26959 79.3114
7800.31 -4.23402 73.8792
7803.07 -4.63466 68.3612
7805.82 -3.89212 74.27
7808.58 0.648305 71.264
7811.33 -3.87219 76.3654
7814.09 -4.15469 80.635
7816.84 -0.635268 59.1783
7819.59 1.65759 77.2644
7822.35 -0.936848 68.5399
7825.1 -5.37726 83.1018
7827.85 -4.67291 69.467
7830.61 -0.669367 68.656
7833.36 -3.43918 80.7086
7836.11 1.05257 70.9627
7838.86 -1.04488 72.2914
7841.61 -0.383772 80.505
7844.37 -3.46375 67.7367
7847.12 3.01671 68.8137
7849.87 -7.07216 68.8122
7852.62 0.729169 74.9963
7855.37 -0.716006 84.5267
7858.12 -1.80867 68.8835
7860.87 -0.308565 86.7977
7863.62 -3.16557 62.2237
7866.37 -4.32378 71.2875
7869.12 -1.79072 67.1982
7871.87 -4.55329 79.7199
7874.62 2.05895 78.6265
7877.37 -2.96822 68.6758
7880.12 -3.30668 70.7731
7882.86 3.11244 73.6147
7885.61 -2.01193 71.3743
7888.36 0.845855 72.066
7891.11 0.510746 84.5026
7893.86 -4.82268 76.567
7896.6 -2.19333 68.5334
7899.35 -4.68558 79.9589
7902.1 -5.29457 72.2966
7904.84 -5.65828 74.4216
7907.59 -5.71287 62.1039
7910.34 0.580894 64.4456
7913.08 -0.887468 69.9052
7915.83 -0.0218238 81.2987
7918.57 5.47048 69.9787
7921.32 -2.72253 73.8643
7924.06 -2.03937 82.7386
7926.81 -3.89463 79.7538
7929.55 0.454489 72.7855
7932.3 -0.57594 81.7788
7935.04 -2.2743 67.0373
7937.79 -2.08314 69.8466
7940.53 -1.14601 65.0574
7943.27 -8.67628 61.8369
7946.02 -2.22758 59.015
7948.76 -0.508045 64.8249
7951.5 1.48509 83.2882
7954.25 -2.14822 77.0762
7956.99 -1.28302 62.5445
7959.73 -3.38679 64.7253
7962.47 1.82133 72.6083
7965.21 1.14917 84.6542
7967.95 -5.59469 81.6942
7970.7 -3.58247 55.6225
7973.44 -0.181815 76.2586
7976.18 0.543231 69.2321
7978.92 0.527067 73.293
7981.66 0.605898 92.9274
7984.4 -4.58737 73.898
7987.14 0.417952 78.2871
7989.88 0.319939 63.5937
7992.62 -3.491 80.9685
7995.36 -0.357032 73.8546
7998.1 -7.30315 60.9928
8000.83 -3.97059 85.0751
8003.57 -0.599955 79.8655
8006.31 -3.62575 59.1172
8009.05 -1.82625 76.258
8011.79 -2.81872 73.6491
8014.52 -4.0145 56.4263
8017.26 -4.5811 74.8862
8020 -0.960753 75.6727
8022.74 -1.56287 79.715
8025.47 3.63267 59.0101
8028.21 1.2787 85.7989
8030.95 -2.18223 73.9503
8033.68 -1.4837 80.8913
8036.42 -2.68953 70.9398
8039.15 -0.974076 79.979
8041.89 -4.00246 65.4775
8044.62 -3.70521 75.8536
8047.36 -1.03684 65.1323
8050.09 2.10707 71.9079
8052.83 -3.01492 69.501
8055.56 -3.36553 77.2582
8058.29 -6.16899 61.0142
8061.03 -2.77062 68.8728
8063.76 -0.0369779 83.0829
8066.49 -3.18318 72.437
8069.23 -2.93761 73.7661
8071.96 -1.64742 70.8824
8074.69 -2.00092 75.7851
8077.43 -3.95789 68.1686
8080.16 -0.891714 70.1119
8082.89 -4.64923 80.5351
8085.62 -0.252646 81.4978
8088.35 -6.18853 83.8101
8091.08 -3.59021 66.6974
8093.81 -1.0912 74.4465
8096.54 0.717683 80.2273
8099.27 -2.89997 64.5141
8102 -2.41009 84.8045
8104.73 -0.748588 71.28
8107.46 -4.43571 73.7069
8110.19 0.61303 86.1667
8112.92 -3.48367 74.5771
8115.65 -1.84247 68.6975
8118.38 -3.94986 75.8086
8121.11 -1.14139 63.5789
8123.84 -3.94704 72.9768
8126.57 4.47587 75.5251
8129.29 5.20617 75.6228
8132.02 6.67957 77.9821
8134.75 1.23796 77.4465
8137.47 7.01499 66.9822
8140.2 2.84888 69.0171
8142.93 5.51863 78.3462
8145.65 4.35848 64.5285
8148.38 4.67768 75.0276
8151.11 5.01995 83.257
8153.83 6.39616 68.796
8156.56 3.97749 70.6408
8159.28 5.835 71.7132
8162.01 2.88952 68.5305
8164.73 7.12743 70.0337
8167.46 -0.727484 75.3342
8170.18 4.50967 67.4019
8172.9 4.68231 75.8959
8175.63 2.77562 65.3401
8178.35 3.82528 73.6724
8181.08 7.59872 76.7876
8183.8 2.17223 74.8034
8186.52 4.51659 77.4489
8189.24 3.11044 64.7594
8191.97 5.48656 72.1461
8194.69 4.88507 71.5789
8197.41 6.7067 79.893
8200.13 4.53817 81.2127
8202.85 3.31493 70.7324
8205.57 5.86727 73.7601
8208.29 4.26178 75.3214
8211.01 5.48262 81.5778
8213.73 4.04756 80.3121
8216.45 3.64547 73.2388
8219.17 4.59062 65.1204
8221.89 1.12807 68.676
8224.61 4.41171 74.9536
8227.33 1.62447 67.7281
8230.05 3.57129 64.174
8232.77 3.10886 75.1555
8235.49 3.53533 68.3647
8238.21 2.24985 62.5485
8240.92 1.38359 78.1853
8243.64 -1.62857 69.7833
8246.36 4.96424 64.6239
8249.08 4.58747 74.2456
8251.79 2.30953 73.9608
8254.51 3.02258 74.2126
8257.23 1.57842 63.2085
8259.94 0.49154 72.1417
8262.66 1.89683 70.0459
8265.37 3.41243 72.3468
8268.09 6.22695 72.0038
8270.81 1.64677 71.3439
8273.52 1.12923 64.1879
8276.24 6.74285 75.0217
8278.95 -0.694019 55.0926
8281.66 10.4371 88.0139
8284.38 5.60918 82.2327
8287.09 -4.63265 58.9115
8289.8 -0.01016 71.1104
8292.52 0.759707 59.8105
8295.23 8.62466 68.3579
8297.94 2.16002 73.7404
8300.66 1.05898 97.0018
8303.37 -2.2056 48.3768
8306.08 0.253908 76.1733
8308.79 -1.31925 68.6147
8311.5 4.16172 71.3423
8314.22 2.89272 72.6773
8316.93 1.41809 74.9257
8319.64 5.21357 77.22
8322.35 -0.607866 77.6504
8325.06 1.4757 70.2205
8327.77 -0.75661 70.9949
8330.48 -1.53015 82.7928
8333.19 0.623244 68.0797
8335.9 3.8952 79.8396
8338.61 0.974509 74.5974
8341.31 10.5482 86.0055
8344.02 12.2782 76.1468
8346.73 1.87978 85.8287
8349.44 -8.40889 54.5563
8352.15 0.666916 92.4955
8354.85 0.056289 79.0407
8357.56 0.926727 61.365
8360.27 0.84184 76.6561
8362.97 1.17735 66.2425
8365.68 1.17356 78.5488
8368.39 -0.344417 72.0868
8371.09 0.122762 72.6266
8373.8 0.401877 73.1845
8376.5 -0.153998 79.0595
8379.21 0.751303 63.6524
8381.92 -2.41233 74.8442
8384.62 3.22712 73.9557
8387.32 0.590663 63.0875
8390.03 2.18017 70.7446
8392.73 -2.42854 76.2682
8395.44 4.58787 79.8982
8398.14 6.14006 53.2357
8400.84 6.25513 90.8422
8403.55 -3.42301 87.9541
8406.25 0.717559 60.3636
8408.95 1.35498 63.8675
8411.65 3.72782 88.221
8414.36 0.451322 83.1708
8417.06 -3.4726 73.2798
8419.76 -1.69595 65.5169
8422.46 -4.19151 82.3203
8425.16 3.857 63.6582
8427.86 1.11375 58.8042
8430.56 -5.66666 50.3236
8433.26 -3.31584 53.8566
8435.96 -7.33804 51.492
8438.66 -2.56405 77.6122
8441.36 -2.15249 77.9263
8444.06 -2.46167 57.6524
8446.76 -0.697182 76.7987
8449.46 2.80766 74.3682
8452.16 0.301889 80.6482
8454.85 -2.71942 49.426
8457.55 -0.219536 79.1486
8460.25 -5.5378 56.9441
8462.95 -3.73823 57.7548
8465.64 -4.30526 71.0996
8468.34 -6.85828 53.4342
8471.04 -7.75135 75.4359
8473.73 -5.45092 69.8867
8476.43 -0.52257 73.3853
8479.13 -5.5078 71.215
8481.82 -3.59604 72.0606
8484.52 -3.98132 67.8359
8487.21 -4.7508 61.6095
8489.91 -1.21175 69.766
8492.6 -3.11934 78.8517
8495.29 -3.51425 79.4702
8497.99 -6.73789 75.8724
8500.68 -3.47827 50.9446
8503.38 -3.79052 68.36
8506.07 -7.37351 56.4454
8508.76 -8.84939 80.1347
8511.45 -0.887565 69.0635
8514.15 -4.96733 57.8279
8516.84 -5.20297 63.6881
8519.53 -3.35537 75.8506
8522.22 -1.61985 75.8771
8524.91 -2.52872 77.9104
8527.61 -2.93978 70.2769
8530.3 -5.08518 58.4304
8532.99 -2.50463 66.8874
8535.68 -4.87739 75.5225
8538.37 -2.91867 65.7653
8541.06 0.159068 84.2673
8543.75 -4.47396 55.2422
8546.44 -0.644711 72.8715
8549.12 -3.23104 63.4003
8551.81 -5.07526 72.8051
8554.5 -3.45099 75.1098
8557.19 -4.12007 73.2968
8559.88 -4.39549 56.3112
8562.57 -5.00353 71.2609
8565.25 -4.98092 59.891
8567.94 -7.08041 73.2509
8570.63 -3.80986 55.6545
8573.31 -6.87298 68.8956
8576 -5.07917 55.7077
8578.69 -7.20519 59.4774
8581.37 -4.37562 73.0138
8584.06 -5.13643 55.6047
8586.74 -3.05298 70.978
8589.43 -2.8455 60.8018
8592.11 -4.55112 66.9701
8594.8 -7.07461 81.4652
8597.48 -3.97452 76.5262
8600.17 -2.95017 63.1662
8602.85 -5.91529 58.4812
8605.53 -4.21486 67.6795
8608.22 -7.90496 53.6405
8610.9 -4.28917 54.459
8613.58 -7.32333 70.176
8616.26 -7.96054 75.4899
8618.95 -2.92166 63.6922
8621.63 -8.89091 79.3924
8624.31 -5.96691 49.5972
8626.99 0.53621 75.1312
8629.67 -3.78837 66.0952
8632.35 -2.44529 84.4345
8635.03 -13.3481 82.4414
8637.71 -1.02519 75.0691
8640.39 -10.0651 58.2501
8643.07 -6.44625 59.5019
8645.75 -0.0457948 66.7077
8648.43 -1.85864 67.6569
8651.11 -3.32224 86.2293
8653.79 -2.01954 43.0268
8656.47 -8.34937 70.4142
8659.15 -2.56382 35.0507
8661.82 -2.28707 76.0386
8664.5 -3.32669 75.9896
8667.18 -9.04273 63.9446
8669.86 -1.39893 55.5424
8672.53 -8.83065 34.199
8675.21 -4.62987 77.9054
8677.89 -5.73698 34.6359
8680.56 -5.28485 83.5806
8683.24 -3.49868 69.1403
8685.91 -3.53677 70.7071
8688.59 -5.56122 49.5712
8691.26 -3.41422 60.3479
8693.94 -1.21872 69.3861
8696.61 -6.82308 67.2101
8699.29 -2.5743 66.7444
8701.96 -7.76089 75.1921
8704.63 -2.9438 57.3153
8707.31 -3.43561 57.229
8709.98 -5.44411 76.1485
8712.65 -3.67366 66.1948
8715.32 -2.58826 76.3844
8718 -4.31818 69.6945
8720.67 -5.76416 66.5376
8723.34 -2.3447 65.3958
8726.01 -5.57072 75.7257
8728.68 -4.48616 63.7285
8731.35 -3.19983 62.3975
8734.02 -3.10346 57.836
8736.69 -3.26469 70.5147
8739.36 -7.19445 70.5826
8742.03 -2.63027 67.6393
8744.7 -2.85132 66.5249
8747.37 -0.117403 74.8697
8750.04 -3.06939 74.4897
8752.71 -0.342836 84.6011
8755.38 0.072521 85.7862
8758.05 -5.70641 99.6037
8760.71 -2.7809 74.3284
8763.38 0.88597 119.256
8766.05 0.518307 21.6983
8768.72 -7.7048 70.4238
8771.38 -7.35595 69.2227
8774.05 1.99453 97.6044
8776.71 -8.67123 68.6503
8779.38 -0.254838 97.3039
8782.05 -3.05429 65.1597
8784.71 -2.61908 44.4556
8787.38 1.13573 91.3176
8790.04 -1.81479 69.8128
8792.71 -1.19296 51.2262
8795.37 -2.38268 57.483
8798.03 1.4571 32.6684
8800.7 1.05157 82.9951
8803.36 -4.00534 54.1109
8806.02 -5.13199 67.6705
8808.69 2.08046 76.672
8811.35 -0.132384 63.8552
8814.01 -1.44065 87.4674
8816.67 1.90913 68.5065
8819.33 -3.45087 78.6003
8822 -2.34565 158.994
8824.66 1.44336 125.533
8827.32 9.52496 112.099
8829.98 -1.53696 79.9767
8832.64 -8.0037 81.4115
8835.3 -3.89632 44.7345
8837.96 -11.6386 89.5374
8840.62 0.999479 51.3416
8843.28 -9.34277 56.1022
8845.94 -1.83594 97.013
8848.59 -1.41848 93.2723
8851.25 0.308478 59.2705
8853.91 0.792412 87.1081
8856.57 0.752541 68.4567
8859.23 0.467322 83.691
8861.88 -1.92563 97.4612
8864.54 -0.239843 138.598
8867.2 2.3783 104.836
8869.85 -0.718845 56.7282
8872.51 1.99632 19.2513
8875.16 4.27829 53.1218
8877.82 1.33312 65.8067
8880.48 3.05946 124.161
8883.13 2.57076 198.189
8885.78 4.40677 155.971
8888.44 3.56972 104.894
8891.09 7.42853 10.1525
8893.75 3.64734 41.4795
8896.4 -0.0171829 44.7082
8899.05 -1.53975 133.492
8901.71 5.5243 153.859
8904.36 0.0752756 100.39
8907.01 8.82006 114.015
8909.66 10.5741 91.6168
8912.32 4.90802 116.602
8914.97 -5.09838 187.848
8917.62 5.36953 230.398
8920.27 7.94796 231.902
8922.92 2.73294 141.073
8925.57 4.62773 -78.1001
8928.22 -1.13483 25.2576
8930.87 -7.68865 64.0921
8933.52 0.225474 91.5088
8936.17 -1.6834 126.993
8938.82 2.40225 142.117
8941.47 1.83409 140.25
8944.11 -0.640079 127.736
8946.76 3.42112 95.198
8949.41 -0.925795 48.1899
8952.06 -2.44537 83.6529
8954.7 6.24984 248.259
8957.35 4.03335 165.924
8960 1.20519 171.308
8962.64 -4.21792 -27.4184
8965.29 -1.71791 -54.7146
8967.94 5.81022 13.0972
8970.58 2.26137 56.7381
8973.23 5.40679 91.9481
8975.87 2.94746 109.742
8978.52 4.0956 124.793
8981.16 6.0645 104.151
8983.8 2.63197 139.545
8986.45 9.77333 164.599
8989.09 7.31923 112.523
8991.74 5.68908 110.394
8994.38 7.61877 67.2148
8997.02 2.13386 114.446
8999.66 3.59528 152.744
9002.3 6.99978 106.528
9004.95 5.3059 53.1613
9007.59 3.68596 -25.464
9010.23 2.73339 16.7226
9012.87 2.19287 70.0784
9015.51 8.45247 103.636
9018.15 2.11979 110.668
9020.79 3.89039 111.462
9023.43 1.6506 115.564
9026.07 6.61627 122.105
9028.71 6.7829 117.746
9031.35 5.79798 130.717
9033.99 7.02881 133.858
9036.62 9.23252 132.721
9039.26 6.02362 122.032
9041.9 11.3166 77.7991
9044.54 5.29391 99.345
9047.17 3.93628 140.677
9049.81 5.12262 129.639
9052.45 7.87849 119.137
9055.08 5.58028 47.7719
9057.72 -0.574686 51.0244
9060.35 5.27598 79.1762
9062.99 5.04827 91.8697
