wavelength spec_sum spec_optimal
3527.11 1570.03 1594.99
3530.02 1497.28 1476.8
3532.94 1505.7 1525.94
3535.86 1507.93 1505.67
3538.78 1542.29 1532.16
3541.69 1535.98 1546.18
3544.61 1667.76 1693.74
3547.53 1671.62 1650.38
3550.44 1601.66 1628.75
3553.36 1667.81 1659.31
3556.28 1613.04 1613.02
3559.19 1599.13 1578.15
3562.11 1624.83 1585.13
3565.03 1533.1 1521.45
3567.94 1585.59 1581.53
3570.86 1525.53 1533.88
3573.78 1580.54 1586.65
3576.69 1587.97 1593.66
3579.61 1551.41 1558.84
3582.53 1485.18 1464.63
3585.44 1488.58 1508.79
3588.36 1601.68 1622.2
3591.28 1565.55 1565.97
3594.19 1573.07 1565.54
3597.11 1593.65 1593.59
3600.03 1529.22 1521.44
3602.95 1533.53 1523.3
3605.86 1546.8 1561.56
3608.78 1576.99 1597.21
3611.7 1557.49 1545.32
3614.61 1594.4 1607.36
3617.53 1674.84 1666.99
3620.45 1640.11 1650.81
3623.36 1747.27 1731.5
3626.28 1670.08 1647.3
3629.19 1497.18 1477.93
3632.11 1638.14 1640.51
3635.03 1734.4 1741.69
3637.94 1715.55 1706.82
3640.86 1615 1617.85
3643.78 1755.32 1766.07
3646.69 1677.37 1696.69
3649.61 1705 1702.55
3652.53 1725.28 1730.77
3655.44 1685.51 1679.55
3658.36 1683.27 1680.93
3661.28 1730.86 1748.66
3664.19 1726.01 1726.39
3667.11 1763.6 1790.41
3670.03 1663.1 1658.77
3672.94 1603.41 1593.38
3675.86 1687.97 1674.59
3678.78 1583.79 1602.68
3681.69 1648.3 1621.56
3684.61 1642.48 1657.41
3687.52 1680.93 1680.11
3690.44 1720.54 1717.6
3693.36 1622.2 1621.61
3696.27 1674.55 1681.75
3699.19 1683.2 1689.67
3702.11 1669.97 1650.56
3705.02 1742.4 1735.28
3707.94 1704.42 1693.06
3710.85 1767.4 1771.48
3713.77 1843.13 1837.66
3716.69 1661.46 1630.06
3719.6 1776.93 1780.69
3722.52 1774.18 1784.63
3725.44 1935.41 1959.13
3728.35 1858.51 1833.18
3731.27 1637.11 1643.22
3734.18 1754.06 1768.75
3737.1 2011.53 2030.09
3740.02 2051.56 2042.58
3742.93 1949.45 1942.03
3745.85 1739.7 1719.78
3748.76 1777.29 1821.28
3751.68 1934.6 1938.99
3754.6 2036.9 2025.37
3757.51 2170.01 2168.02
3760.43 2127.79 2081.31
3763.34 2094.44 2081.55
3766.26 1863.58 1855.47
3769.18 1849.89 1872.03
3772.09 2029.14 2048.71
3775.01 2289.16 2331.09
3777.92 2482.16 2480.85
3780.84 2439.17 2420.57
3783.75 2578.17 2549.71
3786.67 2524.93 2550.77
3789.59 2419.73 2412.39
3792.5 2194.83 2206.47
3795.42 1963.94 1983.92
3798.33 2103.15 2135.09
3801.25 2314.94 2327.4
3804.16 2475.92 2475.6
3807.08 2612.55 2599.1
3810 2791.58 2766.2
3812.91 2839.61 2802.3
3815.83 2927.55 2933.7
3818.74 2929.42 2931.56
3821.66 2739.7 2730.17
3824.57 2569.72 2570.25
3827.49 2330.58 2314.37
3830.4 2085.21 2065.19
3833.32 1923.73 1935.11
3836.24 1965.2 2004.13
3839.15 2091.14 2132.07
3842.07 2428.55 2444.73
3844.98 2558.41 2565.16
3847.9 2650.9 2627.95
3850.81 2795.69 2791.78
3853.73 2949.33 2928.64
3856.64 3066.84 3057.6
3859.56 3143.9 3152.33
3862.47 3081.96 3068.6
3865.39 3169.82 3145.36
3868.3 3142.89 3130.15
3871.22 2992.48 2957.4
3874.13 2858.71 2858.37
3877.05 2739.14 2728.2
3879.96 2548.48 2548.49
3882.88 2260.71 2247.88
3885.79 1983.53 1981.89
3888.71 1963.6 2004.62
3891.62 2042.98 2078.66
3894.54 2258.46 2293.41
3897.45 2369.27 2382.91
3900.37 2514.93 2511.77
3903.28 2617.89 2616.18
3906.2 2807.65 2794.32
3909.11 3025.77 3019.05
3912.03 3042.66 3027.14
3914.94 3066.85 3085.04
3917.86 3151.97 3166.39
3920.77 3287.39 3287.66
3923.69 3319.92 3308.56
3926.6 3194.6 3162.89
3929.52 2865.08 2847.38
3932.43 2816.42 2842.48
3935.35 3015.34 3030.34
3938.26 3093.62 3073.42
3941.18 3129.07 3131.2
3944.09 3047.58 3052.78
3947 3016.31 3019.39
3949.92 3002.77 2991.39
3952.83 2962.65 2951.99
3955.75 2946.04 2959.26
3958.66 2814.31 2797.08
3961.58 2564.42 2553.4
3964.49 2225.61 2198.07
3967.41 1887.05 1895.47
3970.32 1947.6 1978.16
3973.23 2165.18 2199.3
3976.15 2321.99 2339.42
3979.06 2492.32 2501.2
3981.98 2636.81 2641.5
3984.89 2849.35 2856.73
3987.8 2981.53 2975.31
3990.72 3076.18 3077
3993.63 3104.26 3100.21
3996.55 3241.9 3226.86
3999.46 3302.28 3296.51
4002.37 3382.66 3385.37
4005.29 3424.3 3440
4008.2 3531.56 3536.49
4011.12 3572.33 3564.15
4014.03 3662.1 3667.95
4016.94 3707.27 3701.72
4019.86 3616.58 3595.62
4022.77 3662.42 3652.47
4025.69 3755.17 3746.07
4028.6 3582.59 3574.97
4031.51 3555.66 3564.54
4034.43 3672.7 3683.31
4037.34 3697.8 3700.99
4040.25 3594.92 3583.5
4043.17 3546.79 3546.01
4046.08 3589.44 3600.27
4048.99 3578.14 3583.31
4051.91 3527.47 3521.17
4054.82 3569.16 3569.27
4057.74 3563.49 3563.24
4060.65 3468.14 3467.85
4063.56 3488.51 3489.94
4066.48 3432.15 3437.8
4069.39 3371.11 3355.43
4072.3 3226.88 3210.84
4075.22 3022.23 3010.92
4078.13 3004.49 3017.97
4081.04 3023.28 3015.73
4083.95 3011.56 3019.53
4086.87 3027.41 3028.5
4089.78 2991.54 2991.02
4092.69 2825.25 2794.35
4095.61 2515.15 2489.75
4098.52 2216.74 2192.22
4101.43 2137.85 2148.48
4104.35 2219.51 2243.24
4107.26 2384.07 2409.92
4110.17 2552.46 2581.82
4113.08 2718.56 2740.53
4116 2766.85 2758.07
4118.91 2888.79 2886.9
4121.82 2934.02 2939.61
4124.73 3019.49 3007.58
4127.65 3010.78 3009.53
4130.56 3069.98 3080.13
4133.47 3197.9 3208.6
4136.39 3364.08 3376.44
4139.3 3418.81 3412.45
4142.21 3347.32 3337.78
4145.12 3432.88 3447.98
4148.04 3490.94 3484.63
4150.95 3415.97 3401.17
4153.86 3441.99 3438.79
4156.77 3529.04 3546.33
4159.68 3520.05 3524.56
4162.6 3567.6 3573.21
4165.51 3583.48 3587.14
4168.42 3542.57 3536.83
4171.33 3445.91 3441.95
4174.25 3422.51 3409.8
4177.16 3392.42 3391.1
4180.07 3447.59 3450.57
4182.98 3408.25 3398.14
4185.89 3420.02 3431.01
4188.8 3449.35 3461.93
4191.72 3419.66 3415.36
4194.63 3373.64 3365.38
4197.54 3329.88 3313.86
4200.45 3293.55 3283.26
4203.36 3358.18 3351.98
4206.28 3438.67 3462.71
4209.19 3502.91 3504.51
4212.1 3453.32 3447.46
4215.01 3432.13 3421.75
4217.92 3472.94 3476.74
4220.83 3460.16 3438.02
4223.74 3321.54 3311.77
4226.66 3371.14 3375.06
4229.57 3444.43 3444.04
4232.48 3376.17 3363.88
4235.39 3323.32 3319.2
4238.3 3340.17 3348.09
4241.21 3395.75 3392.91
4244.12 3396.7 3387.92
4247.03 3376.9 3379.54
4249.95 3416.83 3428.06
4252.86 3431.46 3429.39
4255.77 3469.96 3465.06
4258.68 3430.71 3431.74
4261.59 3525.15 3536.29
4264.5 3598.07 3615.93
4267.41 3507.33 3503.07
4270.32 3417.4 3419.66
4273.23 3456.72 3473.2
4276.14 3544.49 3559.49
4279.05 3533.96 3541.51
4281.96 3528.86 3526.88
4284.88 3497.56 3506.39
4287.79 3478.61 3475.89
4290.7 3457.38 3453.41
4293.61 3442.91 3447.57
4296.52 3336.35 3323.77
4299.43 3213.2 3215.8
4302.34 3201.53 3206.62
4305.25 3191.5 3190.34
4308.16 3221.24 3226.6
4311.07 3244.34 3249.11
4313.98 3256.4 3259.02
4316.89 3305.77 3305.72
4319.8 3275.04 3278.74
4322.71 3188.44 3185.57
4325.62 3095.87 3089.05
4328.53 2945.31 2932.44
4331.44 2802.38 2782.39
4334.35 2537.29 2504.23
4337.26 2211.97 2179.04
4340.17 2059.84 2046.39
4343.08 2164.27 2180.36
4345.99 2327.85 2345.75
4348.9 2427.4 2445.49
4351.81 2559.75 2580.2
4354.72 2742.28 2761.35
4357.63 2835.64 2853.99
4360.54 2958.89 2971.45
4363.45 3066.86 3071.69
4366.35 3164.85 3163.53
4369.26 3217.37 3216.63
4372.17 3249.32 3243.91
4375.08 3289.48 3287.68
4377.99 3376.54 3375.38
4380.9 3315.71 3302.31
4383.81 3236.58 3227.13
4386.72 3300.65 3295.82
4389.63 3280.9 3268.29
4392.54 3327.73 3318.98
4395.45 3321.58 3326.26
4398.35 3312.29 3304.22
4401.26 3373.1 3370.22
4404.17 3375.87 3371.24
4407.08 3373.64 3367.85
4409.99 3390.99 3395.65
4412.9 3362.33 3362.91
4415.81 3367.39 3370.42
4418.72 3361.26 3365.5
4421.62 3435.39 3436.04
4424.53 3427.13 3427.69
4427.44 3366.87 3361.69
4430.35 3368.76 3373.34
4433.26 3379.14 3390.3
4436.17 3451.24 3468.07
4439.07 3481.37 3477.59
4441.98 3380.46 3373.87
4444.89 3358.15 3362.88
4447.8 3357.97 3362.47
4450.71 3338.57 3340.42
4453.61 3362.86 3359.84
4456.52 3352.77 3354.74
4459.43 3328.58 3326.71
4462.34 3250.51 3244.8
4465.25 3240.06 3236.79
4468.15 3215.76 3221.77
4471.06 3307.14 3312.93
4473.97 3396.85 3406.88
4476.88 3377.4 3376.12
4479.78 3295.58 3295.17
4482.69 3309.46 3313.79
4485.6 3370.13 3370.18
4488.51 3352.28 3352.78
4491.41 3373.49 3380.49
4494.32 3397 3395.65
4497.23 3418.1 3412.36
4500.13 3433.39 3436.24
4503.04 3526.06 3521.59
4505.95 3492.67 3484.75
4508.86 3517.3 3504.15
4511.76 3522.54 3513.25
4514.67 3478.16 3465.82
4517.58 3399.67 3379.78
4520.48 3318.73 3310.95
4523.39 3253.5 3247.07
4526.3 3235.25 3229.53
4529.2 3248.4 3239.77
4532.11 3292.37 3293.47
4535.02 3296.71 3310.4
4537.92 3307.33 3304.54
4540.83 3301.31 3316.34
4543.74 3335.25 3342.78
4546.64 3299.02 3303.64
4549.55 3227.43 3241.59
4552.45 3142.3 3142.64
4555.36 3118.5 3119.24
4558.27 3153.71 3165.18
4561.17 3189.37 3197.67
4564.08 3264.92 3282.17
4566.98 3300.63 3324.3
4569.89 3303.15 3312.32
4572.8 3304.54 3325.6
4575.7 3339.71 3364.39
4578.61 3307.22 3321.53
4581.51 3298.45 3309.2
4584.42 3293.27 3305
4587.32 3296.54 3298.22
4590.23 3293.53 3290.22
4593.14 3262.17 3253.87
4596.04 3314.84 3299.17
4598.95 3347.43 3325.81
4601.85 3333.31 3302.63
4604.76 3337.92 3306.53
4607.66 3375.26 3331.3
4610.57 3394.99 3347.89
4613.47 3421.94 3355.98
4616.38 3367.5 3290.26
4619.28 3381.03 3283.84
4622.19 3443.52 3338.16
4625.09 3445.94 3325.17
4628 3409.35 3273.88
4630.9 3168.41 3326.25
4633.81 3123.19 3258.2
4636.71 3144.52 3272.65
4639.61 3159.97 3276.61
4642.52 3187.69 3297.23
4645.42 3174.81 3264
4648.33 3153.05 3231.11
4651.23 3218.37 3278.91
4654.14 3173.32 3220.97
4657.04 3216.91 3255.23
4659.94 3233.79 3255.68
4662.85 3217.3 3226.55
4665.75 3147.71 3150.75
4668.66 3110.12 3114.53
4671.56 3182.34 3173.39
4674.46 3231.7 3216.65
4677.37 3248.16 3221.89
4680.27 3231.44 3199.95
4683.18 3242.96 3211.54
4686.08 3278.66 3242.14
4688.98 3272.42 3235.17
4691.89 3275.62 3235.44
4694.79 3310.38 3274.29
4697.69 3303.5 3269.09
4700.6 3246.1 3208.14
4703.5 3201.25 3171.46
4706.4 3225.77 3196.2
4709.31 3237.51 3215.99
4712.21 3226.1 3199.57
4715.11 3223.31 3197.64
4718.01 3268.64 3250.3
4720.92 3282.24 3268.44
4723.82 3267.27 3256.92
4726.72 3220.61 3216
4729.63 3207.94 3206.82
4732.53 3227.85 3230.96
4735.43 3176.45 3178.36
4738.33 3198.5 3203.44
4741.24 3180.37 3191.15
4744.14 3182.81 3194.03
4747.04 3166.45 3183.42
4749.94 3186.61 3198.31
4752.85 3157.49 3173.46
4755.75 3151.71 3171.81
4758.65 3134.26 3148.64
4761.55 3113.87 3131.66
4764.45 3094.17 3111.3
4767.36 3093.21 3113.52
4770.26 3107.48 3125.87
4773.16 3108.17 3122.89
4776.06 3112.46 3125.33
4778.96 3132.46 3142.61
4781.86 3076 3086.34
4784.76 3062.15 3069.06
4787.67 3011.79 3020.59
4790.57 3027.62 3033.31
4793.47 3014.97 3026.4
4796.37 3021.57 3026.02
4799.27 3015.87 3013.35
4802.17 3006.83 3010.02
4805.07 2962.74 2961.25
4807.97 2939.58 2931.07
4810.88 2942.84 2941.5
4813.78 2970.76 2965.69
4816.68 2985.95 2979.12
4819.58 2921.62 2911.29
4822.48 2869.42 2862.37
4825.38 2859.59 2856.86
4828.28 2836.92 2833.52
4831.18 2862.36 2853.94
4834.08 2840.33 2830.03
4836.98 2835 2823.65
4839.88 2804.62 2792.92
4842.78 2727.65 2714.31
4845.68 2657.78 2649.8
4848.58 2594.93 2587.92
4851.48 2462.4 2454.81
4854.38 2262.32 2256.99
4857.28 2035.9 2036.01
4860.18 1803.76 1807.16
4863.08 1795.19 1800.99
4865.98 1935.95 1942.16
4868.88 2117.48 2119.29
4871.78 2244.11 2243.71
4874.68 2367.46 2365.37
4877.58 2519.98 2518.25
4880.48 2623.51 2624.83
4883.38 2649.12 2650.8
4886.27 2745.78 2744.77
4889.17 2774.78 2777.48
4892.07 2848.81 2851.46
4894.97 2918.85 2927.1
4897.87 2950.94 2951.81
4900.77 2958.12 2961.79
4903.67 3001.68 3006.88
4906.57 3026.55 3032.9
4909.47 3021.17 3024.68
4912.36 3013.32 3018.37
4915.26 3012.42 3010.49
4918.16 2894.97 2896.92
4921.06 2845.95 2847.15
4923.96 2869.89 2877.36
4926.86 2943.02 2946.97
4929.75 2973.07 2976.21
4932.65 2907.51 2903.97
4935.55 2858.34 2858.8
4938.45 2896.66 2899.71
4941.35 2945.46 2947.65
4944.24 2938.2 2941.18
4947.14 2987.53 2986.37
4950.04 2969.71 2965.75
4952.94 2930.22 2933.39
4955.83 2923.9 2922.27
4958.73 2908.5 2909.53
4961.63 2954.78 2952.97
4964.52 2945.05 2944.04
4967.42 2909.78 2906.24
4970.32 2913.92 2913.03
4973.22 2922.93 2917.91
4976.11 2943.71 2941.09
4979.01 2879.43 2879.43
4981.91 2755.78 2750.17
4984.8 2743.55 2743.96
4987.7 2790.17 2790.56
4990.6 2826.19 2824.56
4993.49 2874.66 2874.53
4996.39 2845.44 2844.19
4999.29 2818.81 2814.95
5002.18 2795.81 2799.48
5005.08 2782.98 2780.82
5007.97 2825.51 2823.65
5010.87 2832.87 2833.51
5013.77 2789.84 2788.05
5016.66 2770.8 2770.26
5019.56 2794.57 2794.55
5022.45 2856.58 2856.79
5025.35 2870.97 2873.31
5028.24 2895.65 2897.66
5031.14 2926.17 2926.44
5034.04 2902.56 2900.68
5036.93 2864.97 2865.76
5039.83 2835.92 2834.22
5042.72 2870.96 2874.1
5045.62 2906.42 2911.27
5048.51 2866.56 2864.44
5051.41 2883.02 2884.07
5054.3 2927.16 2925.8
5057.2 2919.28 2921.49
5060.09 2982.63 2984.26
5062.99 2930.77 2928.75
5065.88 2929.8 2927.95
5068.77 2894.36 2892.69
5071.67 2859.96 2860.49
5074.56 2801.34 2807.99
5077.46 2755.97 2754.91
5080.35 2729.07 2729.63
5083.25 2737.32 2742.17
5086.14 2765.8 2762.98
5089.03 2793.45 2792.85
5091.93 2802.48 2801.39
5094.82 2827.2 2829.34
5097.72 2751.64 2751.2
5100.61 2761.45 2760.38
5103.5 2772.31 2770.73
5106.4 2777.09 2779.48
5109.29 2760.99 2762.92
5112.18 2783.51 2783.43
5115.08 2774.24 2773.14
5117.97 2775.69 2775.51
5120.86 2728.26 2729.53
5123.76 2663.75 2662.44
5126.65 2685.69 2686.97
5129.54 2701.94 2701.53
5132.43 2691.94 2692.48
5135.33 2692.59 2688.99
5138.22 2696.52 2694.78
5141.11 2691.52 2690.74
5144 2709.56 2705.9
5146.9 2727.85 2729.09
5149.79 2739.57 2739.31
5152.68 2727.24 2727.52
5155.57 2733.28 2734.2
5158.47 2739.5 2738.47
5161.36 2724.35 2720.68
5164.25 2670.08 2670.18
5167.14 2592.78 2590.8
5170.03 2568.23 2569.66
5172.92 2606.16 2606.59
5175.82 2680.57 2682.02
5178.71 2706.4 2706.74
5181.6 2679.16 2675.56
5184.49 2634.73 2638.73
5187.38 2623.63 2621.63
5190.27 2593.24 2596.38
5193.16 2613.95 2614.41
5196.05 2576.16 2575.73
5198.94 2586.67 2589.33
5201.84 2568.75 2572.42
5204.73 2527.26 2526.74
5207.62 2568.07 2572.89
5210.51 2641.71 2643.52
5213.4 2650.51 2652.61
5216.29 2631.35 2632.79
5219.18 2684.77 2686.02
5222.07 2688.9 2686.27
5224.96 2631.79 2625.47
5227.85 2569.65 2563.58
5230.74 2587.09 2583.89
5233.63 2563.25 2555.76
5236.52 2600.58 2599.96
5239.41 2659.56 2657.21
5242.3 2699.49 2700.21
5245.19 2667.84 2669.95
5248.08 2663.43 2666.88
5250.97 2653.9 2656.16
5253.85 2647.71 2651.1
5256.74 2643.86 2648.7
5259.63 2637.61 2641.43
5262.52 2581.19 2584.96
5265.41 2548.11 2551.21
5268.3 2479.36 2480.58
5271.19 2472.51 2477.39
5274.08 2471.87 2473.21
5276.97 2517.95 2515.74
5279.85 2534.92 2529.15
5282.74 2555.53 2549.12
5285.63 2586.31 2580.26
5288.52 2629.01 2625.52
5291.41 2616.25 2611.29
5294.3 2623.9 2620.47
5297.18 2632.69 2629.94
5300.07 2600.81 2602.27
5302.96 2603.48 2607.55
5305.85 2632.05 2635.15
5308.73 2645.34 2649.63
5311.62 2625.02 2625.73
5314.51 2587.23 2588.44
5317.4 2591.99 2591.1
5320.28 2573.27 2572.05
5323.17 2534.46 2534.25
5326.06 2514.89 2515.94
5328.94 2472.89 2471.21
5331.83 2553.63 2553.87
5334.72 2554.93 2554.72
5337.6 2528.59 2532.05
5340.49 2531.3 2530.78
5343.38 2560.18 2561.75
5346.26 2578.32 2580.4
5349.15 2597.07 2595.69
5352.04 2612.09 2611.78
5354.92 2634.54 2633.94
5357.81 2613.42 2611.33
5360.69 2599.66 2597.56
5363.58 2539.51 2537.12
5366.47 2498.15 2500.91
5369.35 2486 2485.83
5372.24 2503.95 2507.06
5375.12 2550.52 2552.65
5378.01 2555.98 2553.91
5380.89 2536.16 2536.48
5383.78 2534.34 2534.96
5386.66 2525.73 2526.72
5389.55 2555.48 2555.92
5392.43 2523.69 2524.23
5395.32 2520.9 2522
5398.2 2486.93 2487.38
5401.09 2470.26 2465.64
5403.97 2434.01 2432.03
5406.86 2419.07 2417.42
5409.74 2416.06 2417.35
5412.63 2444.11 2444.97
5415.51 2485.05 2485.46
5418.39 2489.26 2492.93
5421.28 2502.8 2503.35
5424.16 2470.54 2467.37
5427.05 2469.53 2471.26
5429.93 2472.97 2474.47
5432.81 2464.92 2465.97
5435.7 2506.4 2507.11
5438.58 2536.26 2535.06
5441.46 2535.21 2534.55
5444.35 2501.47 2500.58
5447.23 2473.74 2473.83
5450.11 2513.9 2511.85
5453 2501.37 2499.68
5455.88 2481.15 2480.61
5458.76 2496.38 2496.27
5461.64 2472.96 2470.71
5464.53 2480.36 2479.65
5467.41 2505.93 2508.13
5470.29 2473.7 2472.51
5473.17 2421.87 2421.29
5476.06 2399.73 2399.3
5478.94 2406.09 2403.33
5481.82 2439.35 2440.21
5484.7 2473.36 2473.74
5487.58 2477.74 2475.99
5490.46 2483.98 2484.91
5493.35 2507.33 2506.82
5496.23 2470.59 2472.35
5499.11 2440.69 2441.16
5501.99 2447.56 2448.57
5504.87 2454.94 2454.49
5507.75 2437.67 2437.3
5510.63 2423.15 2422.69
5513.51 2439.77 2442.34
5516.4 2470.07 2472.3
5519.28 2463.59 2463.28
5522.16 2451.83 2451.33
5525.04 2443.77 2444.73
5527.92 2426.9 2429.09
5530.8 2444.7 2445.2
5533.68 2417.49 2417.84
5536.56 2434.38 2436.71
5539.44 2458.72 2458.5
5542.32 2423.07 2427.09
5545.2 2391.8 2394.21
5548.08 2419.55 2419.39
5550.96 2435.58 2435.94
5553.84 2457.91 2458.55
5556.72 2427.04 2427.75
5559.6 2443.48 2443.21
5562.47 2422.87 2423.88
5565.35 2420.5 2421.14
5568.23 2415.71 2413.91
5571.11 2397.81 2399.66
5573.99 2392.91 2397.57
5576.87 2408.87 2411.09
5579.75 2418.68 2419.4
5582.63 2408.62 2407.48
5585.5 2378.18 2372.52
5588.38 2385.36 2380.71
5591.26 2380.18 2371.39
5594.14 2367.04 2364.79
5597.02 2393.02 2389.51
5599.89 2363.9 2357.89
5602.77 2381.48 2377.94
5605.65 2397.29 2397.31
5608.53 2388.28 2386.58
5611.4 2394.83 2392.21
5614.28 2373.04 2368.76
5617.16 2360.31 2358.38
5620.04 2356.02 2353.54
5622.91 2354.64 2351.8
5625.79 2358.72 2359.21
5628.67 2381.38 2379.01
5631.54 2385.73 2383.64
5634.42 2366.69 2366.34
5637.3 2354.32 2352.94
5640.17 2342.65 2342.75
5643.05 2350.89 2351.8
5645.93 2352 2354.54
5648.8 2343.77 2344.66
5651.68 2357.68 2361.35
5654.55 2332.34 2335.36
5657.43 2286.34 2288.67
5660.3 2277.66 2280.97
5663.18 2254.19 2259.36
5666.06 2275.38 2280.47
5668.93 2310.36 2316.26
5671.81 2313.07 2321.86
5674.68 2336.51 2341.81
5677.56 2314.41 2322.65
5680.43 2300.35 2306.61
5683.31 2283.72 2289.61
5686.18 2260.22 2270.28
5689.06 2261.07 2268.45
5691.93 2285.12 2291.47
5694.8 2284.89 2291.57
5697.68 2281.19 2286.89
5700.55 2273.62 2280.45
5703.43 2273.14 2277.44
5706.3 2249.73 2254.82
5709.17 2238.19 2244.85
5712.05 2253.66 2256.23
5714.92 2265.86 2267.08
5717.8 2264.83 2267.57
5720.67 2286.1 2285.17
5723.54 2303.18 2302.93
5726.41 2279.18 2274.62
5729.29 2288.34 2280.76
5732.16 2299.55 2289.51
5735.03 2277.8 2264.24
5737.91 2299.6 2283.98
5740.78 2292.88 2272.95
5743.65 2295.67 2270.93
5746.52 2274.29 2248.48
5749.4 2287.15 2255
5752.27 2290.47 2255.53
5755.14 2282.06 2241.5
5758.01 2298.07 2252.66
5760.88 2284.54 2234.74
5763.76 2296.84 2240.44
5766.63 2294.11 2230.76
5769.5 2309.86 2240.67
5772.37 2313.8 2235.2
5775.24 2140.33 2245.65
5778.11 2141.31 2238.83
5780.98 2133.84 2219.96
5783.86 2134.23 2217.22
5786.73 2139.32 2212.08
5789.6 2173.48 2237.21
5792.47 2178.24 2233.33
5795.34 2176 2223.42
5798.21 2191.07 2231.92
5801.08 2202.43 2236.04
5803.95 2189.78 2220.17
5806.82 2187.44 2207.93
5809.69 2211.74 2226.19
5812.56 2233.66 2238.73
5815.43 2225.67 2225.6
5818.3 2245.15 2242.74
5821.17 2226.02 2221.18
5824.04 2261.28 2247.03
5826.91 2240.22 2220.17
5829.77 2239.22 2220.88
5832.64 2261.51 2236.49
5835.51 2262.5 2236.58
5838.38 2246.86 2219.13
5841.25 2258.74 2236.31
5844.12 2250.76 2225.55
5846.99 2231.05 2205.52
5849.86 2243.08 2214.14
5852.72 2164.91 2143.25
5855.59 2178.35 2158.04
5858.46 2186.32 2166.58
5861.33 2185.72 2168.18
5864.2 2207.68 2189.08
5867.06 2212.59 2192.3
5869.93 2219.75 2204.34
5872.8 2228.51 2212.15
5875.67 2223.19 2214.93
5878.53 2199.08 2195.91
5881.4 2187.29 2186.22
5884.27 2172.2 2173.74
5887.13 2116.79 2121.75
5890 2050.65 2060.09
5892.87 2055.1 2067.79
5895.73 2066.52 2072.52
5898.6 2108.73 2116.64
5901.47 2124.74 2131.87
5904.33 2140.76 2148.41
5907.2 2136.67 2147.08
5910.06 2143.16 2153.96
5912.93 2132.33 2149.73
5915.79 2129.48 2143.25
5918.66 2148.53 2162.23
5921.53 2136.8 2148.72
5924.39 2137.96 2147.8
5927.26 2144.11 2154.26
5930.12 2108.23 2118.2
5932.99 2112.63 2120.68
5935.85 2128.48 2138.1
5938.72 2138.58 2145.9
5941.58 2134.22 2140.49
5944.44 2119.51 2123.26
5947.31 2110.94 2115.03
5950.17 2124.97 2124.95
5953.04 2108.13 2110.87
5955.9 2116.97 2119.96
5958.76 2125.25 2121.98
5961.63 2131.05 2129.55
5964.49 2109.18 2101.9
5967.36 2114.68 2109.91
5970.22 2133.08 2126.9
5973.08 2109.46 2107.57
5975.95 2107.79 2104.65
5978.81 2080.18 2074.3
5981.67 2074.68 2069.92
5984.53 2088.21 2078.31
5987.4 2062.7 2057.81
5990.26 2088.31 2079.42
5993.12 2098.15 2090.67
5995.98 2086.57 2076.31
5998.85 2100.68 2094.25
6001.71 2092.31 2090.34
6004.57 2064.91 2060.51
6007.43 2064.93 2062.51
6010.29 2066.81 2063.15
6013.15 2047.17 2044.94
6016.02 2051.98 2050.89
6018.88 2046.82 2044.64
6021.74 2029.45 2030.6
6024.6 2033.41 2034.81
6027.46 2045.62 2043.33
6030.32 2050.71 2048.28
6033.18 2046.11 2045.13
6036.04 2053.51 2053.08
6038.9 2053.23 2058.07
6041.76 2044.63 2046.71
6044.62 2033.23 2034.85
6047.48 2046.13 2050.4
6050.34 2034.27 2038.12
6053.2 2041.69 2044.51
6056.06 2039.69 2040.51
6058.92 2055.58 2061.99
6061.78 2036.08 2040.24
6064.64 2024.9 2027.19
6067.5 2030.06 2033.21
6070.36 2046.14 2049.97
6073.22 2038.1 2038.91
6076.08 2028.37 2033.9
6078.93 1997.04 2000.7
6081.79 2007.66 2007.61
6084.65 2009.76 2011.33
6087.51 2003.39 2007.29
6090.37 2005.55 2006.52
6093.23 1997.62 1998.51
6096.08 2008.12 2007.44
6098.94 2003.41 2002.67
6101.8 1988.45 1987.99
6104.66 1982.08 1983
6107.51 1984.62 1983.93
6110.37 1995.78 1992.97
6113.23 1980.18 1978.61
6116.09 1993.56 1992.29
6118.94 1992.51 1990.48
6121.8 1992.14 1987.43
6124.66 1976.54 1972.38
6127.51 1959.91 1959.76
6130.37 1967.46 1965.94
6133.22 1960.73 1962.44
6136.08 1929.71 1930.58
6138.94 1890.38 1893.53
6141.79 1889.13 1887
6144.65 1892.11 1890.45
6147.5 1920.5 1917.62
6150.36 1915.75 1915.09
6153.21 1924.83 1921.34
6156.07 1937.89 1933.56
6158.92 1932.73 1930.54
6161.78 1930.59 1929.04
6164.63 1943.27 1942.22
6167.49 1927.66 1929.32
6170.34 1934.39 1932.96
6173.2 1919.95 1920.14
6176.05 1914.52 1916.11
6178.91 1913.8 1913.58
6181.76 1942.15 1943.83
6184.61 1935.97 1933.67
6187.47 1914.02 1913.88
6190.32 1911.55 1914.13
6193.17 1917.42 1918.61
6196.03 1934.23 1936.7
6198.88 1929.95 1931.62
6201.73 1938.84 1936.22
6204.59 1920.6 1923.75
6207.44 1928.72 1931.2
6210.29 1928.65 1928.3
6213.14 1926.93 1927
6216 1918.28 1919.38
6218.85 1924.53 1925
6221.7 1908.79 1913.27
6224.55 1904.29 1905.12
6227.41 1915.27 1916.39
6230.26 1899.46 1899.83
6233.11 1875.18 1877.6
6235.96 1892.67 1895.47
6238.81 1860.89 1862.91
6241.66 1874.02 1872.72
6244.51 1861.03 1861.07
6247.36 1837.77 1839.32
6250.21 1852.52 1850.46
6253.07 1847.04 1844.23
6255.92 1856.86 1854.79
6258.77 1866.81 1864.06
6261.62 1857.53 1854.5
6264.47 1858.52 1857.56
6267.32 1877.43 1875
6270.17 1854.27 1853.05
6273.02 1859.28 1857.12
6275.87 1834.69 1832.3
6278.71 1828.2 1830.74
6281.56 1837.65 1835.29
6284.41 1826.35 1825.5
6287.26 1832.65 1832.42
6290.11 1830.83 1829.52
6292.96 1847.66 1848.35
6295.81 1840.69 1847.08
6298.66 1803.54 1814.94
6301.51 1803.77 1807.55
6304.35 1822.13 1824.71
6307.2 1829.06 1825.41
6310.05 1834.58 1830.73
6312.9 1811.03 1806.07
6315.74 1798.39 1795.28
6318.59 1813.59 1810.74
6321.44 1800.91 1799.16
6324.29 1823.21 1822.79
6327.13 1819.84 1817.3
6329.98 1821.56 1821.79
6332.83 1821.82 1820.63
6335.67 1801.09 1801.07
6338.52 1800.43 1801.57
6341.37 1810.9 1814.37
6344.21 1789.7 1790.49
6347.06 1799.85 1801.4
6349.9 1816.89 1818.44
6352.75 1812.71 1813.07
6355.6 1826.27 1825.37
6358.44 1815.32 1816.65
6361.29 1815.4 1819.63
6364.13 1829.69 1831.02
6366.98 1816.97 1817.61
6369.82 1788.91 1789
6372.67 1800.38 1801.72
6375.51 1823.91 1822.78
6378.36 1822.85 1822.16
6381.2 1798.97 1799.46
6384.04 1814.27 1814.82
6386.89 1805.56 1804.28
6389.73 1803.4 1802.32
6392.58 1793.44 1791.74
6395.42 1800.2 1800.24
6398.26 1790.51 1789.69
6401.11 1819.22 1817.25
6403.95 1805.03 1804.49
6406.79 1810.52 1807.81
6409.64 1776.01 1774.89
6412.48 1787.65 1788.67
6415.32 1773.42 1774.93
6418.16 1778.19 1778.39
6421.01 1777.66 1774.45
6423.85 1775.73 1772.98
6426.69 1766.73 1766.85
6429.53 1768.74 1768.72
6432.37 1761.7 1761.97
6435.22 1780.26 1781.74
6438.06 1785.13 1782.36
6440.9 1765.95 1768.86
6443.74 1786.43 1783.85
6446.58 1777 1777.88
6449.42 1765.14 1764.17
6452.26 1753.18 1754.85
6455.1 1741.93 1743.73
6457.94 1748.23 1748.76
6460.78 1743.34 1746.43
6463.62 1739.64 1744.25
6466.46 1760.63 1762.1
6469.3 1751.02 1750.04
6472.14 1759.38 1759.49
6474.98 1756.98 1757.19
6477.82 1738.24 1737.68
6480.66 1720.31 1721.88
6483.5 1747.31 1744.72
6486.34 1723.99 1722.3
6489.18 1726.25 1726.21
6492.02 1678.03 1680.85
6494.86 1620.93 1625.45
6497.7 1644.2 1644.46
6500.53 1694.58 1693.2
6503.37 1689.21 1687.49
6506.21 1706.01 1703.31
6509.05 1709.09 1706.41
6511.89 1690.82 1691.02
6514.72 1670.45 1672.76
6517.56 1674.54 1676.01
6520.4 1677.93 1677.85
6523.23 1683.93 1684.56
6526.07 1667.23 1666.05
6528.91 1663.41 1662.09
6531.75 1650.85 1649.16
6534.58 1634.87 1631.52
6537.42 1629.23 1627.3
6540.25 1618.62 1616.98
6543.09 1560.37 1559.65
6545.93 1527.26 1533.33
6548.76 1505.8 1505.38
6551.6 1452.13 1453.19
6554.43 1376.69 1378.66
6557.27 1250.93 1254.47
6560.1 1097.34 1103.03
6562.94 1052.61 1055.52
6565.77 1127.81 1124.63
6568.61 1233.24 1224.71
6571.44 1341.24 1330.03
6574.28 1413.26 1404.17
6577.11 1483.44 1476.58
6579.94 1511.49 1503.94
6582.78 1532.17 1526.76
6585.61 1569.97 1565.35
6588.45 1584.49 1582.12
6591.28 1594.25 1590.27
6594.11 1603.85 1601.18
6596.95 1629.02 1623
6599.78 1630.05 1626.36
6602.61 1642.93 1639.94
6605.44 1652.98 1650.35
6608.28 1642.59 1638.69
6611.11 1633.98 1632.23
6613.94 1651.11 1646.62
6616.77 1649.7 1646.46
6619.61 1663.98 1660.29
6622.44 1671.67 1667.76
6625.27 1655.16 1650.35
6628.1 1655.74 1653.3
6630.93 1637.29 1636.27
6633.76 1633.68 1631.4
6636.59 1645.72 1646.27
6639.42 1651.64 1652.71
6642.26 1660.37 1660.84
6645.09 1637.06 1638.29
6647.92 1643.78 1645.53
6650.75 1643.76 1644.53
6653.58 1650.91 1651.7
6656.41 1656.37 1659.31
6659.24 1669.92 1672.31
6662.07 1658.64 1658.94
6664.9 1659.61 1662.23
6667.72 1647.67 1652.27
6670.55 1656.84 1662.36
6673.38 1649.22 1654.09
6676.21 1623.53 1626.08
6679.04 1638.54 1643.54
6681.87 1641.51 1645.33
6684.7 1646.56 1651.23
6687.53 1644 1649.67
6690.35 1640.5 1646.44
6693.18 1659.27 1664.77
6696.01 1661.51 1667.28
6698.84 1647.11 1650.44
6701.66 1635.56 1639.69
6704.49 1636.46 1642.68
6707.32 1643.61 1646.7
6710.14 1639.44 1643.09
6712.97 1637.53 1641.9
6715.8 1646.27 1649.39
6718.62 1633.63 1633.83
6721.45 1628.67 1630.79
6724.28 1640.79 1643.49
6727.1 1644.47 1642.69
6729.93 1640.79 1639.09
6732.75 1637.35 1635.62
6735.58 1643.26 1638.84
6738.41 1648.37 1642.42
6741.23 1624.4 1618.63
6744.06 1642.29 1632.91
6746.88 1623.33 1613.2
6749.7 1642.14 1629.32
6752.53 1630.84 1617.38
6755.35 1629.11 1611.94
6758.18 1636.33 1618.45
6761 1642.71 1619.91
6763.83 1634.84 1608.54
6766.65 1647.33 1617.13
6769.47 1631.1 1599.43
6772.3 1644.36 1607.81
6775.12 1636.45 1597.26
6777.94 1642.07 1599.13
6780.77 1671.33 1622.36
6783.59 1649.62 1597.76
6786.41 1529.36 1601.99
6789.23 1521.51 1584.66
6792.06 1514.47 1576.73
6794.88 1512.25 1568.71
6797.7 1521.25 1574.37
6800.52 1520.07 1566.94
6803.34 1539.06 1578.72
6806.16 1533.57 1569.97
6808.99 1531.94 1563.72
6811.81 1530.68 1558.07
6814.63 1520.19 1543.84
6817.45 1543.06 1561.03
6820.27 1531.33 1540.39
6823.09 1527.17 1530.27
6825.91 1533.24 1539.14
6828.73 1538.7 1538.18
6831.55 1552.84 1551.32
6834.37 1543.25 1535.39
6837.19 1530.2 1522.51
6840.01 1513.53 1502.76
6842.83 1527.74 1508.17
6845.65 1532.63 1514.76
6848.47 1527.59 1503.25
6851.28 1521.63 1500.56
6854.1 1510.89 1491.71
6856.92 1527.28 1496.79
6859.74 1525.49 1493.06
6862.56 1455.75 1435.29
6865.38 1295.35 1290.3
6868.19 1192.41 1185.13
6871.01 1191.96 1176.84
6873.83 1218.99 1196.97
6876.65 1311.68 1271.58
6879.46 1377.69 1343.6
6882.28 1385.81 1352.03
6885.1 1363.81 1331.95
6887.91 1355.25 1331.2
6890.73 1358.92 1331.67
6893.55 1358.99 1330.07
6896.36 1360.42 1333.44
6899.18 1380.12 1352.23
6901.99 1368.34 1343.29
6904.81 1434.83 1408.07
6907.62 1421 1398.94
6910.44 1421.62 1397.76
6913.25 1439.36 1416.11
6916.07 1458.65 1432.57
6918.88 1465.94 1444.64
6921.7 1469.7 1451.15
6924.51 1471.35 1449.97
6927.33 1475.36 1461.73
6930.14 1475.89 1457.27
6932.96 1479.18 1466.2
6935.77 1476.47 1465.17
6938.58 1471.94 1462.46
6941.4 1469.54 1460.22
6944.21 1464.34 1456.27
6947.02 1473.26 1467.91
6949.84 1479.88 1472.57
6952.65 1461.91 1460.4
6955.46 1471.62 1461.78
6958.27 1480.66 1475.43
6961.09 1476.77 1478.75
6963.9 1497.51 1495.46
6966.71 1482.12 1482.38
6969.52 1486.07 1487.44
6972.33 1471.86 1475.42
6975.14 1464.04 1468.99
6977.95 1459.63 1462.27
6980.77 1465.41 1471.5
6983.58 1464.72 1470.02
6986.39 1460.2 1465.77
6989.2 1461.11 1464.36
6992.01 1459.97 1463.2
6994.82 1456.96 1462.93
6997.63 1462.08 1466.25
7000.44 1446.78 1457.22
7003.25 1436.83 1443.76
7006.06 1452.19 1455.77
7008.87 1447.79 1455.69
7011.67 1446.23 1452.2
7014.48 1433.98 1438.35
7017.29 1441.18 1452.11
7020.1 1449.44 1455.61
7022.91 1441.64 1449.71
7025.72 1458.25 1460.38
7028.53 1440.64 1440.02
7031.33 1449.42 1451.59
7034.14 1433.29 1433.88
7036.95 1439.82 1437.14
7039.76 1443.32 1442.44
7042.56 1446.33 1442.3
7045.37 1450.71 1447.09
7048.18 1448.51 1446.28
7050.98 1444.05 1440.12
7053.79 1447.76 1440.7
7056.6 1449.49 1443.1
7059.4 1451.22 1448.36
7062.21 1429.65 1427.25
7065.01 1429.61 1426.01
7067.82 1435.26 1431.13
7070.62 1437.44 1436.08
7073.43 1433.07 1428.9
7076.23 1455.36 1449.41
7079.04 1432.17 1424.65
7081.84 1434.23 1430.9
7084.65 1425.98 1424.35
7087.45 1424.29 1421.85
7090.26 1417.35 1419.49
7093.06 1421.86 1420.96
7095.86 1417.96 1416.17
7098.67 1422.55 1422.41
7101.47 1414.21 1412.75
7104.27 1433.12 1431.9
7107.08 1436.82 1435.09
7109.88 1410.2 1409.52
7112.68 1400.01 1399.87
7115.49 1396.69 1396.49
7118.29 1397.13 1395.04
7121.09 1381.85 1382.9
7123.89 1396.36 1401.3
7126.69 1394.28 1391.08
7129.49 1395.99 1398.62
7132.3 1407.62 1408.76
7135.1 1391.78 1392.92
7137.9 1392.85 1394.44
7140.7 1405.77 1404.1
7143.5 1398.77 1401.05
7146.3 1388.67 1394.72
7149.1 1393.05 1396.75
7151.9 1373.69 1378.97
7154.7 1390.13 1389.68
7157.5 1376.23 1374.83
7160.3 1365.67 1369.6
7163.1 1341.58 1347.45
7165.9 1328.32 1331.76
7168.7 1318.56 1322.16
7171.5 1301.79 1301.34
7174.3 1311.52 1311.74
7177.09 1298.56 1300.82
7179.89 1299.19 1300.86
7182.69 1272.45 1271.09
7185.49 1255.05 1255.4
7188.29 1256.88 1255.25
7191.08 1260.45 1257.95
7193.88 1286.54 1284.49
7196.68 1283.38 1283.28
7199.48 1282.34 1283.77
7202.27 1278.35 1277.1
7205.07 1278.8 1275.28
7207.87 1288.54 1287.44
7210.66 1306 1303.11
7213.46 1307.48 1303.75
7216.25 1299.4 1299.07
7219.05 1305.7 1304.27
7221.84 1295.81 1291.79
7224.64 1294.43 1294.34
7227.44 1283.79 1284.36
7230.23 1268.76 1266.82
7233.02 1258.15 1257.16
7235.82 1265.94 1262.59
7238.61 1248.23 1247.17
7241.41 1246.46 1244.06
7244.2 1263.63 1264.71
7247 1263.7 1266.34
7249.79 1254.09 1254.75
7252.58 1264 1265.78
7255.38 1268.62 1266.84
7258.17 1279.29 1279.47
7260.96 1273.33 1275.61
7263.75 1253.56 1257.64
7266.55 1262.73 1261.99
7269.34 1272.62 1268.85
7272.13 1250.11 1249.38
7274.92 1229.29 1231.94
7277.72 1257.05 1261.94
7280.51 1275.08 1273.83
7283.3 1245.59 1252.29
7286.09 1260.43 1264.06
7288.88 1234.64 1236.7
7291.67 1249.14 1250.63
7294.46 1269.23 1266.13
7297.25 1275.99 1274.09
7300.04 1262.7 1262.51
7302.83 1266.44 1267.7
7305.62 1255.07 1258.18
7308.41 1270.46 1268.51
7311.2 1260.13 1258.55
7313.99 1276.5 1274.49
7316.78 1280.02 1279.23
7319.57 1285.22 1285.89
7322.36 1289.47 1289.67
7325.15 1279.4 1277.07
7327.94 1288.23 1286.38
7330.72 1282.5 1278.55
7333.51 1292.83 1287.89
7336.3 1299.67 1300.38
7339.09 1304.25 1305.09
7341.87 1297.69 1295.46
7344.66 1287.46 1290.91
7347.45 1273.47 1273.43
7350.24 1269.13 1268.45
7353.02 1279.77 1278.82
7355.81 1279.87 1277.25
7358.59 1278.72 1279.5
7361.38 1274.35 1273.02
7364.17 1274.04 1273.11
7366.95 1266.71 1267.85
7369.74 1267.3 1269.91
7372.52 1268.41 1271.05
7375.31 1277.87 1275.7
7378.09 1265.64 1264.49
7380.88 1269.63 1270.61
7383.66 1249.29 1248.61
7386.45 1245.63 1246.54
7389.23 1239.68 1244.29
7392.01 1228.29 1227.46
7394.8 1252.55 1254.18
7397.58 1255.45 1253.93
7400.36 1244.14 1248.34
7403.15 1244.45 1251.48
7405.93 1234.35 1239.59
7408.71 1238.03 1236.49
7411.5 1248.13 1250.22
7414.28 1245.12 1248.27
7417.06 1231.88 1233.38
7419.84 1247.85 1248.34
7422.62 1235.02 1232.3
7425.41 1244.64 1243.15
7428.19 1256.71 1254.07
7430.97 1274.83 1271.17
7433.75 1260.59 1263.09
7436.53 1272.59 1273.71
7439.31 1252.55 1252.31
7442.09 1253.36 1253.16
7444.87 1259.21 1255.02
7447.65 1256.72 1254.48
7450.43 1249.63 1246.1
7453.21 1277.95 1273.65
7455.99 1284.43 1281.15
7458.77 1277.73 1273.88
7461.55 1264.23 1265.33
7464.33 1269.82 1269.06
7467.11 1269.81 1265.95
7469.88 1283.22 1279.4
7472.66 1277.41 1273.49
7475.44 1269.65 1266.58
7478.22 1283.39 1283.16
7481 1273.57 1271.84
7483.77 1264.21 1262.93
7486.55 1257.1 1257.01
7489.33 1256.46 1259.08
7492.1 1235.23 1239.63
7494.88 1208.42 1214.12
7497.66 1225.63 1224.39
7500.43 1214.2 1210.54
7503.21 1227.88 1229.7
7505.98 1221.57 1221.78
7508.76 1193.82 1196.73
7511.54 1207.6 1208.88
7514.31 1195.9 1194.47
7517.09 1200.93 1202.51
7519.86 1201.19 1201.83
7522.63 1203.14 1205.44
7525.41 1195.49 1201.75
7528.18 1191.08 1195.8
7530.96 1171.83 1174.84
7533.73 1189.55 1193.51
7536.5 1150.66 1151.14
7539.28 1164.8 1166.14
7542.05 1161.99 1165.47
7544.82 1161.7 1165.57
7547.6 1163.01 1163.99
7550.37 1172.39 1177.28
7553.14 1160.08 1160.2
7555.91 1154.6 1151.11
7558.69 1154.54 1151.12
7561.46 1148.06 1144.36
7564.23 1154.89 1149.89
7567 1157 1156.74
7569.77 1142.93 1142.49
7572.54 1146.04 1142.32
7575.31 1139.28 1135.69
7578.08 1145.14 1140.43
7580.85 1121.82 1114.64
7583.62 1114.53 1105.52
7586.39 1089.69 1083.2
7589.16 1030.85 1027.53
7591.93 866.409 872.087
7594.7 689.168 696.136
7597.47 533.241 538.615
7600.24 423.478 423.303
7603.01 375.105 371.425
7605.78 378.981 369.332
7608.55 429.467 416.563
7611.31 534.494 513.526
7614.08 697.346 670.577
7616.85 781.103 760.332
7619.62 792.339 775.664
7622.38 717.732 708.544
7625.15 675.003 663.016
7627.92 650.238 633.422
7630.68 654.964 635.194
7633.45 682.026 659.815
7636.22 699.089 675.141
7638.98 737.352 711.43
7641.75 772.189 743.829
7644.51 794.698 764.403
7647.28 838.213 807.576
7650.04 877.549 844.753
7652.81 906.172 868.816
7655.57 933.571 896.955
7658.34 961.207 919.197
7661.1 969.684 930.659
7663.87 1005.4 959.276
7666.63 1025.15 979.026
7669.39 1062.95 1010.07
7672.16 1094.06 1041.62
7674.92 1105.71 1049.99
7677.68 1128.02 1069.01
7680.45 1134.86 1074.5
7683.21 1149.06 1088.63
7685.97 1172.06 1108.23
7688.73 1167.91 1103.02
7691.5 1181.29 1116.09
7694.26 1183.82 1116.56
7697.02 1097.26 1113.76
7699.78 1111.43 1121.83
7702.54 1111.21 1124.25
7705.3 1122 1127.24
7708.06 1110.26 1120.71
7710.82 1107.42 1119.62
7713.58 1113.13 1128.97
7716.34 1130.67 1144.79
7719.1 1131.31 1138.35
7721.86 1158.78 1166.21
7724.62 1142.58 1155.41
7727.38 1153.74 1157.92
7730.14 1152.78 1153.73
7732.9 1157.69 1160.22
7735.66 1172.39 1172.9
7738.42 1151.63 1148.87
7741.17 1143.38 1139.28
7743.93 1124.07 1125.42
7746.69 1122.82 1124.83
7749.45 1129.6 1128.17
7752.2 1139.38 1143.86
7754.96 1143.2 1142.7
7757.72 1133.3 1137.35
7760.47 1145.83 1145.5
7763.23 1144.25 1145.57
7765.99 1126.15 1125.77
7768.74 1121.58 1120.49
7771.5 1073.29 1074.75
7774.25 1085.49 1080.76
7777.01 1081.8 1074.8
7779.77 1102.65 1092.73
7782.52 1119.97 1110
7785.27 1128.31 1119.43
7788.03 1132.45 1130.6
7790.78 1153.57 1152.92
7793.54 1136.07 1135.84
7796.29 1142.77 1138.1
7799.04 1130.72 1136.24
7801.8 1150.82 1144.61
7804.55 1141.78 1142.45
7807.3 1130.62 1127.87
7810.06 1128.04 1125.41
7812.81 1116.36 1119.27
7815.56 1152.69 1152.23
7818.31 1142.66 1143.06
7821.07 1145.31 1144.7
7823.82 1137.51 1148.38
7826.57 1138.02 1143.95
7829.32 1124.51 1130.2
7832.07 1107.06 1111.07
7834.82 1124.77 1129.21
7837.57 1109.52 1112.63
7840.32 1135.81 1129.26
7843.07 1123.29 1126.37
7845.82 1131.48 1123.87
7848.57 1121.91 1119.95
7851.32 1111.19 1115.24
7854.07 1116.13 1123.52
7856.82 1119.55 1126.51
7859.57 1092.71 1100.57
7862.32 1101.72 1101.79
7865.07 1090.2 1086.38
7867.81 1102.63 1100.81
7870.56 1125.85 1134.37
7873.31 1112.25 1109.58
7876.06 1115.99 1116.04
7878.8 1082.32 1090.79
7881.55 1112.24 1107.39
7884.3 1121.89 1121.54
7887.04 1100.25 1100.98
7889.79 1120.03 1116.4
7892.54 1079.1 1082.41
7895.28 1083.89 1078.06
7898.03 1089.4 1083.97
7900.77 1107.23 1098.57
7903.52 1095.61 1081.91
7906.26 1106.46 1092.34
7909.01 1103.95 1095.86
7911.75 1084.95 1085.59
7914.5 1102.27 1107.41
7917.24 1084.95 1099.81
7919.99 1085.31 1087.35
7922.73 1066.38 1065.67
7925.47 1062.96 1066.97
7928.22 1068.46 1075.23
7930.96 1047.69 1053.81
7933.7 1037.01 1036.55
7936.44 1040.29 1042.37
7939.19 1053.75 1047.71
7941.93 1050.41 1049.53
7944.67 1049.67 1047.84
7947.41 1071.02 1066.84
7950.15 1052.46 1049.3
7952.89 1086.83 1088
7955.64 1104.61 1100.12
7958.38 1079.08 1074.31
7961.12 1080.34 1084.03
7963.86 1066.25 1074.54
7966.6 1078.62 1086.01
7969.34 1092.88 1096.36
7972.08 1096.79 1093.64
7974.82 1072.16 1071.07
7977.55 1082.92 1086.03
7980.29 1074.97 1073.32
7983.03 1071.47 1067.18
7985.77 1073.51 1068.52
7988.51 1074.07 1073.83
7991.25 1075.83 1080.06
7993.98 1066.64 1077.73
7996.72 1072.94 1078.97
7999.46 1066.98 1071.23
8002.2 1068.25 1066.55
8004.93 1065.44 1063.81
8007.67 1071.12 1066.89
8010.41 1074.41 1074.54
8013.14 1075.15 1067.59
8015.88 1074.05 1067.78
8018.61 1059.99 1052.95
8021.35 1053.7 1056.64
8024.09 1042.11 1048.97
8026.82 1057.08 1063.72
8029.55 1045.57 1044.75
8032.29 1049.72 1050.89
8035.02 1046.44 1048.64
8037.76 1062.6 1055.33
8040.49 1038.7 1038.61
8043.23 1033.4 1028.17
8045.96 1043.67 1041.03
8048.69 1038.75 1030.86
8051.42 1041.18 1036.76
8054.16 1046.09 1044.31
8056.89 1039.03 1045.26
8059.62 1026.89 1028.8
8062.35 1032.87 1034.44
8065.09 1048.86 1049.76
8067.82 1032.67 1039.33
8070.55 1042.96 1043.32
8073.28 1041.11 1048.33
8076.01 1037.27 1037.48
8078.74 1042.2 1040.15
8081.47 1021.57 1021.04
8084.2 1025.88 1023.15
8086.93 1005.72 1003.42
8089.66 1016 1011.95
8092.39 1030.49 1031.89
8095.12 1031.05 1032.83
8097.85 1018.69 1017
8100.58 1021.17 1025.77
8103.31 1027.94 1035.45
8106.03 1007.42 1011.53
8108.76 1020.33 1029.14
8111.49 1018.63 1008.96
8114.22 1030.99 1024.03
8116.95 1022.79 1028.28
8119.67 1007.21 1006.42
8122.4 1002.63 1003.01
8125.13 1002.39 996.075
8127.85 1005.29 1007.9
8130.58 980.33 980.343
8133.3 984.37 984.737
8136.03 985.429 976.301
8138.76 1004.71 1001.97
8141.48 972.14 972.215
8144.21 964.225 965.022
8146.93 958.059 961.261
8149.66 955.811 961.589
8152.38 962.047 964.702
8155.1 958.458 954.526
8157.83 962.594 962.287
8160.55 941.634 939.613
8163.27 936.012 935.593
8166 932.113 928.953
8168.72 946.374 946.056
8171.44 953.289 958.591
8174.17 952.459 949.62
8176.89 943.609 939.57
8179.61 930.604 934.358
8182.33 928.681 925.021
8185.05 922.488 924.753
8187.77 934.654 937.358
8190.49 916.03 915.84
8193.21 904.548 904.011
8195.94 904.465 900.224
8198.66 902.867 905.192
8201.38 912.239 912.748
8204.1 942.844 937.099
8206.81 933.976 940.07
8209.53 965.343 961.473
8212.25 945.785 953.784
8214.97 958.6 958.515
8217.69 949.71 948.215
8220.41 927.546 926.6
8223.13 927.316 931.854
8225.84 913.315 918.335
8228.56 903.759 900.879
8231.28 913.494 913.794
8234 932.745 930.988
8236.71 946.464 944.07
8239.43 950.255 949.101
8242.15 948.347 950.616
8244.86 953.843 954.832
8247.58 960.238 955.677
8250.29 952.345 952.07
8253.01 937.369 939.114
8255.72 935.652 941.464
8258.44 937.178 937.74
8261.15 939.495 939.846
8263.87 951.48 947.669
8266.58 967.764 968.249
8269.3 950.366 955.152
8272.01 946.247 944.998
8274.72 932.508 930
8277.44 928.005 925.786
8280.15 943.833 942.189
8282.86 925.424 927.655
8285.57 932.546 929.502
8288.29 914.796 906.586
8291 914.254 913.446
8293.71 925.423 917.822
8296.42 938.099 941.516
8299.13 943.127 945.127
8301.84 933.23 938.949
8304.56 927.177 927.948
8307.27 929.578 932.969
8309.98 916.234 919.091
8312.69 928.408 931.845
8315.4 927.686 927.885
8318.11 934.144 934.517
8320.81 930.035 930.292
8323.52 926.307 924.292
8326.23 925.385 928.149
8328.94 914.743 915.879
8331.65 894.782 890.967
8334.36 905.932 905.731
8337.06 904.918 893.668
8339.77 920.429 909.005
8342.48 937.51 934.839
8345.19 945.952 951.853
8347.89 943.418 952.379
8350.6 935.902 945.75
8353.31 933.026 932.656
8356.01 935.644 938.441
8358.72 953.24 950.618
8361.42 945.575 945.091
8364.13 937.085 938.713
8366.83 937.521 938.136
8369.54 948.812 950.03
8372.24 944.949 947.544
8374.95 939.339 940.884
8377.65 948.56 944.209
8380.36 948.481 946.737
8383.06 945.004 947.407
8385.76 924.799 926.974
8388.47 922.961 926.766
8391.17 917.982 918.473
8393.87 940.389 926.216
8396.57 941.562 934.332
8399.27 937.759 931.017
8401.98 924.866 930.917
8404.68 920.28 922.252
8407.38 932.16 933.029
8410.08 933.955 931.243
8412.78 928.387 923.381
8415.48 926.979 930.332
8418.18 934.555 933.252
8420.88 940.467 940.695
8423.58 925.549 922.403
8426.28 914.87 913.651
8428.98 925.379 930.777
8431.68 930.195 931.422
8434.38 919.06 927.467
8437.08 910.135 916.178
8439.78 913.423 912.003
8442.47 889.506 891.532
8445.17 891.381 898.15
8447.87 880.482 882.725
8450.57 919.407 918.542
8453.26 907.065 915.228
8455.96 927.5 922.408
8458.66 920.662 927.335
8461.35 892.903 893.278
8464.05 920.275 918.461
8466.74 905.345 908.734
8469.44 893.092 891.612
8472.13 903.613 908.681
8474.83 897.524 899.357
8477.52 901.686 900.456
8480.22 929.522 926.471
8482.91 958.379 959.726
8485.61 945.424 947.549
8488.3 950.455 947.702
8490.99 913.582 915.592
8493.69 910.215 911.432
8496.38 895.329 895.439
8499.07 853.538 840.271
8501.76 858.395 838.05
8504.46 904.704 884.885
8507.15 896.406 869.177
8509.84 917.646 890.336
8512.53 923.427 898.51
8515.22 920.485 889.298
8517.91 918.882 888.083
8520.6 956.432 918.355
8523.29 901.184 943.494
8525.98 902.14 935.753
8528.67 877.874 912.96
8531.36 874.054 906.683
8534.05 865.895 897.166
8536.74 861.065 894.956
8539.43 824.24 850.071
8542.12 803.614 825.348
8544.81 789.086 801.157
8547.49 798.557 809.195
8550.18 843.019 848.512
8552.87 867.109 870.491
8555.56 869.328 875.691
8558.24 889.708 892.485
8560.93 890.773 891.855
8563.62 897.047 893.228
8566.3 916.958 899.994
8568.99 924.85 920.724
8571.67 905.218 908.367
8574.36 896.44 894.059
8577.05 895.992 894.995
8579.73 901.112 894.475
8582.41 909.118 899.33
8585.1 900.998 887.147
8587.78 898.556 887.174
8590.47 880.555 875.833
8593.15 864.245 859.84
8595.83 844.047 844.746
8598.52 827.786 812.389
8601.2 823.394 816.943
8603.88 827.511 816.431
8606.56 865.969 852.87
8609.25 865.109 860.825
8611.93 868.557 865.644
8614.61 877.388 873.711
8617.29 882.89 874.248
8619.97 901.889 891.949
8622.65 890.569 892.236
8625.33 902.57 899.863
8628.01 895.595 900.746
8630.69 905.965 912.754
8633.37 903.881 904.447
8636.05 907.968 909.079
8638.73 913.717 904.089
8641.41 910.339 911.171
8644.09 904.321 897.285
8646.77 878.776 894.252
8649.44 859.444 869.142
8652.12 858.082 877.145
8654.8 866.579 867.691
8657.48 852.433 858.66
8660.15 809.308 819.437
8662.83 753.912 759.019
8665.51 734.219 735.721
8668.18 733.259 733.327
8670.86 763.859 767.693
8673.53 801.016 808.978
8676.21 817.067 824.565
8678.88 826.078 819.047
8681.56 842.695 842.474
8684.23 856.263 853.145
8686.91 859.462 869.722
8689.58 849.711 853.792
8692.25 879.915 873.703
8694.93 884.941 878.184
8697.6 875.432 878.793
8700.27 883.865 882.795
8702.95 887.913 884.512
8705.62 897.215 895.78
8708.29 896.198 895.346
8710.96 893.026 892.905
8713.63 876.801 881.757
8716.31 883.212 873.769
8718.98 916.024 901.407
8721.65 901.431 892.645
8724.32 925.087 922.626
8726.99 895.896 892.055
8729.66 870.034 884.347
8732.33 879.062 873.276
8735 868.168 866.607
8737.67 863.609 862.553
8740.33 840.702 831.66
8743 835.948 837.949
8745.67 805.067 800.398
8748.34 761.051 766.782
8751.01 743.452 747.772
8753.67 733.164 731.196
8756.34 749.716 752.503
8759.01 761.329 769.272
8761.68 804.028 816.135
8764.34 821.053 832.663
8767.01 817.639 832.962
8769.67 850.826 851.667
8772.34 844.712 847.589
8775 844.706 846.569
8777.67 859.514 858.224
8780.33 862.562 856.527
8783 869.53 855.618
8785.66 878.328 848.905
8788.33 871.844 858.357
8790.99 842.88 825.91
8793.65 845.917 841.108
8796.32 857.53 841.895
8798.98 846.367 838.079
8801.64 855.77 854.126
8804.3 861.249 854.533
8806.97 839.407 839.368
8809.63 847.282 851.087
8812.29 834.72 842.46
8814.95 834.095 840.054
8817.61 845.482 851.603
8820.27 851.814 855.51
8822.93 839.789 860.109
8825.59 852.327 882.693
8828.25 834.862 873.86
8830.91 842.23 896.549
8833.57 815.901 845.592
8836.23 815.232 831.667
8838.89 820.889 818.208
8841.55 820.38 792.374
8844.21 829.78 793.296
8846.86 817.712 787.175
8849.52 818.58 793.796
8852.18 806.353 791.76
8854.84 789.972 784.057
8857.49 749.56 749.638
8860.15 722.505 718.688
8862.8 698.201 704.207
8865.46 693.913 674.717
8868.12 700.832 690.671
8870.77 731.225 727.292
8873.43 769.354 754.255
8876.08 799.964 779.797
8878.74 807.799 797.715
8881.39 809.747 819.498
8884.04 828.268 851.71
8886.7 838.396 876.601
8889.35 831.362 854.453
8892 852.354 860.546
8894.66 863.397 851.689
8897.31 879.956 857.812
8899.96 868.631 857.213
8902.61 865.956 862.873
8905.27 855.233 861.605
8907.92 868.754 871.833
8910.57 870.793 859.075
8913.22 853.248 831.057
8915.87 850.652 845.773
8918.52 842.825 874.346
8921.17 827.207 866.829
8923.82 811.239 857.989
8926.47 810.828 825.446
8929.12 809.141 795.267
8931.77 809.724 771.217
8934.42 810.787 794.027
8937.06 819.683 794.835
8939.71 827.959 825.695
8942.36 798.719 799.29
8945.01 781.681 795.563
8947.65 782.353 785.859
8950.3 762.738 751.837
8952.95 771.276 758.087
8955.59 751.374 762.851
8958.24 758.412 780.571
8960.89 759.73 779.15
8963.53 742.941 756.305
8966.18 732.668 731.854
8968.82 733.621 724.863
8971.47 723.951 720.453
8974.11 725.225 706.802
8976.75 737.022 714.852
8979.4 749.162 732.06
8982.04 749.106 738.233
8984.68 752.267 747.401
8987.33 736.694 749.645
8989.97 713.797 718.02
8992.61 690.816 688.294
8995.25 698.99 704.893
8997.9 723.159 730.797
9000.54 715.851 739.292
9003.18 701.039 723.689
9005.82 708.953 722.099
9008.46 700.967 694.784
9011.1 689.795 687.581
9013.74 646.339 661.271
9016.38 614.233 612.879
9019.02 590.322 573.39
9021.66 614.42 599.495
9024.3 644.287 642.992
9026.94 696.47 674.267
9029.57 708.396 685.042
9032.21 730.572 723.557
9034.85 731.435 741.746
9037.49 737.98 747.545
9040.12 731.567 738.044
9042.76 736.777 738.555
9045.4 724.923 724.118
9048.03 736.522 738.939
9050.67 739.231 739.841
9053.31 750.527 753.362
9055.94 746.857 750.218
9058.58 742.02 735.569
9061.21 767.908 777.341
9063.85 784.17 787.854
