wavelength spec_sum spec_optimal
3527.92 8.02106 12.6607
3530.83 15.5181 13.5453
3533.75 11.8821 10.1114
3536.66 16.4969 17.0468
3539.58 12.5536 3.9089
3542.5 14.2739 17.1121
3545.41 8.87329 15.8423
3548.33 5.44299 11.3587
3551.24 11.9734 16.4478
3554.16 21.0443 24.8519
3557.07 12.051 18.3018
3559.99 12.0296 16.1854
3562.9 15.2696 18.6388
3565.82 12.0408 15.6173
3568.73 16.7942 15.0116
3571.65 19.7945 24.4283
3574.56 9.91868 9.74669
3577.48 13.3782 14.7994
3580.4 13.1694 16.8354
3583.31 14.3276 14.3806
3586.23 15.5587 18.9195
3589.14 15.8996 17.9191
3592.06 19.0289 19.7505
3594.97 11.0668 18.0594
3597.89 15.6094 18.0148
3600.8 19.8795 24.4955
3603.72 21.1879 23.5784
3606.63 14.0045 18.256
3609.55 19.1326 21.3711
3612.46 8.53922 13.9512
3615.38 15.021 18.8145
3618.29 16.7067 23.1439
3621.21 13.2964 16.6523
3624.12 12.9835 21.4707
3627.04 13.5323 12.3876
3629.95 8.73343 12.0563
3632.87 15.6756 20.1931
3635.79 11.842 14.9373
3638.7 12.405 16.4244
3641.62 16.5075 20.0665
3644.53 10.1184 6.7105
3647.45 15.5875 16.8771
3650.36 15.9757 15.3343
3653.28 11.6295 12.7036
3656.19 13.5732 13.7326
3659.11 12.2163 9.88634
3662.02 21.012 23.4019
3664.94 16.7996 20.108
3667.85 18.6587 17.8615
3670.77 14.6054 18.0425
3673.68 8.55765 10.8475
3676.6 12.1631 12.5012
3679.51 10.4394 12.1272
3682.43 16.9851 14.2084
3685.34 18.51 18.022
3688.26 17.3323 18.9509
3691.17 12.0457 14.0002
3694.09 13.912 13.2268
3697 21.1724 19.1542
3699.92 10.0289 9.14095
3702.83 19.504 21.6518
3705.75 18.2932 19.3521
3708.66 17.0656 15.5401
3711.58 15.2603 10.7398
3714.49 19.9523 19.8116
3717.41 11.8445 9.47546
3720.32 19.6737 17.4868
3723.23 20.1061 15.261
3726.15 17.9265 15.9576
3729.06 17.3672 13.2515
3731.98 12.9305 17.1771
3734.89 12.209 12.0696
3737.81 21.3607 15.2408
3740.72 11.7285 10.4132
3743.64 20.4534 19.7786
3746.55 11.2172 12.2335
3749.47 19.334 22.2327
3752.38 18.7962 21.4238
3755.3 14.1044 13.6873
3758.21 21.2773 22.7804
3761.13 22.5842 27.4098
3764.04 24.621 18.8397
3766.96 13.0882 15.4415
3769.87 17.6325 18.3038
3772.78 17.7814 24.1629
3775.7 20.8503 23.1015
3778.61 22.6577 22.9256
3781.53 21.9806 25.4589
3784.44 23.4274 31.0607
3787.36 19.4087 26.3877
3790.27 20.064 22.144
3793.19 17.1993 24.3033
3796.1 19.2142 21.3645
3799.01 13.2243 17.8192
3801.93 14.6963 14.7586
3804.84 18.1874 20.6534
3807.76 17.2978 18.5504
3810.67 12.8295 16.0197
3813.59 17.4086 15.8647
3816.5 19.7448 22.7112
3819.42 18.7111 23.3967
3822.33 19.993 23.7288
3825.24 19.0092 20.7218
3828.16 15.7559 18.0778
3831.07 19.5395 24.4405
3833.99 19.8988 20.7155
3836.9 23.3919 22.2239
3839.81 29.1515 29.3447
3842.73 18.9525 25.9707
3845.64 19.996 26.274
3848.56 18.5353 19.1754
3851.47 22.4276 23.2797
3854.38 18.3239 19.0321
3857.3 19.7134 22.7313
3860.21 18.6861 20.1117
3863.13 19.8839 21.7964
3866.04 19.4388 20.9174
3868.95 19.62 23.1639
3871.87 19.0059 19.9513
3874.78 16.7266 21.7633
3877.7 15.6179 17.9384
3880.61 17.1945 18.9702
3883.52 19.3487 20.1439
3886.44 22.299 24.5901
3889.35 16.2267 16.338
3892.27 15.9144 17.5872
3895.18 17.9519 16.0328
3898.09 17.9092 19.9404
3901.01 15.867 15.1335
3903.92 19.5822 20.2492
3906.83 19.5751 20.8543
3909.75 25.5314 29.444
3912.66 17.5559 23.681
3915.58 27.3907 33.124
3918.49 25.7857 30.3988
3921.4 23.5917 27.4268
3924.32 21.9999 27.5746
3927.23 22.7967 20.917
3930.14 23.0431 24.3348
3933.06 19.9752 22.6724
3935.97 21.8724 19.9369
3938.88 22.5219 23.2189
3941.8 17.4562 18.8658
3944.71 19.6555 20.1394
3947.62 21.6691 24.622
3950.54 21.2321 27.7183
3953.45 26.274 30.032
3956.36 18.3446 22.0042
3959.28 21.5597 24.3345
3962.19 21.0479 26.8487
3965.1 23.9469 22.3035
3968.02 20.3104 24.1579
3970.93 26.9318 28.2245
3973.84 20.8484 25.6049
3976.76 21.1423 26.3406
3979.67 24.5424 27.0736
3982.58 22.3362 22.2356
3985.49 23.4551 21.7777
3988.41 19.6044 19.1989
3991.32 19.0781 20.8304
3994.23 20.9328 23.9706
3997.15 22.8716 24.8804
4000.06 20.6052 22.665
4002.97 22.3908 24.1848
4005.89 20.1053 25.2107
4008.8 20.3995 23.3155
4011.71 25.1064 29.3756
4014.62 24.3668 29.9139
4017.54 21.8752 23.5622
4020.45 22.6308 24.8678
4023.36 23.0974 24.706
4026.27 15.2854 18.8878
4029.19 16.093 20.3698
4032.1 20.7693 21.5863
4035.01 17.6504 23.6234
4037.92 25.9066 30.0732
4040.84 23.1561 23.5569
4043.75 27.5362 31.7374
4046.66 25.2201 27.1108
4049.57 27.0243 29.7972
4052.49 25.3797 31.9272
4055.4 33.449 35.7736
4058.31 29.2103 29.4487
4061.22 27.6861 32.1516
4064.14 28.481 30.1835
4067.05 29.3339 31.7867
4069.96 29.5906 31.5993
4072.87 31.3391 33.0346
4075.79 33.0876 37.0968
4078.7 30.4681 32.012
4081.61 31.1648 36.0507
4084.52 33.1093 36.3709
4087.43 31.3762 38.3725
4090.35 31.4651 33.2596
4093.26 29.157 33.6808
4096.17 33.9964 35.1005
4099.08 33.1428 35.5877
4101.99 28.8854 29.4711
4104.91 32.5138 37.756
4107.82 30.1739 32.0934
4110.73 35.3001 35.3185
4113.64 31.1319 36.982
4116.55 29.8365 32.7013
4119.46 32.5194 33.8729
4122.38 24.8612 28.0339
4125.29 29.4455 36.0597
4128.2 28.4703 30.39
4131.11 35.6534 36.5517
4134.02 29.3706 27.8321
4136.93 34.3396 38.0792
4139.85 32.8846 38.9188
4142.76 29.2973 33.2876
4145.67 33.1774 37.0691
4148.58 32.3967 34.0596
4151.49 30.6134 34.0698
4154.4 29.3463 33.2637
4157.31 32.9624 36.9894
4160.22 26.1655 29.8686
4163.14 29.2224 36.5207
4166.05 28.8689 30.9002
4168.96 30.6763 34.9511
4171.87 30.5428 34.6697
4174.78 30.2544 34.7688
4177.69 32.034 34.7107
4180.6 30.551 35.7465
4183.51 31.3327 35.7471
4186.42 29.466 33.535
4189.34 30.078 33.7995
4192.25 33.3265 35.8071
4195.16 33.2797 36.0856
4198.07 28.5971 31.5685
4200.98 31.862 33.9711
4203.89 32.8466 35.809
4206.8 34.7599 37.9962
4209.71 32.2531 33.0767
4212.62 30.6846 34.5348
4215.53 33.5741 38.458
4218.44 30.5076 33.0028
4221.35 31.1859 36.2531
4224.26 33.2975 37.4941
4227.17 31.5414 31.5214
4230.08 32.2139 33.1257
4232.99 29.4379 33.7228
4235.9 29.5669 35.105
4238.81 30.3178 34.3601
4241.73 33.4811 37.8672
4244.64 31.2988 35.8477
4247.55 32.1686 34.8267
4250.46 32.8224 36.4283
4253.37 31.1645 33.0062
4256.28 33.1931 35.2201
4259.19 30.6016 33.0697
4262.1 27.4894 32.6828
4265.01 28.9375 33.059
4267.92 34.7983 37.8665
4270.83 31.0591 32.7414
4273.74 28.2584 31.6648
4276.65 30.9242 35.6683
4279.55 28.7114 32.5861
4282.46 27.361 30.3298
4285.37 34.1203 40.0964
4288.28 33.7599 38.5382
4291.19 34.4094 38.3895
4294.1 30.5243 35.93
4297.01 32.4859 35.2265
4299.92 29.8888 35.1211
4302.83 35.5195 39.8255
4305.74 33.3834 36.1222
4308.65 34.2989 37.0991
4311.56 31.645 36.0182
4314.47 37.1916 40.7631
4317.38 34.1578 36.7588
4320.29 33.4403 36.8977
4323.2 32.6774 35.5939
4326.11 37.7252 40.12
4329.01 30.4623 34.5503
4331.92 31.3305 39.8754
4334.83 35.7628 38.4129
4337.74 33.1407 37.2872
4340.65 31.0742 35.1078
4343.56 32.1993 34.0688
4346.47 31.7337 33.9764
4349.38 30.3006 33.4581
4352.29 30.9828 34.4012
4355.19 30.6411 37.1343
4358.1 32.9488 38.7274
4361.01 29.5078 32.7877
4363.92 28.9988 33.7071
4366.83 29.3513 32.2335
4369.74 30.1661 34.6663
4372.65 27.4138 31.5985
4375.55 27.2472 32.3267
4378.46 29.2227 32.8289
4381.37 33.6262 38.9055
4384.28 31.6017 37.6391
4387.19 31.3611 35.8756
4390.09 31.2255 35.4857
4393 34.4357 37.9676
4395.91 34.5974 37.9967
4398.82 31.5401 35.0025
4401.73 31.2492 35.3353
4404.63 32.5287 36.5647
4407.54 33.2798 38.3457
4410.45 36.7595 38.7264
4413.36 33.1808 36.9629
4416.27 30.7841 32.0132
4419.17 33.95 38.937
4422.08 34.7947 39.1682
4424.99 35.9232 42.7693
4427.9 34.7694 38.4448
4430.8 36.0737 39.1022
4433.71 32.6556 42.1129
4436.62 32.9463 37.7512
4439.53 38.6808 42.648
4442.43 37.0626 40.6626
4445.34 34.049 39.7985
4448.25 31.6194 35.0226
4451.16 29.2466 35.3147
4454.06 32.5589 38.8294
4456.97 34.7866 41.8929
4459.88 34.7495 39.666
4462.78 33.778 40.1976
4465.69 39.5176 43.0244
4468.6 29.7276 32.9421
4471.5 34.3666 39.5007
4474.41 34.1935 38.2477
4477.32 38.5662 43.1718
4480.23 35.9569 42.2135
4483.13 37.9496 44.2273
4486.04 34.5656 38.0493
4488.94 35.2925 40.4889
4491.85 34.1957 39.3338
4494.76 36.6854 40.5898
4497.66 32.2686 36.8392
4500.57 39.8061 43.7264
4503.48 30.6645 37.9703
4506.38 40.6715 45.7466
4509.29 34.4275 39.4614
4512.2 36.456 42.591
4515.1 40.6551 44.5552
4518.01 37.6973 43.4106
4520.91 39.2491 45.8127
4523.82 37.2482 41.176
4526.73 36.3381 44.234
4529.63 32.642 37.049
4532.54 35.7035 43.2366
4535.44 37.7604 45.4008
4538.35 38.0927 43.7455
4541.25 35.5012 38.5707
4544.16 37.0227 41.5804
4547.07 34.2118 39.37
4549.97 37.7689 41.6784
4552.88 38.323 43.7497
4555.78 37.4208 42.0077
4558.69 38.6275 44.1538
4561.59 41.3997 44.2507
4564.5 40.1051 44.5435
4567.4 36.3791 38.4954
4570.31 38.8857 41.5258
4573.21 41.9106 44.4071
4576.12 41.2019 43.8771
4579.02 42.0577 45.8708
4581.93 43.6251 47.7173
4584.83 34.0758 37.5125
4587.74 40.6458 44.8513
4590.64 38.1814 39.626
4593.55 37.5557 40.0688
4596.45 36.6076 38.718
4599.36 40.7698 41.9492
4602.26 41.1187 41.8609
4605.17 39.1651 35.591
4608.07 41.4825 42.0836
4610.97 37.8483 38.3697
4613.88 40.7091 40.7203
4616.78 40.3449 40.2035
4619.69 39.9182 41.1528
4622.59 36.7461 38.6505
4625.5 40.1692 37.761
4628.4 39.8535 39.202
4631.3 40.2795 37.1661
4634.21 38.323 35.9761
4637.11 39.8191 39.4647
4640.02 39.4085 40.1499
4642.92 44.5431 43.7117
4645.82 41.0495 40.3573
4648.73 40.6247 40.9244
4651.63 37.2962 37.2234
4654.53 42.7288 40.2389
4657.44 39.4918 38.5841
4660.34 39.49 36.8769
4663.24 39.1629 38.3328
4666.15 36.1888 36.2898
4669.05 38.7917 38.1016
4671.95 38.9236 34.9029
4674.86 43.038 41.0725
4677.76 39.3112 38.6522
4680.66 39.6983 37.6074
4683.57 45.1333 44.9275
4686.47 40.9341 42.2266
4689.37 42.4453 40.7458
4692.28 42.682 38.5695
4695.18 39.9002 40.3259
4698.08 39.884 38.0457
4700.98 45.8444 46.812
4703.89 45.0949 46.6288
4706.79 42.4984 40.9175
4709.69 42.7522 44.0097
4712.59 40.3136 43.692
4715.5 38.5589 39.8679
4718.4 41.0769 41.5573
4721.3 41.5309 42.2587
4724.2 44.3565 45.2402
4727.1 42.1802 41.2108
4730.01 38.9522 39.5583
4732.91 36.8131 37.0883
4735.81 40.0239 39.1632
4738.71 38.455 39.4545
4741.61 43.4559 44.7234
4744.52 39.937 41.6124
4747.42 41.5358 40.9183
4750.32 40.013 43.233
4753.22 37.1609 38.5156
4756.12 34.7913 38.5545
4759.02 38.5326 42.6235
4761.92 34.5456 42.1257
4764.83 37.4932 39.5762
4767.73 37.4203 40.2515
4770.63 35.0205 37.5629
4773.53 33.9236 43.0286
4776.43 30.8828 38.9186
4779.33 37.165 41.4193
4782.23 36.1787 39.0573
4785.13 35.6673 39.1742
4788.03 31.8761 41.9377
4790.94 39.344 43.7427
4793.84 36.3491 41.8909
4796.74 34.9046 36.7564
4799.64 33.4452 42.0445
4802.54 35.5603 40.242
4805.44 39.7712 44.8384
4808.34 34.9619 42.2019
4811.24 37.3407 41.9793
4814.14 32.7554 40.5653
4817.04 37.8011 42.5262
4819.94 38.2741 42.4054
4822.84 33.6268 41.0111
4825.74 36.8549 41.639
4828.64 35.7846 45.7309
4831.54 38.0362 43.4166
4834.44 39.084 42.2444
4837.34 32.4448 40.4774
4840.24 36.068 45.0869
4843.14 40.4641 43.774
4846.04 37.5103 45.3924
4848.94 40.2632 43.1399
4851.84 37.1341 44.8499
4854.74 40.099 44.107
4857.63 42.9378 48.2534
4860.53 39.4021 43.0265
4863.43 39.5888 44.0274
4866.33 43.4637 48.1703
4869.23 41.0001 44.3876
4872.13 39.8496 43.6221
4875.03 38.3156 44.5381
4877.93 42.3241 46.9087
4880.83 40.0224 44.8865
4883.73 41.087 47.2437
4886.62 42.9019 48.2375
4889.52 43.0567 49.9318
4892.42 46.2076 51.563
4895.32 40.1497 45.0479
4898.22 45.3151 53.5715
4901.12 42.8342 49.7439
4904.01 44.0419 53.2946
4906.91 39.8995 46.6061
4909.81 42.0462 48.1696
4912.71 42.6546 48.2561
4915.61 38.2024 47.9023
4918.5 47.3056 53.0564
4921.4 39.1477 44.6443
4924.3 35.2847 43.9021
4927.2 40.2785 44.8932
4930.09 39.7428 44.8049
4932.99 43.2793 48.4937
4935.89 35.1412 45.5677
4938.79 33.7322 42.3303
4941.68 37.7919 44.558
4944.58 34.2679 42.0031
4947.48 37.8283 43.5649
4950.38 39.8674 44.1138
4953.27 38.0265 43.6225
4956.17 38.5774 43.9583
4959.07 30.7868 39.4762
4961.96 35.6319 40.5062
4964.86 40.879 44.9701
4967.76 35.7958 45.872
4970.65 43.9643 48.4462
4973.55 40.3431 43.6738
4976.45 39.1883 45.1286
4979.34 40.2591 46.1699
4982.24 41.9175 46.8057
4985.13 42.8727 48.4094
4988.03 40.8019 48.931
4990.93 38.2291 42.3722
4993.82 38.4833 43.7272
4996.72 40.7699 46.9578
4999.61 40.6779 46.1408
5002.51 43.0677 49.6828
5005.41 42.177 47.7124
5008.3 42.0495 47.5024
5011.2 39.7651 45.4854
5014.09 40.9492 47.095
5016.99 44.323 49.3158
5019.88 44.8834 51.3833
5022.78 43.8866 51.6202
5025.67 43.0768 49.8597
5028.57 40.6946 46.2244
5031.46 34.9871 45.9196
5034.36 44.3799 51.5742
5037.25 43.892 51.59
5040.15 40.9021 47.2197
5043.04 42.9732 50.6645
5045.94 43.8099 52.7656
5048.83 44.277 51.4297
5051.73 44.5968 53.9036
5054.62 41.4779 48.1953
5057.52 41.3449 50.0738
5060.41 36.2051 49.396
5063.3 42.9384 50.4836
5066.2 41.0314 53.6843
5069.09 42.1746 50.5226
5071.99 42.5612 51.0367
5074.88 37.282 49.6417
5077.77 43.8389 52.1176
5080.67 42.2028 49.7997
5083.56 43.3288 52.2628
5086.46 43.4164 50.8905
5089.35 38.8036 51.4183
5092.24 41.6003 51.2507
5095.14 41.7838 51.4059
5098.03 43.7873 52.6064
5100.92 42.0745 49.9151
5103.82 41.49 50.6124
5106.71 44.1727 53.5061
5109.6 44.1347 51.0725
5112.49 41.9336 51.6543
5115.39 42.6079 52.5928
5118.28 39.1991 47.5607
5121.17 40.5657 51.2402
5124.07 42.8127 53.8845
5126.96 42.9226 51.0306
5129.85 36.2303 48.5168
5132.74 38.6373 52.2962
5135.64 46.1658 55.307
5138.53 42.789 49.2187
5141.42 45.55 54.1749
5144.31 45.3458 53.0838
5147.2 40.2688 52.6162
5150.1 45.5158 54.8372
5152.99 44.7993 53.5604
5155.88 45.6929 55.1765
5158.77 46.3744 54.7589
5161.66 42.1944 50.7815
5164.55 42.8332 51.9318
5167.45 45.5453 54.3144
5170.34 41.351 49.7909
5173.23 45.3256 56.1668
5176.12 45.2005 55.4872
5179.01 44.1894 54.1116
5181.9 45.4279 56.2745
5184.79 46.5485 58.132
5187.68 47.9534 58.754
5190.57 46.6061 57.6971
5193.46 46.1112 61.1806
5196.35 46.5395 56.2119
5199.25 48.3596 58.1233
5202.14 42.7291 58.5002
5205.03 41.206 55.5554
5207.92 46.8703 58.2767
5210.81 46.2464 56.8234
5213.7 48.652 60.0353
5216.59 49.2335 59.6338
5219.48 44.1552 59.798
5222.37 43.5768 53.8522
5225.26 40.416 56.1643
5228.15 47.6415 59.6697
5231.04 46.3457 57.4127
5233.92 44.9687 56.7681
5236.81 47.798 59.183
5239.7 43.692 60.2897
5242.59 49.2618 59.8251
5245.48 47.3961 59.8592
5248.37 46.2447 57.4236
5251.26 45.5883 56.2067
5254.15 45.0491 54.944
5257.04 46.0885 57.0251
5259.93 47.2345 60.5519
5262.81 49.5648 61.0249
5265.7 48.7206 60.0377
5268.59 46.9603 57.1888
5271.48 47.6677 57.9412
5274.37 50.7782 62.261
5277.26 47.177 57.5213
5280.15 49.8716 61.8771
5283.03 48.4581 59.9194
5285.92 49.9708 60.9231
5288.81 48.7673 59.9491
5291.7 48.7875 59.182
5294.58 44.4819 59.6653
5297.47 48.6948 65.0215
5300.36 50.7788 65.7231
5303.25 49.1118 61.6599
5306.13 49.4291 61.6861
5309.02 46.3968 62.9673
5311.91 45.9726 64.5768
5314.8 50.4535 62.7867
5317.68 49.7574 62.9577
5320.57 52.4509 65.269
5323.46 50.8477 64.5043
5326.34 52.0552 64.9641
5329.23 52.1982 65.54
5332.12 46.2727 56.9118
5335 53.1876 67.7028
5337.89 45.9192 62.7413
5340.78 49.2786 59.3059
5343.66 50.8464 61.4731
5346.55 44.6606 61.3583
5349.43 49.9048 61.0697
5352.32 48.9248 61.5951
5355.21 46.0216 58.9538
5358.09 50.6281 64.4391
5360.98 52.7929 67.2504
5363.86 53.5018 66.6495
5366.75 46.9497 64.9419
5369.63 54.9917 68.0479
5372.52 52.4761 71.1804
5375.4 52.5936 67.1346
5378.29 48.0884 61.4316
5381.17 47.6344 64.0544
5384.06 52.2593 64.9438
5386.94 54.1704 67.4226
5389.83 57.8275 71.2873
5392.71 57.9134 71.2035
5395.6 54.5215 68.3694
5398.48 55.8711 71.4645
5401.37 55.8996 70.0968
5404.25 51.8084 65.4214
5407.14 51.94 64.4026
5410.02 47.641 66.125
5412.9 48.5412 61.8021
5415.79 54.2919 68.4105
5418.67 45.9477 62.4867
5421.56 52.3106 65.8139
5424.44 54.376 67.4673
5427.32 48.9776 65.8898
5430.21 49.6347 68.2463
5433.09 53.6288 68.7537
5435.97 57.6902 71.705
5438.86 55.9877 71.2218
5441.74 50.5802 68.5638
5444.62 55.1862 69.579
5447.51 53.1435 68.4551
5450.39 52.6938 70.6456
5453.27 53.4321 66.9621
5456.15 55.2622 69.1336
5459.04 52.4352 67.9579
5461.92 54.8009 69.1293
5464.8 50.1925 69.8849
5467.68 54.6225 69.38
5470.57 54.2401 66.9695
5473.45 54.7471 69.1548
5476.33 53.629 68.374
5479.21 50.9287 64.8247
5482.09 49.1425 68.1464
5484.97 48.1976 66.5836
5487.86 50.9204 63.9521
5490.74 55.9108 69.6444
5493.62 53.1002 67.8679
5496.5 50.9548 69.5212
5499.38 50.6267 65.5659
5502.26 52.8262 67.9849
5505.14 52.9339 67.7221
5508.02 54.5685 68.9212
5510.91 58.9416 74.8695
5513.79 52.8877 67.3554
5516.67 53.5868 66.2636
5519.55 56.4086 72.0998
5522.43 50.3618 70.0126
5525.31 57.7007 72.6119
5528.19 53.7668 67.9903
5531.07 52.0105 65.8715
5533.95 53.1487 68.288
5536.83 55.3697 70.178
5539.71 53.9113 68.9704
5542.59 48.3973 66.5898
5545.47 54.684 68.2565
5548.35 52.8242 68.2057
5551.23 53.8517 67.6009
5554.11 52.2722 66.8396
5556.98 54.3842 67.6612
5559.86 50.9388 70.24
5562.74 50.9851 71.082
5565.62 57.6407 75.5345
5568.5 56.7992 77.5677
5571.38 59.8333 80.4583
5574.26 55.4525 70.209
5577.14 61.2026 71.8716
5580.01 34.1512 82.1978
5582.89 55.0721 73.047
5585.77 57.716 71.3756
5588.65 43.9842 69.846
5591.53 52.4288 67.3859
5594.41 52.0546 66.5162
5597.28 56.4479 71.5813
5600.16 53.9072 68.8146
5603.04 58.0465 72.3447
5605.92 55.0033 75.1987
5608.79 51.2841 70.4691
5611.67 55.6843 70.2007
5614.55 52.1778 66.0265
5617.43 55.2963 69.9674
5620.3 56.0524 71.3491
5623.18 53.3559 73.414
5626.06 54.9916 70.0806
5628.93 55.1502 69.3422
5631.81 53.7557 76.2544
5634.69 57.1911 75.1811
5637.56 49.5924 70.675
5640.44 56.0651 71.8498
5643.31 51.6672 71.5272
5646.19 48.7978 69.6521
5649.07 55.7724 72.2921
5651.94 55.2178 70.4485
5654.82 55.5633 70.1732
5657.69 52.0157 70.5112
5660.57 55.0231 70.1092
5663.44 56.5704 72.2777
5666.32 53.3665 67.4297
5669.2 49.3141 68.6396
5672.07 47.5966 67.4365
5674.95 56.3629 72.6491
5677.82 46.5043 67.3234
5680.7 54.0867 69.7993
5683.57 52.9248 68.3575
5686.44 53.4829 67.4759
5689.32 51.9492 72.6418
5692.19 58.2316 72.9769
5695.07 55.0771 69.0797
5697.94 51.0233 73.1599
5700.82 55.6951 73.2121
5703.69 51.8176 71.8987
5706.56 55.6781 71.4611
5709.44 55.8877 72.8792
5712.31 53.6975 67.9696
5715.19 58.4811 75.8752
5718.06 52.4827 69.0112
5720.93 57.1764 73.7712
5723.81 55.9862 70.8319
5726.68 56.7829 71.9981
5729.55 55.509 72.0276
5732.42 49.2736 69.1249
5735.3 54.5035 72.7416
5738.17 55.8133 71.3908
5741.04 57.8834 72.8913
5743.91 51.7355 71.3368
5746.79 56.5604 73.1118
5749.66 54.0798 71.7941
5752.53 54.3757 70.6218
5755.4 56.442 72.244
5758.28 56.6337 74.4541
5761.15 57.7397 75.8777
5764.02 51.3074 70.2272
5766.89 53.7499 69.6065
5769.76 59.7215 77.7945
5772.63 56.0362 71.443
5775.5 55.3125 71.9623
5778.38 57.5017 74.7197
5781.25 49.1111 69.1466
5784.12 49.6925 69.4316
5786.99 57.9263 75.0744
5789.86 51.2726 71.0527
5792.73 54.9902 70.9656
5795.6 55.5198 70.9997
5798.47 56.7436 72.226
5801.34 55.292 72.1789
5804.21 57.5342 74.2832
5807.08 54.9664 70.3564
5809.95 58.733 77.1512
5812.82 57.4674 74.5775
5815.69 61.4564 80.1884
5818.56 58.3872 75.6816
5821.43 61.1997 78.2456
5824.3 57.2975 73.6808
5827.17 58.8653 75.0283
5830.04 58.7819 74.3295
5832.91 59.8646 76.8582
5835.78 58.6541 76.4011
5838.64 56.2772 73.5109
5841.51 57.5273 74.5198
5844.38 57.6581 74.827
5847.25 59.0959 75.8329
5850.12 58.9631 76.0669
5852.99 56.981 73.6534
5855.85 55.7369 71.5757
5858.72 61.1013 78.264
5861.59 60.5265 81.3536
5864.46 58.243 76.727
5867.33 56.6795 71.7287
5870.19 57.0587 73.9379
5873.06 55.0584 73.2643
5875.93 60.4997 77.1563
5878.8 54.5263 70.6632
5881.66 58.2956 76.5631
5884.53 46.9624 74.1245
5887.4 61.4833 81.1143
5890.26 60.1635 76.2773
5893.13 41.0446 71.6419
5896 47.0397 78.2908
5898.86 55.3882 71.2117
5901.73 55.0871 71.4112
5904.6 57.1936 71.8477
5907.46 56.9138 72.9969
5910.33 57.8256 75.1024
5913.19 56.2548 72.7073
5916.06 57.3305 75.7164
5918.92 53.3563 77.0207
5921.79 60.7994 79.0697
5924.66 56.4206 80.5432
5927.52 60.8209 77.7258
5930.39 61.4992 79.0792
5933.25 49.4189 75.024
5936.12 56.5719 72.8059
5938.98 50.8378 75.4308
5941.85 50.091 73.9813
5944.71 49.3592 72.6281
5947.57 58.8702 75.8845
5950.44 58.8247 77.5468
5953.3 57.1867 72.7869
5956.17 57.7512 74.3718
5959.03 57.841 75.674
5961.89 58.8075 78.0544
5964.76 60.6021 78.4584
5967.62 58.3083 76.1323
5970.48 58.6756 74.9465
5973.35 55.8724 72.9638
5976.21 50.0127 66.326
5979.07 47.8327 62.6505
5981.94 49.5396 63.889
5984.8 47.7439 69.1106
5987.66 50.1973 66.6676
5990.53 53.0317 70.1351
5993.39 51.7803 68.0419
5996.25 54.9073 72.0621
5999.11 50.0101 73.053
6001.98 59.3203 77.8907
6004.84 52.4199 75.0361
6007.7 57.2779 74.161
6010.56 53.0699 70.2714
6013.42 57.7431 74.8303
6016.28 59.3437 76.8429
6019.15 60.055 76.1151
6022.01 55.7998 78.526
6024.87 53.9396 73.9869
6027.73 56.6763 77.9365
6030.59 54.2728 75.0353
6033.45 55.2822 74.5418
6036.31 54.5085 74.8736
6039.17 49.2211 74.9539
6042.03 48.0781 75.0222
6044.89 53.6678 73.2065
6047.75 52.268 76.4149
6050.61 54.6767 76.321
6053.47 59.597 81.0128
6056.33 50.5799 76.4838
6059.19 53.2797 73.3351
6062.05 51.7021 72.2121
6064.91 53.9763 73.7494
6067.77 56.3567 76.5047
6070.63 48.8417 74.5093
6073.49 57.1984 78.6607
6076.35 53.7843 75.1902
6079.21 55.8164 78.0048
6082.07 54.2616 76.6725
6084.92 54.3226 74.1638
6087.78 54.6532 73.785
6090.64 56.4919 79.0599
6093.5 53.3637 73.645
6096.36 56.8232 78.6967
6099.21 52.4921 74.4776
6102.07 48.3789 74.2098
6104.93 52.3024 77.7085
6107.79 53.6663 74.3296
6110.65 56.4447 77.4477
6113.5 49.9249 71.1015
6116.36 55.1232 74.7543
6119.22 56.0674 77.0248
6122.07 56.0426 76.2478
6124.93 58.3452 79.7359
6127.79 52.2392 77.1888
6130.64 57.4318 78.6902
6133.5 57.9487 78.8211
6136.36 52.2989 78.6471
6139.21 55.7786 75.6517
6142.07 55.3863 76.8873
6144.92 56.1399 76.3617
6147.78 57.358 78.9779
6150.64 52.9668 77.6344
6153.49 57.5592 77.488
6156.35 55.4771 76.0781
6159.2 58.1489 78.1709
6162.06 50.833 73.8797
6164.91 56.7318 78.1057
6167.77 56.7592 76.9889
6170.62 54.4827 79.8087
6173.48 55.3464 75.2779
6176.33 54.0713 75.3209
6179.19 57.161 78.3211
6182.04 57.1752 79.895
6184.89 56.2562 78.1534
6187.75 56.5992 77.5989
6190.6 55.2783 73.1245
6193.45 56.8839 78.2658
6196.31 53.6991 74.5287
6199.16 49.1078 73.5184
6202.02 57.6583 78.3566
6204.87 56.0394 76.5854
6207.72 57.6249 77.947
6210.57 58.6369 81.5003
6213.43 56.717 77.2752
6216.28 55.8435 77.3234
6219.13 55.6092 82.0155
6221.98 57.071 79.9719
6224.84 55.7751 76.361
6227.69 57.935 81.591
6230.54 58.7579 78.3705
6233.39 57.1033 77.6484
6236.24 51.1692 80.2587
6239.1 61.444 84.7339
6241.95 60.3294 82.3855
6244.8 53.5187 80.9172
6247.65 60.8399 81.8312
6250.5 58.977 79.9243
6253.35 50.4003 76.6097
6256.2 57.9938 78.6043
6259.05 57.7195 77.731
6261.9 59.5697 80.9411
6264.75 57.6924 80.869
6267.6 56.8184 78.9879
6270.45 55.2494 82.7114
6273.3 60.8133 82.309
6276.15 56.4529 82.5098
6279 60.8967 80.9872
6281.85 58.1392 79.6134
6284.7 60.0777 82.4872
6287.55 55.7333 77.1461
6290.4 61.1491 84.9785
6293.25 61.0185 79.5362
6296.1 44.1395 81.9144
6298.95 61.3414 82.4228
6301.8 61.8543 83.1944
6304.65 57.9264 80.2255
6307.49 55.54 75.0834
6310.34 47.8132 78.0057
6313.19 58.6405 79.7228
6316.04 54.9042 75.8043
6318.89 59.4151 80.4503
6321.73 59.2854 80.0597
6324.58 58.5113 79.3967
6327.43 55.3089 82.7639
6330.28 48.5782 73.4536
6333.12 57.2029 78.1588
6335.97 54.7811 81.1849
6338.82 59.8584 81.4008
6341.66 54.393 72.8726
6344.51 53.9175 78.2578
6347.36 55.1699 81.9359
6350.2 57.0954 77.0977
6353.05 52.6106 79.9132
6355.9 59.2059 78.3259
6358.74 62.1833 84.3426
6361.59 63.7036 85.0999
6364.43 51.2362 81.7333
6367.28 58.6921 80.2354
6370.12 58.1523 78.8268
6372.97 63.3693 84.9493
6375.81 57.8369 77.549
6378.66 51.8338 76.2828
6381.5 57.6743 84.6362
6384.35 61.4423 82.0507
6387.19 62.2516 81.2537
6390.04 54.148 78.1994
6392.88 62.2248 81.4767
6395.73 61.679 82.0844
6398.57 59.723 80.5502
6401.41 61.6836 84.3812
6404.26 62.732 83.755
6407.1 57.5465 83.9635
6409.94 61.623 83.4668
6412.79 61.7408 83.9339
6415.63 57.399 77.7124
6418.47 65.3797 85.6295
6421.32 61.6582 81.6991
6424.16 66.2758 89.5662
6427 58.8162 78.1141
6429.84 64.3817 84.0271
6432.69 54.0458 78.4007
6435.53 57.1171 81.4008
6438.37 62.7712 83.4956
6441.21 60.7842 80.859
6444.05 60.9957 81.0116
6446.89 59.2166 78.4778
6449.74 60.6888 81.5095
6452.58 61.8805 83.4521
6455.42 58.9645 79.5708
6458.26 62.6548 82.1348
6461.1 57.3141 77.1344
6463.94 61.0616 80.5223
6466.78 59.3659 81.578
6469.62 60.2704 82.047
6472.46 58.024 84.1517
6475.3 61.6075 81.7117
6478.14 61.7097 81.9045
6480.98 63.4558 84.0556
6483.82 62.6966 83.5758
6486.66 62.1959 82.4543
6489.5 56.4393 76.4312
6492.34 58.4159 77.6933
6495.18 57.9413 77.8466
6498.02 53.693 83.0551
6500.86 61.6687 81.9967
6503.69 61.8213 81.8722
6506.53 59.2871 79.2185
6509.37 51.648 75.2838
6512.21 49.8539 74.2774
6515.05 57.3097 74.5545
6517.89 53.8413 77.5725
6520.72 55.0494 80.1272
6523.56 58.8571 78.6465
6526.4 62.3748 83.9659
6529.24 57.8212 76.218
6532.07 54.9165 82.0313
6534.91 57.419 76.3312
6537.75 53.0196 77.7466
6540.58 61.5458 82.9697
6543.42 60.382 79.2352
6546.26 59.1035 77.8402
6549.09 57.5795 76.3244
6551.93 53.1831 79.5737
6554.76 56.618 76.0481
6557.6 61.6893 81.939
6560.44 58.5023 78.2962
6563.27 58.8952 78.8848
6566.11 60.3939 79.9354
6568.94 58.8537 76.6924
6571.78 58.3568 75.666
6574.61 61.6514 81.4018
6577.45 62.9676 82.2287
6580.28 56.7763 75.1449
6583.12 58.9736 77.9731
6585.95 62.6633 81.1378
6588.78 53.6916 75.7293
6591.62 56.0067 73.6765
6594.45 54.2591 75.9745
6597.29 60.7385 79.6384
6600.12 51.7783 75.5997
6602.95 53.8876 78.0886
6605.79 61.3552 80.4426
6608.62 58.7442 77.1577
6611.45 59.5269 83.1006
6614.29 54.0841 76.2569
6617.12 63.2723 87.1224
6619.95 58.5491 81.6358
6622.78 57.0475 80.4211
6625.62 64.7687 82.9528
6628.45 60.4124 79.2867
6631.28 62.1128 82.0202
6634.11 62.7118 82.192
6636.94 59.3241 78.7125
6639.77 64.984 87.1399
6642.61 60.001 84.305
6645.44 69.1906 91.1964
6648.27 68.5832 89.241
6651.1 66.2511 87.1473
6653.93 68.967 91.3046
6656.76 88.8989 115.374
6659.59 99.5219 133.698
6662.42 103.703 138.824
6665.25 101.343 129.952
6668.08 85.8719 110.611
6670.91 74.7081 100.543
6673.74 70.1649 91.9555
6676.57 67.9209 92.2704
6679.4 78.252 100.681
6682.23 77.1269 99.9548
6685.06 74.5241 101.405
6687.89 74.2066 96.6246
6690.71 64.1705 87.5304
6693.54 66.3448 85.4049
6696.37 61.969 85.315
6699.2 64.3107 83.5801
6702.03 61.3402 81.258
6704.85 67.0083 89.0147
6707.68 63.3324 80.6564
6710.51 63.2642 81.9599
6713.34 63.241 82.9664
6716.16 63.3229 83.6296
6718.99 66.3948 85.0397
6721.82 66.8003 86.6384
6724.65 64.6082 85.7698
6727.47 63.4542 83.3877
6730.3 62.1652 84.2314
6733.13 60.2044 79.3973
6735.95 61.0455 78.0732
6738.78 62.1667 80.5428
6741.6 59.7222 83.2519
6744.43 58.1333 80.893
6747.25 61.1479 79.1926
6750.08 62.1883 80.616
6752.91 61.2187 78.064
6755.73 64.8718 85.7057
6758.56 60.1847 81.1607
6761.38 57.2133 76.789
6764.2 64.8039 84.8307
6767.03 59.0591 77.7195
6769.85 60.3242 83.7061
6772.68 59.8084 80.3868
6775.5 62.2656 80.2046
6778.32 61.1501 77.617
6781.15 61.8986 79.8869
6783.97 64.9354 82.7515
6786.8 63.8325 82.9458
6789.62 65.6652 85.0172
6792.44 63.2143 79.9018
6795.26 63.9482 82.1415
6798.09 63.7325 81.7458
6800.91 67.1264 85.9101
6803.73 61.2797 77.9512
6806.55 62.8924 79.818
6809.38 60.909 79.1179
6812.2 64.7996 82.7872
6815.02 64.4006 87.2492
6817.84 70.9266 92.0181
6820.66 68.0282 85.8814
6823.48 57.4327 84.7091
6826.3 66.0441 84.8888
6829.13 64.6547 83.4196
6831.95 62.1 78.624
6834.77 67.4593 84.8511
6837.59 65.4124 83.8961
6840.41 61.6693 77.962
6843.23 59.6209 75.443
6846.05 58.2231 76.0583
6848.87 58.0583 73.765
6851.69 57.9827 78.9185
6854.51 53.7046 74.7425
6857.33 57.9068 75.4424
6860.14 49.4485 75.8031
6862.96 55.3641 72.5536
6865.78 47.6912 62.8544
6868.6 49.0359 63.0738
6871.42 47.7247 61.1503
6874.24 47.7354 60.3411
6877.06 46.8227 59.8168
6879.87 53.3943 68.1579
6882.69 54.2066 69.0875
6885.51 53.8912 69.637
6888.33 52.6196 67.6135
6891.14 52.9388 69.4849
6893.96 53.2764 67.8183
6896.78 54.4631 69.2084
6899.59 54.1779 67.6473
6902.41 53.1782 67.7011
6905.23 50.2031 70.9303
6908.04 56.8006 72.6231
6910.86 57.6978 74.4904
6913.68 59.6037 78.9407
6916.49 57.2526 74.1626
6919.31 57.815 74.8744
6922.12 49.527 70.3735
6924.94 60.9702 77.6963
6927.75 57.6761 72.9568
6930.57 51.7494 71.847
6933.38 58.029 73.5463
6936.2 56.9981 70.6704
6939.01 57.9315 74.1488
6941.83 58.4666 72.6313
6944.64 58.2773 75.6655
6947.45 56.2533 72.4036
6950.27 55.0865 69.8603
6953.08 58.8634 73.9606
6955.9 54.4567 74.0041
6958.71 58.6721 75.7079
6961.52 59.3192 76.0314
6964.33 55.8913 75.8203
6967.15 54.5662 75.735
6969.96 53.2759 73.9325
6972.77 59.9615 76.4647
6975.58 62.0661 78.0251
6978.4 61.7084 78.2937
6981.21 58.9711 75.4647
6984.02 59.8854 76.8944
6986.83 62.2817 76.6949
6989.64 54.7481 74.6545
6992.45 61.8897 78.1785
6995.27 60.5808 75.8313
6998.08 60.0734 75.6796
7000.89 62.1533 77.762
7003.7 57.0251 73.3336
7006.51 58.1367 73.0289
7009.32 55.3964 74.9494
7012.13 61.0023 76.7432
7014.94 63.6601 79.2809
7017.75 59.7095 75.4312
7020.56 61.9181 77.8694
7023.37 59.8596 76.6278
7026.18 54.2301 73.5125
7028.98 58.3785 76.8531
7031.79 48.9517 70.6427
7034.6 54.6565 74.1125
7037.41 58.0042 77.793
7040.22 53.7451 72.6738
7043.03 52.476 74.4921
7045.83 56.299 76.0652
7048.64 49.4056 71.9932
7051.45 56.48 75.0638
7054.26 56.1061 73.9043
7057.06 54.8515 74.0796
7059.87 53.1129 75.6949
7062.68 51.5652 72.3039
7065.49 59.8499 79.8702
7068.29 55.9217 74.8333
7071.1 58.2876 75.9585
7073.9 51.7936 73.2007
7076.71 54.6525 77.4809
7079.52 60.8748 80.7703
7082.32 58.1602 76.0133
7085.13 52.207 76.7118
7087.93 55.4415 75.1446
7090.74 56.8548 76.3131
7093.54 57.6313 75.1584
7096.35 57.1779 75.7418
7099.15 57.6778 73.464
7101.96 55.787 72.7753
7104.76 54.7973 72.7485
7107.57 54.258 76.2412
7110.37 55.5354 78.5186
7113.17 54.8594 68.9612
7115.98 57.5865 74.8339
7118.78 57.5169 75.2928
7121.58 59.4943 77.0621
7124.39 54.8941 74.8253
7127.19 56.6732 75.9857
7129.99 53.0799 71.967
7132.79 59.9974 78.2979
7135.6 59.3022 77.0457
7138.4 61.0229 77.9354
7141.2 56.8254 79.674
7144 59.4765 77.3178
7146.8 52.5619 74.1059
7149.61 58.6182 73.4175
7152.41 56.7493 78.1899
7155.21 64.3249 86.1807
7158.01 58.6507 78.4128
7160.81 63.7163 80.9371
7163.61 60.3903 75.8069
7166.41 57.3401 72.9285
7169.21 55.2183 71.1853
7172.01 52.9652 73.4984
7174.81 51.0312 66.038
7177.61 52.4316 69.7052
7180.41 52.9327 69.7368
7183.21 53.7458 71.0197
7186.01 51.2062 64.4205
7188.81 52.4449 70.1445
7191.61 51.5718 65.6024
7194.4 51.9613 66.0553
7197.2 54.6325 67.9402
7200 49.8606 68.2438
7202.8 60.7351 77.9144
7205.6 56.3921 71.84
7208.39 53.8657 69.7826
7211.19 58.8729 81.1968
7213.99 60.7685 76.3916
7216.79 63.0028 78.6072
7219.58 59.9896 77.5568
7222.38 57.5811 71.121
7225.18 58.8948 75.6071
7227.97 52.4749 71.9709
7230.77 54.4972 68.7266
7233.56 57.9848 70.7477
7236.36 44.9475 73.3571
7239.16 50.3233 64.5875
7241.95 52.0735 65.0415
7244.75 49.7248 65.7414
7247.54 53.5574 71.9571
7250.34 39.2901 63.2579
7253.13 55.1752 71.5717
7255.93 54.4735 67.0657
7258.72 45.1812 63.6995
7261.51 51.977 68.9291
7264.31 48.7849 66.9427
7267.1 50.1444 61.7071
7269.9 45.7633 67.5956
7272.69 34.3231 63.6385
7275.48 52.2163 68.0423
7278.27 51.7722 70.3086
7281.07 36.763 69.5184
7283.86 56.5547 72.9598
7286.65 46.2739 69.7298
7289.45 52.5155 70.6244
7292.24 57.0891 73.2309
7295.03 52.9822 67.2954
7297.82 59.3706 70.5557
7300.61 56.2438 65.988
7303.4 54.2572 68.7303
7306.2 52.7672 65.2446
7308.99 57.5069 68.6972
7311.78 57.0816 66.0752
7314.57 54.4623 68.4746
7317.36 58.1508 73.3672
7320.15 57.7413 76.2816
7322.94 62.4149 78.205
7325.73 59.3066 75.3858
7328.52 58.8508 71.0933
7331.31 59.0351 76.3804
7334.1 66.4452 78.4098
7336.89 55.3664 67.327
7339.67 62.2623 76.3906
7342.46 59.7105 73.7617
7345.25 48.2684 78.3049
7348.04 60.4877 77.0572
7350.83 60.8642 72.9662
7353.62 56.1666 68.524
7356.4 59.9587 74.8811
7359.19 60.3666 74.4527
7361.98 45.6306 67.1329
7364.77 49.4701 73.5186
7367.55 61.1146 71.1259
7370.34 62.0182 76.0575
7373.13 52.6904 77.1727
7375.91 57.4777 70.9544
7378.7 62.2983 75.4044
7381.49 60.3307 73.1718
7384.27 58.7778 71.7986
7387.06 61.9347 71.7206
7389.84 60.4124 72.1903
7392.63 58.4249 70.8655
7395.41 60.4292 70.4418
7398.2 57.5196 73.1597
7400.98 56.1478 69.4092
7403.77 61.8672 78.2267
7406.55 62.0002 75.9014
7409.34 59.8878 74.2529
7412.12 59.1917 71.079
7414.9 59.9745 69.4947
7417.69 62.5579 72.2285
7420.47 61.9456 73.5533
7423.25 60.2292 69.9525
7426.04 63.9571 73.304
7428.82 60.0062 69.8821
7431.6 66.2457 78.4566
7434.38 55.7872 72.7596
7437.17 61.1182 73.4903
7439.95 66.095 77.4261
7442.73 61.4668 74.9355
7445.51 61.7697 78.5346
7448.29 61.5332 75.9269
7451.07 65.5559 77.5685
7453.86 62.9277 73.8387
7456.64 59.9352 76.1125
7459.42 66.47 74.5741
7462.2 64.1323 74.2732
7464.98 67.9576 78.1209
7467.76 60.8109 79.0154
7470.54 52.8954 67.6528
7473.32 55.1455 74.9437
7476.1 67.2079 79.0909
7478.88 64.9153 74.5339
7481.66 66.5751 77.4302
7484.43 62.4883 74.1908
7487.21 63.5452 75.7091
7489.99 61.1459 79.6606
7492.77 56.1725 70.4444
7495.55 59.4309 72.725
7498.33 55.9688 70.6799
7501.1 64.2687 74.3903
7503.88 62.489 73.4061
7506.66 62.5892 72.1593
7509.44 64.8576 77.1309
7512.21 61.7786 70.9919
7514.99 65.7994 73.3687
7517.77 61.8647 71.9859
7520.54 66.3992 72.886
7523.32 63.3269 69.274
7526.09 58.2467 69.5102
7528.87 64.0839 77.7832
7531.65 53.1944 71.5164
7534.42 60.5245 71.455
7537.2 57.0363 63.7127
7539.97 54.2014 68.6336
7542.75 57.6573 67.4441
7545.52 56.347 67.8207
7548.29 58.4988 67.0059
7551.07 56.852 65.9305
7553.84 51.7282 64.5436
7556.62 57.8557 65.7827
7559.39 56.8471 65.8755
7562.16 61.3353 72.7588
7564.94 57.7748 67.7551
7567.71 63.9928 69.5634
7570.48 59.082 65.7326
7573.25 59.9438 65.3589
7576.03 58.0739 68.9652
7578.8 57.3687 63.6452
7581.57 58.721 69.0326
7584.34 55.0873 65.1693
7587.11 55.7574 64.3851
7589.89 48.4362 59.0385
7592.66 40.604 47.3382
7595.43 23.3305 30.5663
7598.2 24.5116 25.7763
7600.97 17.2354 18.6139
7603.74 15.5089 16.9229
7606.51 18.8151 20.2181
7609.28 21.486 23.1556
7612.05 28.9333 31.5284
7614.82 39.111 44.5129
7617.59 36.3275 42.6285
7620.36 37.1387 42.2929
7623.13 36.9318 41.3579
7625.89 27.0097 35.4545
7628.66 31.0004 34.424
7631.43 34.512 37.081
7634.2 32.2171 35.4645
7636.97 35.1351 39.4411
7639.74 37.2004 44.3187
7642.5 37.6372 41.9519
7645.27 41.2051 45.62
7648.04 38.4893 44.8672
7650.8 40.8768 49.7225
7653.57 48.0818 54.3235
7656.34 48.6228 55.1891
7659.1 46.9711 57.7386
7661.87 48.4499 59.4425
7664.64 46.9688 56.4325
7667.4 54.6834 61.0375
7670.17 58.9222 64.1892
7672.93 53.2518 60.5738
7675.7 57.9469 63.5511
7678.46 56.6954 59.9213
7681.23 56.8921 63.5084
7683.99 56.731 63.1536
7686.75 52.2934 62.5003
7689.52 61.8215 67.3414
7692.28 56.7763 62.3288
7695.05 56.0833 62.2541
7697.81 60.1943 65.6334
7700.57 59.3319 64.4792
7703.33 54.6152 59.5774
7706.1 60.3324 65.7063
7708.86 66.4069 66.8599
7711.62 61.0034 60.7309
7714.38 58.3902 64.5606
7717.15 56.4591 62.4742
7719.91 58.2902 63.7152
7722.67 54.2216 64.8328
7725.43 48.198 62.5567
7728.19 52.1827 66.1962
7730.95 59.1333 63.828
7733.71 59.4805 66.0009
7736.47 62.2763 65.3706
7739.23 58.3917 64.0885
7741.99 55.8567 65.3274
7744.75 63.4931 62.6768
7747.51 58.2938 60.4154
7750.27 55.0048 62.7959
7753.03 39.6066 69.8113
7755.79 60.543 65.777
7758.55 58.8753 69.1783
7761.31 56.3057 66.7544
7764.07 52.349 67.5716
7766.82 61.9039 67.6594
7769.58 64.1547 69.4924
7772.34 58.2538 64.5507
7775.1 51.4009 60.9259
7777.85 43.7445 56.5323
7780.61 56.9221 60.7489
7783.37 55.5092 61.9928
7786.13 56.9243 62.6447
7788.88 60.1265 62.715
7791.64 42.1832 59.4645
7794.39 43.9627 67.7506
7797.15 44.2386 62.7605
7799.91 54.8545 63.0515
7802.66 61.7778 66.7463
7805.42 54.4071 56.4643
7808.17 57.4357 63.0137
7810.93 56.2075 66.3078
7813.68 53.0157 57.88
7816.43 55.0982 55.9935
7819.19 58.4212 62.207
7821.94 62.4385 61.5948
7824.7 59.619 65.1042
7827.45 53.3524 58.9376
7830.2 58.0693 63.1158
7832.96 58.0204 64.0689
7835.71 50.3207 59.7252
7838.46 60.3348 64.5505
7841.21 58.3019 64.628
7843.97 58.3556 65.5209
7846.72 58.4012 65.4958
7849.47 59.883 63.3536
7852.22 61.2431 62.4428
7854.97 54.8227 55.246
7857.72 48.172 55.2032
7860.47 57.4369 58.2175
7863.22 57.5378 61.7073
7865.97 59.7778 58.4201
7868.72 53.9682 56.5407
7871.47 58.3566 59.766
7874.22 60.9176 65.8978
7876.97 55.0971 60.4767
7879.72 43.5322 62.8886
7882.47 48.4081 64.0031
7885.22 38.7305 53.9665
7887.97 64.8847 66.2692
7890.72 52.7265 53.5771
7893.47 55.3253 61.7244
7896.21 52.0245 58.654
7898.96 55.2809 61.8248
7901.71 53.299 61.6351
7904.46 55.0594 56.4416
7907.2 40.7603 52.9858
7909.95 61.6456 62.9031
7912.7 54.6732 54.1202
7915.44 58.6981 60.0231
7918.19 35.3242 67.179
7920.94 55.6201 57.7628
7923.68 49.367 70.0589
7926.43 52.5744 63.3283
7929.17 52.2085 58.4698
7931.92 52.1039 64.6795
7934.66 58.9327 64.6081
7937.41 53.8424 60.3369
7940.15 55.1443 60.4267
7942.9 52.3108 56.6493
7945.64 57.8166 61.3007
7948.38 51.0622 57.6425
7951.13 47.7447 55.5239
7953.87 52.5834 58.4137
7956.61 54.426 61.1132
7959.36 54.1238 60.7153
7962.1 53.9151 57.4453
7964.84 55.1336 58.5139
7967.59 47.8182 53.2993
7970.33 55.7008 61.2956
7973.07 48.5416 56.8334
7975.81 52.6454 57.2187
7978.55 57.2196 62.3927
7981.29 58.3314 62.9708
7984.03 49.7074 56.0438
7986.78 55.5653 62.5608
7989.52 62.1889 57.9485
7992.26 59.465 54.8972
7995 51.5709 58.3828
7997.74 52.733 59.0349
8000.48 56.1847 60.5231
8003.21 54.5535 59.1097
8005.95 56.5651 60.3397
8008.69 55.118 59.4951
8011.43 58.3804 64.1507
8014.17 56.1271 61.3562
8016.91 50.6146 57.0747
8019.65 54.0946 62.035
8022.38 54.4034 54.6077
8025.12 62.6473 64.6742
8027.86 60.7021 58.7918
8030.6 56.0836 67.8166
8033.33 51.7734 56.216
8036.07 57.632 60.1907
8038.81 57.7642 60.5312
8041.54 59.7593 63.9606
8044.28 56.6716 61.2543
8047.01 57.9245 61.0944
8049.75 57.8074 58.6381
8052.49 61.1989 66.9098
8055.22 59.6631 64.8775
8057.96 59.4589 59.616
8060.69 54.9483 53.3912
8063.42 57.8371 61.8984
8066.16 54.7969 65.4987
8068.89 59.6882 66.7922
8071.63 63.0705 65.8367
8074.36 58.8168 63.9221
8077.09 58.311 60.2399
8079.83 58.9814 62.6557
8082.56 61.8753 69.0413
8085.29 60.1996 68.8239
8088.02 60.8209 66.3008
8090.76 66.0153 70.1555
8093.49 62.1334 64.6536
8096.22 60.2665 64.2454
8098.95 57.2794 62.7515
8101.68 54.9281 60.854
8104.41 59.9718 62.6152
8107.14 60.8784 61.938
8109.87 55.1663 60.1178
8112.6 61.3034 62.8659
8115.33 59.2539 59.4116
8118.06 65.8479 66.9055
8120.79 57.4058 58.5387
8123.52 60.6586 58.8539
8126.25 59.8262 60.5353
8128.98 57.3774 58.6738
8131.71 60.6766 61.7955
8134.44 55.2888 57.4863
8137.17 58.0528 58.0768
8139.89 51.5111 54.5293
8142.62 54.8986 56.6987
8145.35 52.3886 53.7431
8148.08 56.4342 59.5743
8150.8 53.0043 57.6487
8153.53 53.8588 54.5404
8156.26 51.3139 52.2603
8158.98 55.4348 55.0217
8161.71 52.9186 55.4015
8164.44 51.2896 52.4072
8167.16 54.7876 54.551
8169.89 53.1205 52.2584
8172.61 53.2303 54.7636
8175.34 49.6539 53.6732
8178.06 53.5526 57.5127
8180.79 55.5093 58.7128
8183.51 54.2205 54.3787
8186.24 51.8918 51.2603
8188.96 52.7827 52.3543
8191.68 57.2756 57.458
8194.41 56.1101 54.6067
8197.13 53.1361 54.531
8199.85 56.12 58.5166
8202.57 58.8502 59.8973
8205.3 57.2613 55.0162
8208.02 56.5667 54.4702
8210.74 57.3532 58.4669
8213.46 55.8821 54.1065
8216.18 56.3229 58.5457
8218.91 55.2042 52.2854
8221.63 53.1039 48.5118
8224.35 50.0803 50.3584
8227.07 43.1582 40.1797
8229.79 49.4295 47.8717
8232.51 55.1031 53.7575
8235.23 55.0783 54.0582
8237.95 61.2013 55.0688
8240.67 71.41 60.2382
8243.39 63.8173 60.1077
8246.1 59.0884 59.8492
8248.82 60.794 59.398
8251.54 55.2519 56.5489
8254.26 50.4564 52.7577
8256.98 57.6582 55.8171
8259.69 56.5144 55.0784
8262.41 60.1964 55.7379
8265.13 55.461 55.3974
8267.85 56.4995 57.0145
8270.56 59.5102 60.0593
8273.28 59.897 56.2217
8276 59.1327 57.4012
8278.71 56.5449 51.2936
8281.43 48.3156 43.5147
8284.14 54.0682 52.4079
8286.86 54.3766 49.5708
8289.57 55.6589 57.7184
8292.29 48.3108 59.103
8295 50.1712 50.4035
8297.72 55.9361 59.3183
8300.43 62.0192 61.8827
8303.14 52.5504 56.597
8305.86 56.9206 63.5441
8308.57 61.4377 56.0621
8311.28 59.8636 58.3012
8314 53.5668 56.5184
8316.71 54.373 50.8617
8319.42 56.8798 55.3738
8322.13 56.6175 57.6977
8324.85 58.4972 56.9163
8327.56 58.1052 58.1796
8330.27 55.3062 56.2293
8332.98 53.8794 50.5362
8335.69 52.0409 52.6857
8338.4 53.6608 52.9119
8341.11 53.7061 40.9095
8343.82 47.1716 47.1698
8346.53 59.896 62.2465
8349.24 46.7294 59.221
8351.95 58.1577 65.823
8354.66 50.4544 42.456
8357.37 59.9043 64.1554
8360.08 54.8074 53.0867
8362.79 56.7002 52.1793
8365.5 60.3068 56.4438
8368.2 58.9732 63.6502
8370.91 59.4534 59.6837
8373.62 64.6571 61.1871
8376.33 57.9468 57.2012
8379.03 62.7522 58.5514
8381.74 60.5929 50.6759
8384.45 60.8744 51.5826
8387.15 56.8462 53.6419
8389.86 61.0463 57.0788
8392.57 56.8403 59.9514
8395.27 70.0851 60.5126
8397.98 64.1505 54.9499
8400.68 63.7626 49.464
8403.39 60.6696 58.6273
8406.09 53.2059 54.6648
8408.8 57.9374 55.6219
8411.5 63.7789 53.8291
8414.2 57.291 51.9517
8416.91 56.726 49.6466
8419.61 54.4931 53.4163
8422.31 61.5983 58.2393
8425.02 52.9926 47.8858
8427.72 63.8079 53.3129
8430.42 56.7437 48.1645
8433.12 65.2483 52.9659
8435.82 53.9466 49.5214
8438.53 55.1632 56.0391
8441.23 59.5302 52.2596
8443.93 55.7172 53.3901
8446.63 56.7051 56.2678
8449.33 58.5051 50.55
8452.03 58.4121 54.5895
8454.73 57.4892 55.3473
8457.43 58.1796 61.0727
8460.13 55.4377 51.7437
8462.83 59.0411 45.5425
8465.53 60.8011 45.1899
8468.23 54.7153 46.4834
8470.93 60.0974 51.5816
8473.62 56.9926 55.0583
8476.32 54.5402 52.0843
8479.02 62.3811 59.3147
8481.72 59.5081 50.7721
8484.42 52.8508 49.8333
8487.11 60.1702 54.518
8489.81 59.1666 56.4061
8492.51 58.5586 49.3873
8495.2 59.2024 50.5503
8497.9 55.2796 47.1573
8500.59 58.2789 55.0618
8503.29 63.2853 51.6359
8505.99 58.4491 49.2006
8508.68 58.7714 52.3173
8511.38 54.6479 43.322
8514.07 59.0312 50.7958
8516.76 58.2798 58.6335
8519.46 56.6959 49.7632
8522.15 56.455 52.9618
8524.85 60.7903 53.0658
8527.54 53.3575 50.8061
8530.23 56.4201 51.6861
8532.93 58.8112 55.0471
8535.62 62.4776 55.8031
8538.31 58.2992 52.8235
8541 56.3737 49.892
8543.69 58.6504 50.277
8546.39 59.8746 55.0532
8549.08 58.553 52.5452
8551.77 59.8574 54.4801
8554.46 56.7089 49.799
8557.15 55.2758 48.68
8559.84 57.8601 49.8559
8562.53 59.1349 52.61
8565.22 56.7357 48.4568
8567.91 55.6227 49.0463
8570.6 60.7272 54.6407
8573.29 58.7752 49.3242
8575.98 57.06 49.0017
8578.67 54.6507 48.3418
8581.35 53.8234 48.5289
8584.04 58.1416 51.0086
8586.73 58.9611 49.4283
8589.42 62.1507 54.4993
8592.1 60.4057 54.0932
8594.79 57.1203 52.2402
8597.48 57.3843 47.937
8600.16 58.0794 50.7198
8602.85 57.3269 50.882
8605.54 55.2014 48.2438
8608.22 53.5519 45.4013
8610.91 56.1572 49.7353
8613.59 56.2789 47.7417
8616.28 60.5874 50.1085
8618.96 61.325 55.3682
8621.65 55.5041 45.3539
8624.33 59.1478 50.5896
8627.01 56.5434 46.7056
8629.7 52.3359 45.8592
8632.38 52.4928 46.3479
8635.06 56.9658 47.5448
8637.75 63.1492 56.9889
8640.43 60.8729 53.7796
8643.11 55.0799 50.0453
8645.79 53.1605 48.4121
8648.48 53.461 43.7474
8651.16 64.4884 56.7622
8653.84 55.4898 48.4785
8656.52 60.6135 52.64
8659.2 59.249 49.8603
8661.88 59.4188 52.1343
8664.56 59.4053 47.7232
8667.24 53.5923 47.8387
8669.92 49.7023 43.0774
8672.6 52.2695 46.5407
8675.28 46.7843 40.4189
8677.96 52.4136 46.7983
8680.64 46.9276 39.3474
8683.32 48.3892 43.8125
8685.99 51.5248 44.2045
8688.67 57.8752 47.3587
8691.35 59.07 53.1145
8694.03 58.2265 50.5194
8696.7 55.6701 46.9895
8699.38 58.006 48.4852
8702.06 64.395 55.814
8704.73 57.6497 47.6126
8707.41 58.1134 49.4699
8710.09 60.3534 48.575
8712.76 54.4153 46.031
8715.44 58.9752 48.3409
8718.11 56.0082 45.2946
8720.79 63.2328 53.5274
8723.46 54.5775 45.9417
8726.14 58.8135 48.6735
8728.81 61.5547 51.9988
8731.48 53.5701 43.0545
8734.16 56.6767 46.0662
8736.83 58.1336 47.5474
8739.5 56.1131 45.5354
8742.18 55.36 44.441
8744.85 62.8361 52.2945
8747.52 58.7849 49.0149
8750.19 55.3292 48.9138
8752.86 58.8643 47.0448
8755.53 56.0393 50.5591
8758.21 61.4161 60.3852
8760.88 59.7975 47.8118
8763.55 54.4422 59.9257
8766.22 64.8758 60.5942
8768.89 60.9767 59.0101
8771.56 61.3431 49.7883
8774.23 64.7006 63.0984
8776.9 56.7312 46.7295
8779.56 55.2251 40.5854
8782.23 55.8883 45.1383
8784.9 50.3963 52.7981
8787.57 56.8928 52.0407
8790.24 56.6377 43.852
8792.91 54.2945 43.6658
8795.57 43.3272 39.7571
8798.24 41.8357 34.787
8800.91 45.1754 42.6872
8803.57 49.405 43.5859
8806.24 51.0504 46.1788
8808.91 50.9441 46.2195
8811.57 51.1656 46.5792
8814.24 53.1782 46.3563
8816.9 51.2694 44.2109
8819.57 49.267 50.4376
8822.23 54.0779 64.4332
8824.9 59.1088 71.6838
8827.56 63.9657 67.7748
8830.22 70.512 42.5099
8832.89 48.8938 33.2926
8835.55 49.9587 55.2568
8838.21 57.1309 36.9221
8840.88 48.8506 36.3072
8843.54 50.7691 44.4856
8846.2 50.2748 47.1339
8848.86 56.9343 52.0865
8851.52 53.5087 49.5014
8854.19 54.0693 51.4113
8856.85 55.6424 49.3831
8859.51 52.2822 39.2401
8862.17 52.7888 48.0757
8864.83 64.2302 59.6058
8867.49 66.0428 58.2687
8870.15 61.0665 50.9128
8872.81 54.9035 38.8873
8875.47 63.4304 49.4066
8878.13 56.7941 56.5284
8880.78 66.5821 70.1556
8883.44 68.3808 73.697
8886.1 71.6232 61.682
8888.76 67.8057 56.6329
8891.42 58.7207 38.8625
8894.07 46.6307 35.8739
8896.73 61.8024 50.4482
8899.39 63.2181 63.6704
8902.04 64.4166 56.8885
8904.7 69.9124 54.6816
8907.36 65.6849 43.251
8910.01 53.2992 44.3867
8912.67 62.414 63.9483
8915.32 57.0164 58.0598
8917.98 76.5578 76.5767
8920.63 73.1806 55.3334
8923.29 62.2415 40.3722
8925.94 57.0705 21.6474
8928.59 55.9497 16.0783
8931.25 58.9158 43.2144
8933.9 59.3877 36.4712
8936.55 55.8917 48.7847
8939.21 52.7757 43.7078
8941.86 60.2802 51.0945
8944.51 59.955 55.3333
8947.16 53.6327 36.4142
8949.81 50.634 37.821
8952.46 54.5017 49.0036
8955.12 49.7506 53.2971
8957.77 50.6923 56.5062
8960.42 60.7994 56.1226
8963.07 64.6707 35.6055
8965.72 28.046 2.2252
8968.37 35.8307 7.76683
8971.02 48.7295 24.0401
8973.66 47.7729 28.7778
8976.31 47.1428 37.8693
8978.96 48.2334 35.1742
8981.61 49.4014 42.6227
8984.26 50.1922 41.4693
8986.9 46.4132 36.8081
8989.55 47.8293 49.3782
8992.2 41.648 38.3294
8994.85 39.4027 30.3745
8997.49 52.2043 43.7519
9000.14 51.9321 49.8843
9002.78 48.9691 50.3065
9005.43 50.7021 56.0822
9008.08 51.573 24.8525
9010.72 45.1968 8.26832
9013.37 52.199 25.8773
9016.01 51.7149 27.2754
9018.65 54.0931 29.9918
9021.3 50.8441 37.4066
9023.94 54.6396 38.4177
9026.59 55.7708 41.5003
9029.23 56.7187 46.113
9031.87 51.9171 42.5721
9034.51 55.9614 41.7127
9037.16 56.708 48.237
9039.8 63.356 52.7891
9042.44 55.8216 40.9967
9045.08 58.0824 37.5552
9047.72 59.0187 41.1316
9050.36 53.3712 44.7952
9053 51.5952 43.9363
9055.64 54.9341 41.9659
9058.28 51.9514 30.6962
9060.92 53.291 24.0145
9063.56 51.7278 32.8803
9066.2 57.9117 40.111
