wavelength spectrum_sum 3smoothed_sum
3512.31 50.4195 34.7893
3515.23 53.9484 50.0565
3518.15 45.8017 47.5994
3521.07 43.0479 56.3295
3523.99 80.1389 44.5414
3526.92 10.4374 61.0422
3529.84 92.5503 76.455
3532.76 126.377 93.9751
3535.68 62.998 99.6413
3538.6 109.549 80.3029
3541.52 68.362 89.8418
3544.44 91.6144 88.0636
3547.36 104.214 99.3653
3550.28 102.267 88.672
3553.21 59.5344 78.4228
3556.13 73.467 77.2123
3559.05 98.6356 80.2042
3561.97 68.51 58.1987
3564.89 7.45044 48.0426
3567.81 68.1672 43.2108
3570.73 54.0148 71.0612
3573.65 91.0015 75.087
3576.57 80.2448 84.1526
3579.49 81.2116 68.3241
3582.41 43.5159 50.6649
3585.33 27.2672 35.9887
3588.26 37.1831 63.442
3591.18 125.876 82.7353
3594.1 85.1471 94.1446
3597.02 71.411 77.7421
3599.94 76.6683 85.1211
3602.86 107.284 100.339
3605.78 117.064 94.5342
3608.7 59.2546 93.2829
3611.62 103.53 75.8822
3614.54 64.8619 80.8102
3617.46 74.0388 71.5591
3620.38 75.7764 82.0564
3623.3 96.3539 79.8529
3626.22 67.4285 94.4304
3629.14 119.509 120.931
3632.06 175.855 141.612
3634.98 129.472 152.536
3637.9 152.282 157.361
3640.82 190.329 155.962
3643.74 125.275 146.649
3646.66 124.341 144.525
3649.58 183.957 150.504
3652.5 143.214 173.288
3655.42 192.693 170.645
3658.34 176.027 170.695
3661.26 143.366 152.45
3664.18 137.958 143.537
3667.1 149.286 153.1
3670.02 172.057 154.942
3672.94 143.482 163.41
3675.86 174.691 148.045
3678.78 125.962 148.017
3681.7 143.397 134.458
3684.62 134.014 149.552
3687.53 171.244 162.573
3690.45 182.462 167.173
3693.37 147.814 155.177
3696.29 135.254 163.945
3699.21 208.769 174.665
3702.13 179.971 180.022
3705.05 151.326 163.267
3707.97 158.504 164.226
3710.89 182.846 158.838
3713.81 135.165 152.871
3716.73 140.602 137.09
3719.65 135.503 163.006
3722.56 212.914 170.985
3725.48 164.54 168.792
3728.4 128.922 145.248
3731.32 142.282 135.945
3734.24 136.63 134.841
3737.16 125.611 136.727
3740.08 147.94 156.831
3743 196.943 162.628
3745.91 143.001 177.295
3748.83 191.942 169.512
3751.75 173.592 192.259
3754.67 211.243 203.347
3757.59 225.207 218.194
3760.51 218.132 242.149
3763.42 283.11 237.229
3766.34 210.447 242.163
3769.26 232.931 229.369
3772.18 244.728 243.91
3775.1 254.071 231.442
3778.02 195.528 226.022
3780.93 228.469 227.307
3783.85 257.925 246.503
3786.77 253.116 244.8
3789.69 223.359 241.265
3792.61 247.319 252.403
3795.52 286.531 286.43
3798.44 325.441 272.551
3801.36 205.68 248.914
3804.28 215.621 226.491
3807.2 258.173 247.096
3810.11 267.494 253.955
3813.03 236.198 239.201
3815.95 213.911 220.641
3818.87 211.814 205.812
3821.78 191.71 211.912
3824.7 232.214 195.516
3827.62 162.624 194.912
3830.54 189.898 183.961
3833.45 199.361 191.508
3836.37 185.265 200.79
3839.29 217.743 232.113
3842.21 293.331 250.802
3845.12 241.331 297.294
3848.04 357.219 298.632
3850.96 297.347 300.651
3853.87 247.385 275.737
3856.79 282.479 288.431
3859.71 335.429 316.115
3862.63 330.437 324.399
3865.54 307.33 292.552
3868.46 239.889 251.705
3871.38 207.895 242.595
3874.29 280.002 225.655
3877.21 189.067 245.133
3880.13 266.329 247.245
3883.04 286.338 275.823
3885.96 274.801 292.431
3888.88 316.153 299.144
3891.79 306.479 315.515
3894.71 323.913 316.902
3897.63 320.315 314.747
3900.54 300.014 303.86
3903.46 291.25 327.716
3906.37 391.882 366.387
3909.29 416.027 395.962
3912.21 379.975 374.168
3915.12 326.503 358.012
3918.04 367.559 340.644
3920.96 327.869 314.378
3923.87 247.706 282.528
3926.79 272.009 219.169
3929.7 137.792 199.451
3932.62 188.551 166.009
3935.54 171.684 182.313
3938.45 186.703 214.273
3941.37 284.431 245.519
3944.28 265.423 280.109
3947.2 290.473 324.506
3950.12 417.622 354.755
3953.03 356.171 364.42
3955.95 319.468 334.956
3958.86 329.231 296.949
3961.78 242.15 258.726
3964.69 204.798 234.849
3967.61 257.599 243.982
3970.52 269.55 255.968
3973.44 240.756 291.489
3976.35 364.161 303.229
3979.27 304.77 329.168
3982.19 318.574 353.528
3985.1 437.24 374.944
3988.02 369.019 438.832
3990.93 510.239 459.059
3993.85 497.919 528.072
3996.76 576.058 546.501
3999.68 565.526 517.895
4002.59 412.1 480.437
4005.51 463.685 446.491
4008.42 463.687 486.75
4011.33 532.877 505.134
4014.25 518.84 532.976
4017.16 547.213 535.789
4020.08 541.314 577.634
4022.99 644.375 587.466
4025.91 576.711 580.962
4028.82 521.799 574.815
4031.74 625.933 573.275
4034.65 572.092 595.381
4037.57 588.117 570.439
4040.48 551.107 552.142
4043.39 517.203 548.113
4046.31 576.028 565.509
4049.22 603.296 595.345
4052.14 606.713 593.393
4055.05 570.172 590.009
4057.97 593.142 598.355
4060.88 631.752 575.188
4063.79 500.67 571.802
4066.71 582.983 564.071
4069.62 608.562 587.503
4072.54 570.966 574.474
4075.45 543.895 583.038
4078.36 634.253 609.268
4081.28 649.655 636.904
4084.19 626.804 645.114
4087.1 658.883 655.759
4090.02 681.589 665.594
4092.93 656.308 631.498
4095.84 556.597 601.841
4098.76 592.618 568.277
4101.67 555.614 580.017
4104.58 591.819 594.08
4107.5 634.808 634.067
4110.41 675.574 638.835
4113.32 606.122 666.907
4116.24 719.024 684.327
4119.15 727.835 700.018
4122.06 653.195 710.148
4124.98 749.414 680.284
4127.89 638.243 717.615
4130.8 765.188 682.222
4133.71 643.234 716.087
4136.63 739.839 682.644
4139.54 664.86 729.242
4142.45 783.025 721.096
4145.37 715.403 722.027
4148.28 667.651 686.819
4151.19 677.402 674.62
4154.1 678.806 683.386
4157.02 693.95 671.814
4159.93 642.686 699.439
4162.84 761.681 708.688
4165.75 721.696 721.233
4168.67 680.322 677.477
4171.58 630.413 709.859
4174.49 818.841 707.764
4177.4 674.038 740.571
4180.31 728.835 683.798
4183.23 648.521 692.457
4186.14 700.015 697.205
4189.05 743.079 727.526
4191.96 739.483 769.386
4194.87 825.597 775.68
4197.79 761.96 750.275
4200.7 663.267 727.859
4203.61 758.351 690.963
4206.52 651.27 692.44
4209.43 667.699 692.35
4212.34 758.082 754.4
4215.25 837.421 786.084
4218.17 762.749 751.701
4221.08 654.935 713.816
4223.99 723.764 687.146
4226.9 682.74 720.387
4229.81 754.657 734.265
4232.72 765.396 729.354
4235.63 668.008 723.81
4238.55 738.025 719.529
4241.46 752.554 760.563
4244.37 791.109 753.698
4247.28 717.432 754.247
4250.19 754.201 690.684
4253.1 600.418 694.446
4256.01 728.719 699.787
4258.92 770.223 767.11
4261.83 802.388 763.231
4264.74 717.083 728.759
4267.65 666.805 713.395
4270.56 756.296 692.795
4273.47 655.285 700.872
4276.38 691.034 709.809
4279.29 783.107 737.472
4282.21 738.275 723.576
4285.12 649.345 664.141
4288.03 604.804 695.087
4290.94 831.112 699.043
4293.85 661.214 684.607
4296.76 561.496 590.308
4299.67 548.213 539.264
4302.58 508.083 562.737
4305.49 631.915 574.779
4308.4 584.339 618.008
4311.31 637.769 624.896
4314.22 652.58 667.112
4317.13 710.987 700.43
4320.03 737.724 739.366
4322.94 769.387 760.088
4325.85 773.154 768.219
4328.76 762.116 795.914
4331.67 852.471 810.562
4334.58 817.099 821.761
4337.49 795.714 818.377
4340.4 842.319 787.199
4343.31 723.564 782.642
4346.22 782.042 750.254
4349.13 745.156 756.635
4352.04 742.707 738.748
4354.95 728.379 734.148
4357.86 731.358 805.746
4360.76 957.502 853.37
4363.67 871.251 887.146
4366.58 832.685 847.25
4369.49 837.815 825.971
4372.4 807.415 855.245
4375.31 920.505 852.182
4378.22 828.628 883.048
4381.13 900.011 868.916
4384.03 878.109 831.446
4386.94 716.219 845.623
4389.85 942.542 862.651
4392.76 929.191 918.588
4395.67 884.03 873.477
4398.58 807.211 838.711
4401.48 824.892 823.718
4404.39 839.05 868.175
4407.3 940.583 885.226
4410.21 876.047 884.716
4413.12 837.518 876.856
4416.02 917.004 867.429
4418.93 847.766 921.711
4421.84 1000.36 912.12
4424.75 888.229 926.434
4427.65 890.71 919.487
4430.56 979.521 976.252
4433.47 1058.53 1012.55
4436.38 999.6 1020.92
4439.28 1004.62 964.643
4442.19 889.704 985.749
4445.1 1062.92 1004.16
4448.01 1059.84 1017.49
4450.91 929.707 963.553
4453.82 901.108 914.012
4456.73 911.219 921.074
4459.63 950.895 939.603
4462.54 956.694 958.893
4465.45 969.09 997.307
4468.36 1066.14 963.245
4471.26 854.506 1005.32
4474.17 1095.31 998.743
4477.08 1046.41 1065.21
4479.98 1053.9 1014.61
4482.89 943.521 982.161
4485.8 949.061 913.794
4488.7 848.801 962.008
4491.61 1088.16 989.618
4494.51 1031.89 1028.14
4497.42 964.378 1040.02
4500.33 1123.8 1038.6
4503.23 1027.62 1054.8
4506.14 1012.96 1004.23
4509.05 972.12 1018.92
4511.95 1071.69 1023.25
4514.86 1025.94 1068.56
4517.76 1108.06 1061.59
4520.67 1050.76 1004.75
4523.58 855.429 993.975
4526.48 1075.73 987.61
4529.39 1031.67 1029.21
4532.29 980.231 972.486
4535.2 905.558 976.206
4538.1 1042.83 988.898
4541.01 1018.31 1033.38
4543.91 1039.02 1016.29
4546.82 991.556 1017.47
4549.72 1021.85 1028.23
4552.63 1071.28 1053.68
4555.53 1067.91 1057.05
4558.44 1031.97 1049.48
4561.34 1048.56 1042.32
4564.25 1046.41 1051.77
4567.15 1060.32 1043.33
4570.06 1023.25 1062.8
4572.96 1104.82 1078.15
4575.87 1106.38 1090.69
4578.77 1060.86 1062.93
4581.68 1021.55 998.38
4584.58 912.733 1012.02
4587.49 1101.78 1036.87
4590.39 1096.08 1137.07
4593.3 1213.34 1110.81
4596.2 1023.01 1147.27
4599.1 1205.46 1124.03
4602.01 1143.61 1121.5
4604.91 1015.45 1121.44
4607.82 1205.25 1144.48
4610.72 1212.72 1178.59
4613.62 1117.78 1169.55
4616.53 1178.16 1138.16
4619.43 1118.54 1154.73
4622.34 1167.49 1155.41
4625.24 1180.21 1182.05
4628.14 1198.45 1127.32
4631.05 1003.3 1108.1
4633.95 1122.55 1112.98
4636.85 1213.1 1152.95
4639.76 1123.2 1179.6
4642.66 1202.48 1141.96
4645.56 1100.2 1140.4
4648.47 1118.51 1089.89
4651.37 1050.97 1103.73
4654.27 1141.7 1130.71
4657.18 1199.46 1173.94
4660.08 1180.65 1181.24
4662.98 1163.6 1117.14
4665.89 1007.18 1152.11
4668.79 1285.54 1145.88
4671.69 1144.93 1194.26
4674.59 1152.32 1115.25
4677.5 1048.5 1127.22
4680.4 1180.83 1132.04
4683.3 1166.81 1143.54
4686.2 1082.98 1086.18
4689.11 1008.76 1050.1
4692.01 1058.55 1060.11
4694.91 1113.03 1094.62
4697.81 1112.29 1124.99
4700.71 1149.65 1121.28
4703.62 1101.88 1102.26
4706.52 1055.25 1108.87
4709.42 1169.47 1143.89
4712.32 1206.94 1174.37
4715.22 1146.71 1198.1
4718.13 1240.64 1169.54
4721.03 1121.27 1175.82
4723.93 1165.56 1110.92
4726.83 1045.94 1089.52
4729.73 1057.06 1022.53
4732.63 964.608 1082.48
4735.53 1225.77 1139.55
4738.44 1228.26 1194.84
4741.34 1130.5 1132.41
4744.24 1038.47 1106.09
4747.14 1149.29 1078.1
4750.04 1046.55 1125.61
4752.94 1181.01 1162.48
4755.84 1259.89 1147.76
4758.74 1002.38 1159
4761.64 1214.73 1149.62
4764.54 1231.74 1214.44
4767.44 1196.85 1118.95
4770.34 928.242 1102.29
4773.24 1181.78 1048.62
4776.15 1035.85 1095.89
4779.05 1070.06 1083.39
4781.95 1144.26 1107.92
4784.85 1109.44 1122.87
4787.75 1114.9 1168.65
4790.65 1281.62 1206.7
4793.55 1223.58 1219.8
4796.45 1154.21 1211.54
4799.35 1256.84 1157.35
4802.25 1061.01 1143.67
4805.15 1113.15 1100.53
4808.04 1127.42 1140.39
4810.94 1180.6 1188.41
4813.84 1257.2 1210.09
4816.74 1192.46 1195.03
4819.64 1135.42 1202.87
4822.54 1280.73 1182.2
4825.44 1130.46 1230.87
4828.34 1281.43 1238.81
4831.24 1304.55 1292.19
4834.14 1290.59 1238.76
4837.04 1121.15 1191.32
4839.94 1162.22 1162.04
4842.84 1202.76 1186.74
4845.73 1195.25 1202.41
4848.63 1209.23 1155.77
4851.53 1062.82 1085.31
4854.43 983.864 1030.62
4857.33 1045.17 949.565
4860.23 819.658 951.447
4863.13 989.51 985.335
4866.02 1146.84 1064.54
4868.92 1057.26 1095.41
4871.82 1082.13 1068.05
4874.72 1064.75 1116.97
4877.62 1204.03 1141.39
4880.51 1155.4 1124.83
4883.41 1015.07 1089.68
4886.31 1098.57 1044.8
4889.21 1020.77 1117.58
4892.1 1233.41 1124.46
4895 1119.19 1163.98
4897.9 1139.35 1097.78
4900.8 1034.79 1099.03
4903.69 1122.96 1094.67
4906.59 1126.26 1110.91
4909.49 1083.5 1104.79
4912.39 1104.61 1080.37
4915.28 1053.01 1079.24
4918.18 1080.1 1071.29
4921.08 1080.76 1092.01
4923.97 1115.18 1092.2
4926.87 1080.66 1120.28
4929.77 1164.99 1118.42
4932.66 1109.61 1171.94
4935.56 1241.2 1178.6
4938.46 1184.98 1207.82
4941.35 1197.26 1191.56
4944.25 1192.43 1187.46
4947.15 1172.67 1188.53
4950.04 1200.47 1152.96
4952.94 1085.74 1130.41
4955.84 1105.02 1058.8
4958.73 985.652 1117.45
4961.63 1261.67 1156.7
4964.52 1222.78 1259.51
4967.42 1294.09 1274.16
4970.31 1305.62 1316.57
4973.21 1350.01 1270.11
4976.11 1154.69 1204.36
4979 1108.38 1150.39
4981.9 1188.09 1180.72
4984.79 1245.69 1176.63
4987.69 1096.11 1203.98
4990.58 1270.15 1222.76
4993.48 1302.03 1301.73
4996.37 1333 1294.39
4999.27 1248.12 1234.54
5002.16 1122.49 1186.92
5005.06 1190.14 1146.73
5007.95 1127.57 1116.81
5010.85 1032.7 1097.96
5013.74 1133.61 1128.19
5016.64 1218.24 1160.31
5019.53 1129.09 1210.96
5022.42 1285.56 1221.68
5025.32 1250.39 1197.37
5028.21 1056.15 1205.44
5031.11 1309.78 1192.49
5034 1211.54 1291.14
5036.9 1352.08 1252.3
5039.79 1193.28 1225.59
5042.68 1131.39 1236.16
5045.58 1383.82 1280.26
5048.47 1325.57 1320.06
5051.36 1250.8 1264.46
5054.26 1217.02 1251.05
5057.15 1285.34 1263.07
5060.05 1286.87 1244.03
5062.94 1159.88 1248.92
5065.83 1300.03 1236.17
5068.72 1248.61 1319.09
5071.62 1408.62 1326.83
5074.51 1323.26 1292.54
5077.4 1145.75 1248.17
5080.3 1275.51 1251.83
5083.19 1334.23 1265.35
5086.08 1186.32 1316.52
5088.97 1428.99 1318.37
5091.87 1339.78 1325.04
5094.76 1206.35 1264.77
5097.65 1248.19 1251.56
5100.54 1300.14 1292.32
5103.44 1328.63 1285.79
5106.33 1228.6 1273.87
5109.22 1264.38 1271.72
5112.11 1322.16 1350.5
5115.01 1464.95 1413.91
5117.9 1454.61 1478.88
5120.79 1517.07 1443.95
5123.68 1360.18 1429.65
5126.57 1411.71 1380.96
5129.46 1370.98 1360.4
5132.36 1298.5 1303.68
5135.25 1241.54 1226.26
5138.14 1138.75 1240.84
5141.03 1342.23 1231.98
5143.92 1214.96 1284.41
5146.81 1296.04 1270.68
5149.7 1301.05 1290.68
5152.59 1274.95 1315.11
5155.48 1369.33 1337.13
5158.38 1367.12 1326.02
5161.27 1241.62 1265.15
5164.16 1186.71 1161
5167.05 1054.68 1096.71
5169.94 1048.75 1101.38
5172.83 1200.7 1158.15
5175.72 1225 1151.57
5178.61 1029.02 1103
5181.5 1054.97 1048.31
5184.39 1060.93 1107.72
5187.28 1207.28 1173.22
5190.17 1251.45 1254.42
5193.06 1304.53 1322.78
5195.95 1412.35 1333.28
5198.84 1282.96 1267.67
5201.73 1107.72 1186.63
5204.62 1169.21 1227.87
5207.51 1406.69 1297.78
5210.4 1317.43 1317.78
5213.28 1229.2 1322.34
5216.17 1420.4 1311.59
5219.06 1285.18 1330.91
5221.95 1287.17 1267.57
5224.84 1230.35 1250.69
5227.73 1234.55 1283.41
5230.62 1385.34 1285.63
5233.51 1236.99 1349.29
5236.4 1425.55 1353.08
5239.28 1396.7 1389.93
5242.17 1347.52 1375.99
5245.06 1383.75 1335.94
5247.95 1276.55 1355.79
5250.84 1407.05 1372.32
5253.72 1433.37 1362.62
5256.61 1247.45 1285.36
5259.5 1175.25 1212.44
5262.39 1214.63 1163.62
5265.28 1100.99 1228.95
5268.16 1371.24 1253.72
5271.05 1288.94 1344.31
5273.94 1372.74 1346.13
5276.83 1376.71 1342.49
5279.71 1278.02 1320.76
5282.6 1307.56 1246.18
5285.49 1152.95 1272.23
5288.38 1356.17 1285.53
5291.26 1347.46 1336.41
5294.15 1305.6 1348.98
5297.04 1393.88 1348.46
5299.92 1345.91 1363.42
5302.81 1350.47 1342.73
5305.7 1331.81 1345.08
5308.58 1352.98 1367.81
5311.47 1418.64 1394.5
5314.35 1411.87 1361.77
5317.24 1254.8 1306.1
5320.13 1251.63 1250.4
5323.01 1244.76 1217.65
5325.9 1156.57 1229.65
5328.78 1287.62 1295.79
5331.67 1443.17 1309.68
5334.56 1198.26 1309.01
5337.44 1285.61 1281.08
5340.33 1359.37 1346.57
5343.21 1394.74 1387.22
5346.1 1407.56 1354.38
5348.98 1260.83 1316.32
5351.87 1280.57 1307.63
5354.75 1381.49 1320.57
5357.64 1299.64 1306.02
5360.52 1236.92 1306.08
5363.41 1381.68 1323.93
5366.29 1353.19 1322.41
5369.18 1232.36 1279.59
5372.06 1253.22 1234.24
5374.95 1217.13 1274.17
5377.83 1352.17 1345.83
5380.72 1468.21 1379.07
5383.6 1316.84 1367.45
5386.48 1317.31 1309.22
5389.37 1293.5 1320.96
5392.25 1352.06 1342.99
5395.14 1383.39 1344.27
5398.02 1297.35 1338.13
5400.9 1333.65 1248.91
5403.79 1115.74 1239.53
5406.67 1269.19 1245.03
5409.55 1350.17 1258.72
5412.44 1156.78 1256.78
5415.32 1263.39 1257.1
5418.2 1351.13 1276.68
5421.09 1215.5 1312.27
5423.97 1370.16 1303.11
5426.85 1323.66 1403.58
5429.73 1516.91 1313.52
5432.62 1099.99 1341.7
5435.5 1408.19 1274.97
5438.38 1316.74 1345.39
5441.26 1311.24 1318.5
5444.15 1327.52 1288.28
5447.03 1226.08 1359.46
5449.91 1524.79 1349.28
5452.79 1296.97 1377.34
5455.68 1310.25 1336.86
5458.56 1403.37 1297.99
5461.44 1180.36 1339.12
5464.32 1433.63 1302.29
5467.2 1292.88 1356.8
5470.08 1343.88 1316.23
5472.97 1311.94 1308.72
5475.85 1270.35 1299.65
5478.73 1316.64 1264.84
5481.61 1207.54 1332.2
5484.49 1472.42 1345.94
5487.37 1357.85 1388.79
5490.25 1336.11 1399.65
5493.13 1504.98 1396.63
5496.01 1348.79 1436.4
5498.89 1455.42 1399.32
5501.77 1393.75 1404.07
5504.65 1363.05 1359.37
5507.53 1321.32 1327.17
5510.41 1297.14 1373.04
5513.29 1500.66 1419.68
5516.17 1461.25 1416.59
5519.05 1287.85 1356.15
5521.93 1319.35 1308.21
5524.81 1317.42 1345.46
5527.69 1399.62 1335.15
5530.57 1288.41 1343.37
5533.45 1342.07 1305.72
5536.33 1286.68 1351.71
5539.21 1426.38 1388.76
5542.09 1453.21 1405.22
5544.97 1336.08 1437.32
5547.85 1522.66 1399.24
5550.73 1338.98 1442.71
5553.61 1466.5 1396.13
5556.48 1382.91 1353.23
5559.36 1210.29 1308.94
5562.24 1333.63 1234.64
5565.12 1160 1240.12
5568 1226.74 1274.21
5570.88 1435.9 1314.92
5573.75 1282.12 1353.49
5576.63 1342.45 1271.76
5579.51 1190.71 1212.26
5582.39 1103.62 1188.22
5585.27 1270.33 1207.77
5588.14 1249.37 1271.55
5591.02 1294.94 1256.9
5593.9 1226.39 1293.04
5596.78 1357.8 1287.01
5599.65 1276.85 1340.66
5602.53 1387.35 1311.14
5605.41 1269.22 1340.3
5608.28 1364.33 1347.82
5611.16 1409.89 1361.58
5614.04 1310.52 1374.17
5616.91 1402.09 1350.38
5619.79 1338.52 1363.56
5622.67 1350.08 1320.87
5625.54 1274.02 1305.41
5628.42 1292.13 1290.51
5631.3 1305.38 1337.37
5634.17 1414.6 1363.2
5637.05 1369.62 1412.81
5639.92 1454.2 1392.05
5642.8 1352.31 1357.09
5645.67 1264.76 1318.05
5648.55 1337.09 1297.61
5651.43 1290.97 1299.49
5654.3 1270.4 1224.35
5657.18 1111.67 1207.89
5660.05 1241.6 1197.97
5662.93 1240.66 1241.45
5665.8 1242.09 1261.97
5668.68 1303.15 1286.15
5671.55 1313.19 1307.96
5674.43 1307.55 1266.92
5677.3 1180.02 1247.06
5680.17 1253.61 1283.02
5683.05 1415.43 1272.31
5685.92 1147.89 1256.06
5688.8 1204.87 1173.9
5691.67 1168.95 1182.99
5694.54 1175.15 1203.52
5697.42 1266.45 1218.79
5700.29 1214.79 1222.37
5703.17 1185.88 1182.88
5706.04 1147.96 1194.2
5708.91 1248.75 1187.8
5711.79 1166.7 1179.15
5714.66 1121.99 1188.04
5717.53 1275.42 1292.37
5720.41 1479.7 1268.68
5723.28 1050.94 1232.92
5726.15 1168.12 1159.45
5729.02 1259.29 1198.7
5731.9 1168.69 1218.62
5734.77 1227.89 1170.99
5737.64 1116.39 1155.2
5740.51 1121.33 1115.81
5743.39 1109.71 1115.81
5746.26 1116.4 1146.36
5749.13 1212.96 1111.13
5752 1004.03 1073.4
5754.87 1003.22 1024.55
5757.74 1066.39 1087.07
5760.62 1191.6 1105.93
5763.49 1059.8 1175.48
5766.36 1275.04 1188.36
5769.23 1230.25 1218.88
5772.1 1151.34 1144.66
5774.97 1052.38 1122.53
5777.84 1163.88 1101.37
5780.71 1087.86 1162.65
5783.58 1236.21 1168.54
5786.45 1181.55 1206.18
5789.33 1200.79 1176.38
5792.2 1146.79 1156.42
5795.07 1121.68 1165.43
5797.94 1227.83 1205.94
5800.81 1268.31 1247.9
5803.68 1247.55 1182.06
5806.55 1030.32 1167.49
5809.42 1224.6 1103.4
5812.28 1055.29 1170.61
5815.15 1231.94 1157.82
5818.02 1186.23 1190.35
5820.89 1152.88 1150.8
5823.76 1113.27 1156.04
5826.63 1201.95 1172.56
5829.5 1202.47 1218.96
5832.37 1252.46 1223.4
5835.24 1215.28 1253.91
5838.11 1293.99 1198.54
5840.97 1086.33 1190.43
5843.84 1190.97 1160.15
5846.71 1203.15 1168.33
5849.58 1110.87 1212.42
5852.45 1323.24 1217.35
5855.32 1217.94 1275.65
5858.18 1285.76 1255.43
5861.05 1262.61 1210.63
5863.92 1083.52 1200.54
5866.79 1255.49 1157.18
5869.65 1132.52 1150.78
5872.52 1064.34 1164.12
5875.39 1295.51 1228.32
5878.26 1325.12 1311.62
5881.12 1314.23 1214.85
5883.99 1005.22 1168.85
5886.86 1187.12 1103.28
5889.72 1117.52 1121.76
5892.59 1060.66 1119.8
5895.46 1181.21 1156.67
5898.32 1228.13 1172.53
5901.19 1108.24 1163.47
5904.05 1154.04 1169.08
5906.92 1244.97 1235.24
5909.79 1306.7 1287.27
5912.65 1310.14 1296.34
5915.52 1272.2 1328.6
5918.38 1403.47 1332.37
5921.25 1321.44 1387.94
5924.11 1438.9 1341.74
5926.98 1264.86 1318.67
5929.84 1252.24 1338.65
5932.71 1498.84 1356.79
5935.57 1319.28 1367.38
5938.44 1284 1276.58
5941.3 1226.45 1270.67
5944.17 1301.54 1230.86
5947.03 1164.59 1152.47
5949.9 991.274 1186.36
5952.76 1403.2 1259.76
5955.62 1384.8 1386.59
5958.49 1371.76 1331.57
5961.35 1238.14 1328.2
5964.22 1374.71 1304.13
5967.08 1299.53 1328.57
5969.94 1311.48 1334.39
5972.81 1392.16 1274.49
5975.67 1119.83 1308.82
5978.53 1414.48 1299.56
5981.4 1364.37 1297.69
5984.26 1114.21 1267.95
5987.12 1325.27 1263.32
5989.98 1350.47 1308.24
5992.85 1248.98 1269.58
5995.71 1209.3 1296.19
5998.57 1430.28 1275.86
6001.43 1188 1303.62
6004.3 1292.59 1212.43
6007.16 1156.7 1227.93
6010.02 1234.51 1230.16
6012.88 1299.29 1279.51
6015.74 1304.74 1282
6018.6 1241.97 1263.24
6021.47 1243.01 1202.9
6024.33 1123.7 1222.39
6027.19 1300.45 1207.67
6030.05 1198.87 1225.39
6032.91 1176.84 1193.01
6035.77 1203.32 1229.5
6038.63 1308.35 1242.72
6041.49 1216.51 1268.47
6044.35 1280.55 1272.13
6047.21 1319.34 1276.97
6050.07 1231.03 1254.34
6052.93 1212.65 1256.07
6055.79 1324.53 1207.37
6058.65 1084.92 1254.97
6061.51 1355.45 1219.27
6064.37 1217.45 1270.98
6067.23 1240.04 1259.6
6070.09 1321.31 1286.21
6072.95 1297.27 1332.19
6075.81 1378 1257.9
6078.67 1098.42 1291.26
6081.53 1397.35 1243.78
6084.39 1235.57 1308.41
6087.24 1292.32 1215.83
6090.1 1119.61 1168.64
6092.96 1093.98 1142.1
6095.82 1212.72 1235.65
6098.68 1400.25 1259.51
6101.54 1165.56 1264.63
6104.39 1228.07 1221.71
6107.25 1271.51 1302.16
6110.11 1406.9 1345.6
6112.97 1358.4 1338.71
6115.82 1250.83 1277.41
6118.68 1222.99 1294.9
6121.54 1410.89 1289.58
6124.4 1234.87 1306.92
6127.25 1275 1229.5
6130.11 1178.63 1196.99
6132.97 1137.35 1217.02
6135.82 1335.09 1205.13
6138.68 1142.94 1190.77
6141.53 1094.26 1200.13
6144.39 1363.18 1217.53
6147.25 1195.14 1282.39
6150.1 1288.86 1197.2
6152.96 1107.59 1229.78
6155.81 1292.88 1209.27
6158.67 1227.34 1230.09
6161.53 1170.04 1240.88
6164.38 1325.26 1249.66
6167.24 1253.67 1302.22
6170.09 1327.73 1272.83
6172.95 1237.11 1253.43
6175.8 1195.44 1200.8
6178.66 1169.83 1176.44
6181.51 1164.06 1200.52
6184.36 1267.68 1223.3
6187.22 1238.17 1241.25
6190.07 1217.9 1222.76
6192.93 1212.22 1183.13
6195.78 1119.27 1213.77
6198.63 1309.83 1201.98
6201.49 1176.85 1185.7
6204.34 1070.42 1134.09
6207.19 1155.01 1110.62
6210.05 1106.44 1147.61
6212.9 1181.38 1168.93
6215.75 1218.96 1235.35
6218.61 1305.7 1279.64
6221.46 1314.26 1276.49
6224.31 1209.49 1233.41
6227.17 1176.49 1222.56
6230.02 1281.71 1167.46
6232.87 1044.17 1184.91
6235.72 1228.84 1170.13
6238.57 1237.38 1214.63
6241.43 1177.68 1196.7
6244.28 1175.03 1188.4
6247.13 1212.5 1164.42
6249.98 1105.74 1172.87
6252.83 1200.36 1191.18
6255.68 1267.45 1209.44
6258.53 1160.5 1162.72
6261.39 1060.22 1194.02
6264.24 1361.33 1223.58
6267.09 1249.2 1256.66
6269.94 1159.47 1152.48
6272.79 1048.77 1174.51
6275.64 1315.29 1210.45
6278.49 1267.31 1163.98
6281.34 909.355 1154.5
6284.19 1286.84 1169.87
6287.04 1313.43 1243.06
6289.89 1128.91 1198.96
6292.74 1154.54 1163.04
6295.59 1205.67 1197.12
6298.44 1231.15 1257.64
6301.28 1336.1 1250.84
6304.13 1185.27 1219.21
6306.98 1136.25 1186.18
6309.83 1237.01 1199.54
6312.68 1225.34 1244.11
6315.53 1269.98 1202.79
6318.38 1113.05 1219.72
6321.22 1276.12 1229.33
6324.07 1298.84 1280.5
6326.92 1266.54 1263.93
6329.77 1226.41 1247.89
6332.62 1250.72 1229.4
6335.46 1211.06 1262.06
6338.31 1324.4 1239.46
6341.16 1182.9 1234.71
6344.01 1196.84 1216.61
6346.85 1270.09 1237.96
6349.7 1246.95 1239.27
6352.55 1200.79 1192.62
6355.39 1130.13 1128.93
6358.24 1055.88 1110.19
6361.09 1144.55 1084.73
6363.93 1053.76 1153.81
6366.78 1263.11 1145.38
6369.62 1119.26 1113.53
6372.47 958.216 1058.7
6375.31 1098.62 1038.29
6378.16 1058.04 1104.77
6381.01 1157.65 1151.97
6383.85 1240.21 1131.86
6386.7 997.718 1168.2
6389.54 1266.66 1040.46
6392.39 856.994 1063.77
6395.23 1067.66 1025.1
6398.07 1150.66 1087.19
6400.92 1043.24 1055.33
6403.76 972.106 1010.55
6406.61 1016.31 996.337
6409.45 1000.59 1094.05
6412.3 1265.23 1107.06
6415.14 1055.35 1093.76
6417.98 960.713 1044.01
6420.83 1115.97 1052.2
6423.67 1079.91 1082.68
6426.51 1052.17 1065.15
6429.36 1063.37 1074.99
6432.2 1109.42 1090.16
6435.04 1097.69 1084.96
6437.88 1047.76 1049.59
6440.73 1003.31 1046.55
6443.57 1088.58 1094.07
6446.41 1190.31 1160.39
6449.25 1202.28 1145.77
6452.09 1044.72 1073.11
6454.94 972.327 1059
6457.78 1159.96 1125.62
6460.62 1244.58 1131.91
6463.46 991.197 1068.97
6466.3 971.13 1041.39
6469.14 1161.86 1089.56
6471.98 1135.68 1177.39
6474.82 1234.62 1192.16
6477.67 1206.17 1169.58
6480.51 1067.95 1105.41
6483.35 1042.11 1059.41
6486.19 1068.17 1040.73
6489.03 1011.91 1038.27
6491.87 1034.72 1065.64
6494.71 1150.29 1097.35
6497.55 1107.04 1120.7
6500.38 1104.76 1062.45
6503.22 975.536 999.549
6506.06 918.35 990.634
6508.9 1078.02 1060.81
6511.74 1186.07 1112.1
6514.58 1072.22 1119.44
6517.42 1100.04 1081.63
6520.26 1072.64 1108.25
6523.1 1152.08 1068.38
6525.93 980.427 1071.14
6528.77 1080.9 1082.99
6531.61 1187.64 1116.35
6534.45 1080.5 1107.6
6537.28 1054.65 1032.98
6540.12 963.768 1036.21
6542.96 1090.21 1019.8
6545.8 1005.43 1062.87
6548.63 1092.96 997.416
6551.47 893.859 958.607
6554.31 889.004 816.164
6557.14 665.63 804.117
6559.98 857.717 803.989
6562.82 888.62 887.809
6565.65 917.092 900.049
6568.49 894.436 962.935
6571.32 1077.28 1000.22
6574.16 1028.95 1084.36
6577 1146.87 1040.88
6579.83 946.83 1073.72
6582.67 1127.46 1062.54
6585.5 1113.32 1114.44
6588.34 1102.54 1158.46
6591.17 1259.54 1178.46
6594.01 1173.3 1195.86
6596.84 1154.73 1090.73
6599.67 944.151 1065.92
6602.51 1098.9 1001.29
6605.34 960.808 1039.59
6608.18 1059.06 1058.59
6611.01 1155.89 1053.39
6613.84 945.226 1042.9
6616.68 1027.59 997.701
6619.51 1020.29 1056.11
6622.34 1120.45 1034.56
6625.18 962.935 1079
6628.01 1153.61 1103.96
6630.84 1195.35 1209.96
6633.68 1280.93 1163.64
6636.51 1014.65 1134.83
6639.34 1108.9 1060.4
6642.17 1057.65 1054.74
6645 997.678 1074.17
6647.84 1167.18 1049.07
6650.67 982.352 1109.88
6653.5 1180.11 1056.67
6656.33 1007.54 1082.49
6659.16 1059.82 1104.06
6661.99 1244.83 1171.96
6664.82 1211.25 1225.37
6667.65 1220.04 1167.8
6670.48 1072.12 1097.85
6673.31 1001.38 1033.3
6676.15 1026.41 1075.39
6678.98 1198.39 1062.18
6681.81 961.746 1093.85
6684.64 1121.42 1096.75
6687.46 1207.09 1121.41
6690.29 1035.71 1098.26
6693.12 1051.99 1041.78
6695.95 1037.63 1028.95
6698.78 997.227 1005.71
6701.61 982.282 1011.87
6704.44 1056.1 1003.73
6707.27 972.81 961.784
6710.1 856.446 937.632
6712.92 983.64 941.732
6715.75 985.111 978.44
6718.58 966.568 1029.27
6721.41 1136.13 970.554
6724.24 808.962 960.542
6727.06 936.532 869.859
6729.89 864.082 890.844
6732.72 871.918 884.032
6735.54 916.097 899.021
6738.37 909.048 916.359
6741.2 923.933 926.908
6744.02 947.743 953.418
6746.85 988.578 953.635
6749.68 924.584 971.46
6752.5 1001.22 1001.39
6755.33 1078.37 1006.65
6758.16 940.363 1041.18
6760.98 1104.82 1006.4
6763.81 974.032 1026.65
6766.63 1001.09 1023.05
6769.46 1094.03 1023.08
6772.28 974.11 1022.58
6775.11 999.594 979.598
6777.93 965.09 993.614
6780.76 1016.16 987.01
6783.58 979.784 1015.88
6786.4 1051.69 972.035
6789.23 884.636 985.5
6792.05 1020.18 901.223
6794.88 798.854 890.884
6797.7 853.62 932.818
6800.52 1145.98 1015.35
6803.35 1046.46 1114.77
6806.17 1151.86 1099.7
6808.99 1100.79 1105.44
6811.81 1063.67 1086.12
6814.64 1093.91 1103.55
6817.46 1153.07 1061.15
6820.28 936.486 1029.68
6823.1 999.497 998.939
6825.92 1060.83 1074.59
6828.75 1163.43 1107.06
6831.57 1096.9 1093.32
6834.39 1019.62 1043.33
6837.21 1013.48 1021.52
6840.03 1031.47 1023.91
6842.85 1026.79 1050.52
6845.67 1093.32 1069.5
6848.49 1088.39 1100
6851.31 1118.28 1073.16
6854.13 1012.82 1011.78
6856.95 904.23 960.106
6859.77 963.267 921.015
6862.59 895.548 886.419
6865.41 800.441 782.883
6868.23 652.66 790.582
6871.05 918.645 796.722
6873.87 818.862 888.925
6876.69 929.267 881.782
6879.51 897.216 913.944
6882.33 915.35 878.715
6885.15 823.58 872.286
6887.96 877.929 871.102
6890.78 911.799 888.124
6893.6 874.644 897.963
6896.42 907.446 927.018
6899.24 998.965 955.803
6902.05 960.998 974.192
6904.87 962.613 972.786
6907.69 994.748 1011.64
6910.5 1077.55 1010.36
6913.32 958.784 1042.86
6916.14 1092.26 1060.49
6918.95 1130.44 1115.08
6921.77 1122.56 1097.68
6924.59 1040.05 1092.87
6927.4 1116 1039.61
6930.22 962.79 1036.64
6933.03 1031.12 1046.98
6935.85 1147.04 1063.16
6938.66 1011.31 1038.23
6941.48 956.335 1006.43
6944.29 1051.65 1026.42
6947.11 1071.28 1060.59
6949.92 1058.84 1053.95
6952.74 1031.74 1052.35
6955.55 1066.47 1075.76
6958.37 1129.06 1089.6
6961.18 1073.27 1052.56
6963.99 955.349 1014.64
6966.81 1015.28 1019.23
6969.62 1087.07 1039.95
6972.43 1017.51 1054.5
6975.25 1058.9 1029.53
6978.06 1012.17 1058.24
6980.87 1103.65 1045.11
6983.68 1019.52 1050.77
6986.5 1029.14 1015.36
6989.31 997.414 993.395
6992.12 953.627 958.943
6994.93 925.786 962.854
6997.74 1009.15 980.997
7000.56 1008.06 1036.05
7003.37 1090.96 1059.62
7006.18 1079.83 1036.62
7008.99 939.071 966.111
7011.8 879.431 935.397
7014.61 987.689 932.353
7017.42 929.938 963.002
7020.23 971.379 986.568
7023.04 1058.39 1012.72
7025.85 1008.39 990.147
7028.66 903.668 993.832
7031.47 1069.44 948.347
7034.28 871.929 956.532
7037.09 928.225 958.797
7039.9 1076.24 968.629
7042.71 901.426 985.923
7045.52 980.105 871.963
7048.32 734.36 892.034
7051.13 961.639 967.618
7053.94 1206.85 1049.68
7056.75 980.544 1068.21
7059.56 1017.22 1015.45
7062.36 1048.57 1026.58
7065.17 1013.95 1016.13
7067.98 985.852 981.513
7070.79 944.733 961.968
7073.59 955.318 950.633
7076.4 951.849 976.569
7079.21 1022.54 962.261
7082.01 912.395 1006.6
7084.82 1084.85 976.031
7087.62 930.846 1005.74
7090.43 1001.51 998.201
7093.24 1062.25 1024.62
7096.04 1010.09 1016.9
7098.85 978.354 931.428
7101.65 805.835 887.666
7104.46 878.81 904.432
7107.26 1028.65 970.771
7110.07 1004.85 1056.39
7112.87 1135.66 1039.71
7115.67 978.637 1055.01
7118.48 1050.73 1058.8
7121.28 1147.03 1069
7124.08 1009.24 1014.28
7126.89 886.565 969.512
7129.69 1012.73 936.113
7132.49 909.044 944.984
7135.3 913.176 932.094
7138.1 974.063 955.48
7140.9 979.201 980.738
7143.71 988.95 939.639
7146.51 850.765 934.856
7149.31 964.853 933.931
7152.11 986.177 912.585
7154.91 786.725 936.292
7157.71 1035.97 927.017
7160.52 958.351 984.08
7163.32 957.915 928.504
7166.12 869.245 915.23
7168.92 918.531 934.717
7171.72 1016.38 938.362
7174.52 880.18 933.635
7177.32 904.347 899.418
7180.12 913.728 845.994
7182.92 719.906 855.167
7185.72 931.867 831.81
7188.52 843.658 884.091
7191.32 876.75 866.239
7194.12 878.31 853.437
7196.91 805.251 848.556
7199.71 862.107 870.434
7202.51 943.943 890.297
7205.31 864.839 907.425
7208.11 913.493 895.294
7210.91 907.548 906.343
7213.7 897.988 911.116
7216.5 927.811 907.54
7219.3 896.822 949.401
7222.1 1023.57 939.444
7224.89 897.939 950.908
7227.69 931.214 870.893
7230.49 783.526 859.009
7233.28 862.285 833.642
7236.08 855.113 815.822
7238.87 730.066 853.353
7241.67 974.88 846.074
7244.47 833.275 898.052
7247.26 886.001 827.678
7250.06 763.758 856.176
7252.85 918.77 812.912
7255.65 756.208 820.59
7258.44 786.793 772.965
7261.24 775.895 773.27
7264.03 757.121 730.477
7266.82 658.416 724.399
7269.62 757.661 781.088
7272.41 927.187 795.951
7275.21 703.005 826.16
7278 848.288 817.021
7280.79 899.772 848.871
7283.59 798.554 833.199
7286.38 801.271 820.946
7289.17 863.013 798.818
7291.96 732.17 821.448
7294.75 869.163 844.718
7297.55 932.823 884.986
7300.34 852.971 840.724
7303.13 736.377 818.17
7305.92 865.163 803.716
7308.71 809.608 845.561
7311.5 861.914 832.766
7314.29 826.777 846.555
7317.09 850.975 858.288
7319.88 897.113 842.753
7322.67 780.171 799.746
7325.46 721.955 796.533
7328.25 887.474 795.268
7331.04 776.375 818.218
7333.83 790.805 763.863
7336.61 724.408 772.332
7339.4 801.784 760.386
7342.19 754.967 767.69
7344.98 746.32 754.363
7347.77 761.801 749.275
7350.56 739.705 745.467
7353.35 734.894 760.62
7356.13 807.26 830.92
7358.92 950.605 870.774
7361.71 854.457 904.595
7364.5 908.724 844.782
7367.28 771.164 780.074
7370.07 660.335 748.05
7372.86 812.652 728.162
7375.64 711.499 719.571
7378.43 634.562 689.709
7381.22 723.065 685.092
7384 697.649 776.276
7386.79 908.114 799.549
7389.57 792.884 834.431
7392.36 802.296 795.92
7395.14 792.581 846.715
7397.93 945.269 791.024
7400.71 635.221 772.048
7403.5 735.654 676.886
7406.28 659.783 726.744
7409.07 784.795 720.757
7411.85 717.692 739.75
7414.63 716.763 735.458
7417.42 771.92 727.707
7420.2 694.439 728.001
7422.98 717.644 760.812
7425.77 870.353 795.617
7428.55 798.855 808.873
7431.33 757.412 780.08
7434.11 783.972 768.53
7436.9 764.205 738.937
7439.68 668.635 705.545
7442.46 683.795 661.286
7445.24 631.428 725.235
7448.02 860.482 746.537
7450.8 747.701 790.124
7453.58 762.19 756.321
7456.36 759.072 751.661
7459.14 733.721 760.334
7461.92 788.21 723.83
7464.7 649.559 720.346
7467.48 723.27 736.324
7470.26 836.144 752.274
7473.04 697.407 756.884
7475.82 737.101 726.449
7478.6 744.838 741.561
7481.38 742.742 741.037
7484.16 735.529 786.398
7486.94 880.922 795.826
7489.72 771.026 790.445
7492.49 719.386 735.269
7495.27 715.394 686.213
7498.05 623.86 691.354
7500.83 734.809 675.611
7503.6 668.164 698.151
7506.38 691.479 705.566
7509.16 757.056 698.343
7511.93 646.494 739.259
7514.71 814.228 754.192
7517.49 801.854 761.871
7520.26 669.532 721.259
7523.04 692.391 715.26
7525.81 783.857 743.175
7528.59 753.276 782.185
7531.36 809.42 748.591
7534.14 683.077 722.777
7536.91 675.834 668.361
7539.69 646.173 672.257
7542.46 694.764 688.136
7545.24 723.472 718.926
7548.01 738.543 742.917
7550.78 766.735 721.624
7553.56 659.592 715.254
7556.33 719.435 710.858
7559.1 753.546 740.194
7561.88 747.601 706.512
7564.65 618.388 710.312
7567.42 764.947 693.818
7570.19 698.118 729.862
7572.96 726.522 724.686
7575.74 749.419 716.37
7578.51 673.169 702.359
7581.28 684.489 664.074
7584.05 634.564 654.446
7586.82 644.286 622.212
7589.59 587.786 500.692
7592.36 270.005 342.547
7595.13 169.85 170.902
7597.9 72.85 110.987
7600.67 90.2622 72.0748
7603.44 53.1124 91.5661
7606.21 131.324 99.8045
7608.98 114.977 181.356
7611.75 297.767 263.265
7614.52 377.051 340.615
7617.28 347.028 375.361
7620.05 402.005 357.162
7622.82 322.452 375.336
7625.59 401.552 358.216
7628.36 350.644 351.144
7631.12 301.235 314.282
7633.89 290.968 252.124
7636.66 164.17 268.715
7639.42 351.009 273.153
7642.19 304.28 348.096
7644.96 388.998 356.803
7647.72 377.13 395.841
7650.49 421.394 421.486
7653.25 465.932 471.329
7656.02 526.661 479.199
7658.78 445.005 504.565
7661.55 542.03 505.211
7664.31 528.599 557.746
7667.08 602.61 557.043
7669.84 539.918 581.911
7672.61 603.205 587.493
7675.37 619.357 619.105
7678.13 634.752 593.205
7680.9 525.506 617.378
7683.66 691.877 569.387
7686.42 490.778 563.844
7689.19 508.879 542.989
7691.95 629.312 544.183
7694.71 494.359 603.954
7697.47 688.19 596.819
7700.24 607.907 644.846
7703 638.44 627.03
7705.76 634.742 629.265
7708.52 614.613 610.458
7711.28 582.018 615.941
7714.04 651.192 622.26
7716.8 633.57 639.336
7719.56 633.247 599.743
7722.32 532.412 580.955
7725.08 577.205 560.938
7727.84 573.198 549.663
7730.6 498.587 529.091
7733.36 515.488 560.77
7736.12 668.236 589.76
7738.88 585.555 580.47
7741.64 487.62 520.753
7744.39 489.084 488.317
7747.15 488.249 509.983
7749.91 552.615 548.384
7752.67 604.287 572.45
7755.43 560.447 584.567
7758.18 588.967 533.316
7760.94 450.533 538.104
7763.7 574.812 540.538
7766.45 596.269 572.085
7769.21 545.175 583.3
7771.96 608.458 572.346
7774.72 563.405 580.005
7777.48 568.152 570.265
7780.23 579.24 549.253
7782.99 500.366 526.474
7785.74 499.817 499.408
7788.5 498.04 525.533
7791.25 578.741 568.65
7794 629.168 556.973
7796.76 463.01 538.04
7799.51 521.943 516.159
7802.27 563.525 536.53
7805.02 524.122 522.195
7807.77 478.938 476.294
7810.52 425.822 519.535
7813.28 653.845 573.02
7816.03 639.394 590.508
7818.78 478.285 554.585
7821.53 546.077 521.394
7824.29 539.819 495.803
7827.04 401.514 483.352
7829.79 508.722 461.691
7832.54 474.836 523.941
7835.29 588.265 543.208
7838.04 566.524 561.325
7840.79 529.185 505.713
7843.54 421.431 478.499
7846.29 484.881 459.859
7849.04 473.266 470.751
7851.79 454.106 515.881
7854.54 620.272 507.617
7857.29 448.472 523.544
7860.03 501.888 450.455
7862.78 401.004 428.739
7865.53 383.324 450.027
7868.28 565.755 509.403
7871.03 579.129 553.533
7873.77 515.714 541.137
7876.52 528.569 510.82
7879.27 488.178 512.776
7882.01 521.581 544.234
7884.76 622.941 535.478
7887.51 461.91 511.948
7890.25 450.992 421.731
7893 352.29 444.217
7895.74 529.37 464.168
7898.49 510.844 538.697
7901.24 575.877 516.863
7903.98 463.867 500.037
7906.72 460.369 476.392
7909.47 504.942 487.739
7912.21 497.906 545.29
7914.96 633.022 545.837
7917.7 506.582 504.184
7920.44 372.948 434.853
7923.19 425.029 430.678
7925.93 494.056 454.982
7928.67 445.86 474.88
7931.41 484.724 466.389
7934.16 468.583 474.712
7936.9 470.83 451.192
7939.64 414.164 439.302
7942.38 432.911 409.283
7945.12 380.773 455.172
7947.86 551.831 448.28
7950.6 412.237 496.003
7953.35 523.941 460.335
7956.09 444.827 494.08
7958.83 513.472 497.578
7961.57 534.436 521.74
7964.3 517.314 505.943
7967.04 466.078 498.485
7969.78 512.063 485.941
7972.52 479.681 496.642
7975.26 498.181 480.263
7978 462.926 485.125
7980.74 494.267 469.324
7983.47 450.779 472.911
7986.21 473.688 444.166
7988.95 408.032 443.229
7991.69 447.969 477.757
7994.42 577.27 508.889
7997.16 501.428 512.408
7999.9 458.528 445.342
8002.63 376.071 391.284
8005.37 339.254 388.595
8008.1 450.461 401.877
8010.84 415.916 455.859
8013.57 501.201 424.001
8016.31 354.885 421.8
8019.04 409.314 369.959
8021.78 345.678 411.661
8024.51 479.989 408.876
8027.25 400.959 411.336
8029.98 353.058 388.259
8032.71 410.76 384.797
8035.45 390.572 426.178
8038.18 477.202 466.361
8040.91 531.311 494.69
8043.64 475.557 475.622
8046.38 419.998 446.159
8049.11 442.921 441.355
8051.84 461.145 431.218
8054.57 389.587 431.958
8057.3 445.141 432.749
8060.03 463.519 458.054
8062.76 465.501 488.782
8065.49 537.326 498.7
8068.22 493.272 469.263
8070.95 377.191 449.038
8073.68 476.653 419.829
8076.41 405.645 446.481
8079.14 457.147 407.42
8081.87 359.47 405.865
8084.6 400.979 361.729
8087.33 324.738 412.516
8090.05 511.831 434.932
8092.78 468.226 464.732
8095.51 414.138 445.082
8098.24 452.882 408.257
8100.96 357.75 453.919
8103.69 551.125 416.29
8106.42 339.994 465.37
8109.14 504.991 427.391
8111.87 437.188 461.053
8114.6 440.981 400.69
8117.32 323.9 350.765
8120.05 287.414 311.658
8122.77 323.66 328.771
8125.5 375.238 375.829
8128.22 428.588 358.4
8130.95 271.376 366.133
8133.67 398.435 357.104
8136.39 401.502 416.391
8139.12 449.236 400.471
8141.84 350.675 419.657
8144.56 459.059 390.878
8147.29 362.9 372.285
8150.01 294.894 328.3
8152.73 327.105 304.522
8155.45 291.567 326.671
8158.17 361.342 367.047
8160.9 448.232 393.204
8163.62 370.038 346.963
8166.34 222.618 314.302
8169.06 350.25 362.135
8171.78 513.537 406.296
8174.5 355.102 382.178
8177.22 277.894 336.927
8179.94 377.785 333.69
8182.66 345.391 362.528
8185.38 364.41 390.929
8188.09 462.988 387.81
8190.81 336.034 362.32
8193.53 287.937 312.527
8196.25 313.611 300.201
8198.97 299.056 324.544
8201.68 360.966 352.54
8204.4 397.599 399.818
8207.12 440.889 396.874
8209.84 352.134 402.233
8212.55 413.677 372.352
8215.27 351.244 345.284
8217.98 270.932 320.81
8220.7 340.254 302.326
8223.42 295.793 298.286
8226.13 258.813 301.687
8228.85 350.455 338.977
8231.56 407.664 366.547
8234.27 341.521 393.429
8236.99 431.103 376.954
8239.7 358.236 388.913
8242.42 377.4 334.494
8245.13 267.846 349.398
8247.84 402.949 319.415
8250.55 287.45 306.406
8253.27 228.82 286.035
8255.98 341.835 330.393
8258.69 420.523 369.243
8261.4 345.37 399.161
8264.11 431.589 394.413
8266.83 406.281 431.575
8269.54 456.855 389.995
8272.25 306.85 393.513
8274.96 416.833 380.62
8277.67 418.178 419.727
8280.38 424.171 387.233
8283.09 319.348 372.147
8285.8 372.921 334.05
8288.5 309.881 354.388
8291.21 380.363 323.97
8293.92 281.666 296.291
8296.63 226.843 313.135
8299.34 430.896 321.539
8302.05 306.877 315.089
8304.75 207.495 283.698
8307.46 336.723 259.527
8310.17 234.362 297.587
8312.87 321.675 298.27
8315.58 338.772 319.476
8318.29 297.982 319.874
8320.99 322.869 337.883
8323.7 392.799 327.766
8326.4 267.631 321.246
8329.11 303.308 309.43
8331.81 357.353 322.368
8334.52 306.443 340.393
8337.22 357.384 358.832
8339.92 412.669 391.939
8342.63 405.764 400.493
8345.33 383.046 358.391
8348.03 286.363 274.178
8350.74 153.125 246.345
8353.44 299.548 280.313
8356.14 388.265 350.123
8358.84 362.556 343.787
8361.54 280.54 299.319
8364.25 254.86 249.331
8366.95 212.592 232.559
8369.65 230.224 239.474
8372.35 275.607 305.643
8375.05 411.098 329.363
8377.75 301.385 365.615
8380.45 384.362 333.568
8383.15 314.958 332.387
8385.85 297.841 316.686
8388.55 337.258 307.057
8391.24 286.073 311.847
8393.94 312.21 329.429
8396.64 390.002 369.522
8399.34 406.352 371.346
8402.04 317.684 346.809
8404.73 316.39 327.463
8407.43 348.315 352.661
8410.13 393.276 385.606
8412.82 415.227 375.897
8415.52 319.187 382.409
8418.21 412.813 326.819
8420.91 248.456 316.874
8423.6 289.354 292.623
8426.3 340.057 309.598
8428.99 299.382 293.033
8431.69 239.661 280.412
8434.38 302.192 295.731
8437.08 345.339 325.832
8439.77 329.964 307.403
8442.46 246.907 289.609
8445.16 291.955 310.257
8447.85 391.911 325.573
8450.54 292.853 353.399
8453.23 375.435 334.083
8455.92 333.96 336.515
8458.62 300.15 392.068
8461.31 542.094 383.652
8464 308.711 421.122
8466.69 412.561 345.098
8469.38 314.022 338.149
8472.07 287.862 297.212
8474.76 289.752 307.134
8477.45 343.788 292.131
8480.14 242.853 292.787
8482.83 291.721 256.297
8485.52 234.318 276.672
8488.2 303.975 261.763
8490.89 246.995 295.583
8493.58 335.778 271.174
8496.27 230.749 307.099
8498.95 354.771 290.801
8501.64 286.884 333.804
8504.33 359.758 341.021
8507.01 376.42 308.002
8509.7 187.828 297.792
8512.39 329.128 248.769
8515.07 229.351 279.319
8517.76 279.479 269.189
8520.44 298.737 312.857
8523.13 360.354 327.482
8525.81 323.355 348.533
8528.49 361.889 324.645
8531.18 288.692 306.673
8533.86 269.438 262.233
8536.54 228.569 258.469
8539.23 277.399 251.213
8541.91 247.671 279.108
8544.59 312.254 292.841
8547.27 318.597 322.592
8549.96 336.924 309.29
8552.64 272.35 308.259
8555.32 315.504 310.262
8558 342.933 313.33
8560.68 281.552 304.239
8563.36 288.233 331.404
8566.04 424.427 350.212
8568.72 337.975 382.983
8571.4 386.547 327.698
8574.08 258.573 332.872
8576.76 353.496 311.287
8579.44 321.792 335.684
8582.11 331.763 332.98
8584.79 345.383 336.458
8587.47 332.228 307.769
8590.15 245.695 309.209
8592.82 349.704 289.503
8595.5 273.11 331.549
8598.18 371.833 315.92
8600.85 302.817 352.252
8603.53 382.107 311.048
8606.2 248.222 313.678
8608.88 310.707 293.653
8611.55 322.029 320.329
8614.23 328.251 319.649
8616.9 308.667 320.613
8619.58 324.92 326.965
8622.25 347.309 324.562
8624.92 301.457 350.339
8627.6 402.25 344.763
8630.27 330.583 323.825
8632.94 238.642 303.014
8635.61 339.819 269.477
8638.29 229.969 395.728
8640.96 617.397 316.475
8643.63 102.057 351.089
8646.3 333.812 240.112
8648.97 284.466 278.722
8651.64 217.888 239.827
8654.31 217.128 218.178
8656.98 219.519 175.256
8659.65 89.1223 181.094
8662.32 234.639 176.052
8664.99 204.393 268.194
8667.66 365.549 276.269
8670.32 258.865 304.745
8672.99 289.821 290.719
8675.66 323.472 278.519
8678.33 222.265 271.868
8680.99 269.868 257.617
8683.66 280.719 273.605
8686.33 270.228 251.879
8688.99 204.691 253.454
8691.66 285.445 257.317
8694.32 281.817 291.431
8696.99 307.031 312.341
8699.65 348.174 312.428
8702.32 282.079 305.822
8704.98 287.214 262.067
8707.65 216.908 247.909
8710.31 239.606 218.915
8712.97 200.231 221.376
8715.64 224.29 214.934
8718.3 220.281 190.209
8720.96 126.057 203.336
8723.63 263.671 218.317
8726.29 265.222 231.977
8728.95 167.038 227.544
8731.61 250.373 228.288
8734.27 267.452 243.942
8736.93 214.001 222.321
8739.59 185.509 221.929
8742.25 266.278 226.585
8744.91 227.969 265.2
8747.57 301.354 269.592
8750.23 279.452 248.733
8752.89 165.394 248.7
8755.55 301.254 248.717
8758.2 279.504 259.416
8760.86 197.489 255.171
8763.52 288.522 232.76
8766.18 212.27 230.167
8768.83 189.709 205.732
8771.49 215.218 205.495
8774.15 211.558 239.88
8776.8 292.865 210.606
8779.46 127.395 164.678
8782.11 73.7751 101.974
8784.77 104.751 133.613
8787.42 222.312 153.853
8790.08 134.497 177.612
8792.73 176.026 143.546
8795.38 120.116 179.027
8798.04 240.941 158.913
8800.69 115.682 165.611
8803.34 140.21 127.739
8806 127.327 141.909
8808.65 158.189 153.717
8811.3 175.634 186.528
8813.95 225.761 213.908
8816.6 240.328 227.054
8819.25 215.075 220.289
8821.9 205.464 239.51
8824.55 297.99 209.757
8827.2 125.816 209.561
8829.85 204.876 142.325
8832.5 96.2822 152.514
8835.15 156.384 148.891
8837.8 194.007 185.559
8840.45 206.285 187.245
8843.1 161.444 179.705
8845.74 171.385 190.422
8848.39 238.437 180.471
8851.04 131.59 187.081
8853.69 191.216 182.342
8856.33 224.221 202.845
8858.98 193.097 175.703
8861.62 109.79 188.971
8864.27 264.025 174.435
8866.91 149.49 179.384
8869.56 124.636 134.359
8872.2 128.952 143.982
8874.85 178.359 175.003
8877.49 217.699 174.697
8880.13 128.033 187.661
8882.78 217.25 140.866
8885.42 77.3151 178.711
8888.06 241.567 165.238
8890.7 176.831 184.777
8893.35 135.933 146.099
8895.99 125.534 153.28
8898.63 198.373 197.601
8901.27 268.898 206.544
8903.91 152.361 192.826
8906.55 157.22 143.005
8909.19 119.433 142.832
8911.83 151.842 145.295
8914.47 164.61 172.791
8917.11 201.922 237.933
8919.75 347.267 273.5
8922.38 271.31 267.296
8925.02 183.311 207.435
8927.66 167.684 196.102
8930.3 237.311 222.317
8932.93 261.956 244.229
8935.57 233.421 260.857
8938.21 287.193 259.429
8940.84 257.673 252.285
8943.48 211.99 225.481
8946.11 206.78 239.118
8948.75 298.583 237.333
8951.38 206.637 270.605
8954.02 306.596 266.273
8956.65 285.584 296.275
8959.29 296.645 232.618
8961.92 115.626 198.655
8964.55 183.695 176.753
8967.18 230.939 217.375
8969.82 237.491 253.917
8972.45 293.322 255.834
8975.08 236.689 255.587
8977.71 236.751 228.194
8980.34 211.142 238.713
8982.97 268.247 230.292
8985.6 211.487 242.187
8988.23 246.826 245.266
8990.86 277.484 233.51
8993.49 176.219 218.513
8996.12 201.837 199.463
8998.75 220.334 190.547
9001.38 149.47 178.872
9004.01 166.812 145.143
9006.63 119.147 156.026
9009.26 182.12 174.13
9011.89 221.123 209.518
9014.51 225.31 240.945
9017.14 276.401 229.931
9019.77 188.08 223.674
9022.39 206.541 235.852
9025.02 312.935 240.412
9027.64 201.759 219.522
9030.27 143.871 200.381
9032.89 255.513 205.356
9035.51 216.684 234.795
9038.14 232.186 206.303
9040.76 170.037 220.712
9043.38 259.911 224.58
9046.01 243.792 257.59
9048.63 269.068 241.803
9051.25 212.55 216.737
9053.87 168.592 179.311
9056.49 156.791 166.922
9059.11 175.382 174.483
9061.73 191.275 192.183
9064.35 209.892 210.46
9066.97 230.212 216.76
9069.59 210.177 209.337
9072.21 187.623 180.704
9074.83 144.314 110.645
