wavelength spectrum_sum 3smoothed_sum
3511.88 4.31431 15.147
3514.8 41.1268 21.8631
3517.73 20.1481 24.6125
3520.65 12.5627 33.9129
3523.57 69.0278 34.9425
3526.49 23.2369 42.9747
3529.42 36.6595 36.2499
3532.34 48.8533 56.7428
3535.26 84.7155 67.9112
3538.19 70.165 71.8664
3541.11 60.7188 64.8174
3544.03 63.5683 62.8864
3546.95 64.3719 68.168
3549.88 76.5636 68.2815
3552.8 63.9089 69.156
3555.72 66.9954 70.5423
3558.64 80.7226 66.4309
3561.56 51.5747 50.1105
3564.49 18.034 36.8935
3567.41 41.0717 30.3957
3570.33 32.0814 40.5429
3573.25 48.4756 52.4635
3576.18 76.8334 63.0091
3579.1 63.7184 42.2484
3582.02 -13.8066 20.4289
3584.94 11.3748 17.1479
3587.86 53.8756 41.6235
3590.79 59.6201 64.5902
3593.71 80.2749 63.525
3596.63 50.6799 67.132
3599.55 70.4411 63.8638
3602.47 70.4703 69.0934
3605.39 66.3688 57.4799
3608.32 35.6006 58.1409
3611.24 72.4532 46.6706
3614.16 31.9581 62.6712
3617.08 83.6025 59.032
3620 61.5356 68.971
3622.92 61.775 63.5139
3625.85 67.2312 70.7414
3628.77 83.218 83.8703
3631.69 101.162 87.6883
3634.61 78.6851 81.4545
3637.53 64.5167 82.5424
3640.45 104.425 91.2312
3643.37 104.752 104.531
3646.3 104.416 110.811
3649.22 123.265 109.381
3652.14 100.462 121.994
3655.06 142.255 118.088
3657.98 111.547 116.501
3660.9 95.7022 98.8976
3663.82 89.4441 88.9358
3666.74 81.6613 95.1953
3669.66 114.481 98.9882
3672.58 100.823 105.087
3675.51 99.9578 86.6336
3678.43 59.1203 80.3064
3681.35 81.8412 71.3346
3684.27 73.0424 85.8709
3687.19 102.729 87.0303
3690.11 85.3194 86.3272
3693.03 70.933 76.2961
3695.95 72.6358 91.6303
3698.87 131.322 103.746
3701.79 107.281 112.304
3704.71 98.3097 108.468
3707.63 119.814 109.663
3710.55 110.864 123.241
3713.47 139.044 119.027
3716.39 107.174 119.736
3719.31 112.988 105.208
3722.23 95.4599 107.324
3725.15 113.524 105.138
3728.07 106.43 100.493
3730.99 81.5233 95.6011
3733.91 98.8504 93.738
3736.83 100.84 108.028
3739.75 124.395 115.591
3742.67 121.538 118.904
3745.59 110.78 116.916
3748.51 118.432 123.701
3751.43 141.89 145.471
3754.35 176.091 156.133
3757.27 150.419 157.658
3760.19 146.465 148.825
3763.11 149.59 139.529
3766.03 122.532 131.393
3768.95 122.059 132.28
3771.87 152.249 154.206
3774.79 188.312 164.94
3777.71 154.26 174.963
3780.63 182.316 177.127
3783.55 194.805 173.118
3786.47 142.233 163.085
3789.39 152.217 140.19
3792.31 126.12 150.232
3795.22 172.36 173.219
3798.14 221.178 192.263
3801.06 183.252 180.589
3803.98 137.336 160.529
3806.9 160.999 159.895
3809.82 181.35 175.13
3812.74 183.041 161.915
3815.66 121.354 144.182
3818.58 128.153 129.722
3821.5 139.66 151.519
3824.41 186.743 137.847
3827.33 87.1374 135.524
3830.25 132.691 111.067
3833.17 113.371 113.651
3836.09 94.8901 118.31
3839.01 146.669 150.135
3841.93 208.844 178.563
3844.84 180.175 207.517
3847.76 233.533 200.312
3850.68 187.228 198.405
3853.6 174.454 158
3856.52 112.32 164.062
3859.44 205.412 167.409
3862.35 184.494 199.944
3865.27 209.927 200.578
3868.19 207.313 191.916
3871.11 158.51 173.864
3874.03 155.77 146.565
3876.94 125.415 149.684
3879.86 167.868 160.999
3882.78 189.714 178.265
3885.7 177.212 167.637
3888.62 135.986 184.1
3891.53 239.1 176.38
3894.45 154.054 181.049
3897.37 149.992 161.191
3900.29 179.528 182.753
3903.2 218.738 210.764
3906.12 234.024 242.747
3909.04 275.478 248.297
3911.96 235.388 242.774
3914.87 217.457 215.052
3917.79 192.311 217.76
3920.71 243.513 201.474
3923.63 168.597 195.038
3926.54 173.005 139.933
3929.46 78.1972 122.898
3932.38 117.491 124.513
3935.29 177.85 140.939
3938.21 127.475 146.65
3941.13 134.625 128.617
3944.05 123.752 156.972
3946.96 212.538 196.033
3949.88 251.81 220.593
3952.8 197.431 212.023
3955.71 186.828 198.782
3958.63 212.087 189.6
3961.55 169.884 167.485
3964.46 120.484 141.968
3967.38 135.535 122.188
3970.3 110.545 123.458
3973.21 124.295 144.361
3976.13 198.242 176.108
3979.05 205.786 210.838
3981.96 228.487 227.615
3984.88 248.574 237.488
3987.8 235.402 260.637
3990.71 297.934 282.558
3993.63 314.339 311.033
3996.54 320.827 322.703
3999.46 332.944 310.378
4002.38 277.362 319.789
4005.29 349.062 303.454
4008.21 283.939 305.274
4011.12 282.822 291.782
4014.04 308.586 309.87
4016.96 338.2 358.305
4019.87 428.128 449.806
4022.79 583.091 509.912
4025.7 518.517 525.289
4028.62 474.261 512.411
4031.53 544.456 527.181
4034.45 562.827 527.58
4037.37 475.457 497.191
4040.28 453.288 478.77
4043.2 507.563 507.175
4046.11 560.675 522.298
4049.03 498.656 532.108
4051.94 536.994 505.642
4054.86 481.276 523.72
4057.77 552.89 539.937
4060.69 585.643 542.162
4063.6 487.952 516.184
4066.52 474.957 493.593
4069.43 517.869 525.286
4072.35 583.033 527.213
4075.26 480.738 519.267
4078.18 494.029 523.946
4081.09 597.072 554
4084.01 570.898 578.234
4086.92 566.731 575.31
4089.84 588.299 589.069
4092.75 612.177 565.796
4095.67 496.91 545.711
4098.58 528.045 499.099
4101.49 472.341 519.854
4104.41 559.176 541.747
4107.32 593.724 572.267
4110.24 563.901 575.28
4113.15 568.213 602.475
4116.07 675.31 630.585
4118.98 648.233 640.028
4121.89 596.543 610.182
4124.81 585.772 597.491
4127.72 610.159 610.891
4130.64 636.741 592.412
4133.55 530.335 612.468
4136.46 670.327 582.939
4139.38 548.155 607.71
4142.29 604.646 610.001
4145.21 677.201 614.903
4148.12 562.863 613.767
4151.03 601.239 597.543
4153.95 628.527 633.144
4156.86 669.665 621.647
4159.77 566.749 662.462
4162.69 750.972 649.19
4165.6 629.85 684.141
4168.51 671.602 626.002
4171.43 576.554 661.603
4174.34 736.653 642.998
4177.25 615.787 651.569
4180.17 602.266 601.441
4183.08 586.27 615.408
4185.99 657.689 636.779
4188.91 666.377 665.342
4191.82 671.961 684.681
4194.73 715.704 674.972
4197.64 637.252 644.046
4200.56 579.18 637.082
4203.47 694.814 619.75
4206.38 585.255 642.506
4209.29 647.449 603.713
4212.21 578.435 647.919
4215.12 717.873 653.814
4218.03 665.133 678.339
4220.94 652.011 633.455
4223.86 583.22 616.979
4226.77 615.707 609.794
4229.68 630.455 629.089
4232.59 641.104 629.933
4235.51 618.24 661.585
4238.42 725.41 685.497
4241.33 712.841 700.164
4244.24 662.24 671.985
4247.15 640.876 648.056
4250.07 641.051 630.122
4252.98 608.438 653.43
4255.89 710.801 670.352
4258.8 691.818 715.088
4261.71 742.645 699.048
4264.62 662.68 665.195
4267.54 590.259 653.766
4270.45 708.358 643.049
4273.36 630.532 650.442
4276.27 612.435 608.805
4279.18 583.448 614.021
4282.09 646.181 614.575
4285 614.097 603.833
4287.92 551.221 612.574
4290.83 672.405 593.72
4293.74 557.536 583.906
4296.65 521.776 525.368
4299.56 496.791 505.637
4302.47 498.342 509.432
4305.38 533.162 545.457
4308.29 604.866 573.21
4311.2 581.602 580.424
4314.11 554.804 580.752
4317.02 605.852 609.165
4319.93 666.84 635.136
4322.85 632.715 653.53
4325.76 661.036 701.773
4328.67 811.567 747.287
4331.58 769.258 747.745
4334.49 662.41 733.914
4337.4 770.073 730.814
4340.31 759.959 759.88
4343.22 749.608 765.418
4346.13 786.686 728.216
4349.04 648.355 736.275
4351.95 773.784 724.903
4354.86 752.57 769.811
4357.77 783.079 787.253
4360.68 826.11 812.88
4363.59 829.451 818.198
4366.5 799.033 810.097
4369.41 801.806 792.988
4372.32 778.123 790.047
4375.23 790.211 791.692
4378.14 806.743 822.996
4381.04 872.033 843.527
4383.95 851.806 801.459
4386.86 680.539 781.186
4389.77 811.214 793.092
4392.68 887.524 845.314
4395.59 837.205 840.296
4398.5 796.159 793.816
4401.41 748.083 788.241
4404.32 820.48 786.955
4407.23 792.301 812.262
4410.14 824.007 807.635
4413.04 806.599 828.313
4415.95 854.334 825.111
4418.86 814.399 852.582
4421.77 889.014 859.624
4424.68 875.457 876.086
4427.59 863.786 881.617
4430.5 905.607 918.549
4433.41 986.254 937.906
4436.31 921.857 944.928
4439.22 926.674 927.856
4442.13 935.037 919.623
4445.04 897.159 948.612
4447.95 1013.64 932.472
4450.85 886.617 924.866
4453.76 874.34 864.702
4456.67 833.148 866.907
4459.58 893.232 872.656
4462.49 891.587 904.382
4465.39 928.327 917.858
4468.3 933.66 917.968
4471.21 891.917 932.869
4474.12 973.029 931.614
4477.02 929.894 950.534
4479.93 948.678 909.99
4482.84 851.399 896.223
4485.75 888.593 869.243
4488.65 867.737 912.202
4491.56 980.274 920.841
4494.47 914.511 925.868
4497.38 882.818 921.118
4500.28 966.026 931.806
4503.19 946.573 984.743
4506.1 1041.63 981.204
4509 955.41 994.053
4511.91 985.118 989.11
4514.82 1026.8 1021.61
4517.72 1052.92 1002.08
4520.63 926.526 961.183
4523.54 904.101 910.072
4526.44 899.589 938.183
4529.35 1010.86 971.065
4532.26 1002.75 954.732
4535.16 850.592 955.215
4538.07 1012.31 933.204
4540.98 936.713 999.347
4543.88 1049.02 974.964
4546.79 939.159 998.528
4549.69 1007.41 951.231
4552.6 907.127 942.814
4555.51 913.907 925.286
4558.41 954.823 952.122
4561.32 987.635 958.578
4564.22 933.278 949.638
4567.13 928.002 956.7
4570.03 1008.82 1002.92
4572.94 1071.95 1000.33
4575.85 920.231 1026.56
4578.75 1087.51 964.906
4581.66 886.977 933.403
4584.56 825.723 927.983
4587.47 1071.25 955.166
4590.37 968.524 1031.99
4593.28 1056.2 996.577
4596.18 965.011 1046.01
4599.09 1116.81 1013.29
4601.99 958.06 1023
4604.9 994.14 1008.83
4607.8 1074.28 1047.07
4610.71 1072.79 1060.78
4613.61 1035.27 1044.76
4616.52 1026.23 1046.65
4619.42 1078.46 1044.81
4622.32 1029.73 1090.3
4625.23 1162.7 1081.32
4628.13 1051.53 1066.77
4631.04 986.066 1021.03
4633.94 1025.49 1045.36
4636.85 1124.52 1089.61
4639.75 1118.83 1133.46
4642.65 1157.04 1128.3
4645.56 1109.02 1133.14
4648.46 1133.37 1106.97
4651.37 1078.51 1121.05
4654.27 1151.28 1135.28
4657.17 1176.05 1139.84
4660.08 1092.2 1121.43
4662.98 1096.03 1078.49
4665.88 1047.23 1103.62
4668.79 1167.6 1136.31
4671.69 1194.11 1159.64
4674.59 1117.23 1137.81
4677.5 1102.09 1139.17
4680.4 1198.21 1150.77
4683.3 1152.01 1150.02
4686.21 1099.85 1111.42
4689.11 1082.4 1073.77
4692.01 1039.06 1088.92
4694.92 1145.31 1084.32
4697.82 1068.59 1136.24
4700.72 1194.81 1130.36
4703.62 1127.69 1123.58
4706.53 1048.22 1122.58
4709.43 1191.81 1143.24
4712.33 1189.68 1164.09
4715.23 1110.77 1148.9
4718.14 1146.24 1135.91
4721.04 1150.71 1154.58
4723.94 1166.79 1130.94
4726.84 1075.32 1083.52
4729.75 1008.46 1038.87
4732.65 1032.83 1089.3
4735.55 1226.62 1145.89
4738.45 1178.23 1169.13
4741.35 1102.54 1122.34
4744.25 1086.24 1105.26
4747.16 1126.98 1088.44
4750.06 1052.09 1120.22
4752.96 1181.6 1136.63
4755.86 1176.21 1143.25
4758.76 1071.96 1148.74
4761.66 1198.06 1166.41
4764.57 1229.22 1204.65
4767.47 1186.67 1143.02
4770.37 1013.16 1118.48
4773.27 1155.59 1089.36
4776.17 1099.32 1112.76
4779.07 1083.36 1115.99
4781.97 1165.27 1107.97
4784.87 1075.29 1139.42
4787.77 1177.7 1194.61
4790.67 1330.85 1209.46
4793.57 1119.83 1209.35
4796.47 1177.38 1166.78
4799.38 1203.14 1159.68
4802.28 1098.53 1149.11
4805.18 1145.66 1107.82
4808.08 1079.26 1146.86
4810.98 1215.65 1194.18
4813.88 1287.63 1253.78
4816.78 1258.05 1218.27
4819.68 1109.12 1202.62
4822.58 1240.69 1175.2
4825.48 1175.8 1207.86
4828.38 1207.09 1221.55
4831.28 1281.77 1258.57
4834.18 1286.85 1223.22
4837.07 1101.03 1193.68
4839.97 1193.16 1196.77
4842.87 1296.11 1225.28
4845.77 1186.56 1207.62
4848.67 1140.19 1145.44
4851.57 1109.58 1103.22
4854.47 1059.89 1074.01
4857.37 1052.56 999.056
4860.27 884.719 963.506
4863.17 953.235 988.299
4866.07 1126.94 1067.38
4868.97 1121.96 1098.26
4871.86 1045.88 1096.09
4874.76 1120.41 1118.21
4877.66 1188.32 1143.9
4880.56 1122.97 1129.73
4883.46 1077.9 1103.39
4886.36 1109.29 1080.97
4889.25 1055.73 1117.44
4892.15 1187.29 1126.31
4895.05 1135.9 1180.8
4897.95 1219.23 1157.16
4900.85 1116.35 1157.59
4903.74 1137.19 1148.83
4906.64 1192.96 1174.13
4909.54 1192.25 1205.75
4912.44 1232.04 1147.54
4915.34 1018.34 1111.31
4918.23 1083.55 1077.1
4921.13 1129.42 1099.13
4924.03 1084.43 1129.06
4926.93 1173.35 1135.06
4929.82 1147.42 1155.05
4932.72 1144.38 1196.43
4935.62 1297.5 1222.8
4938.51 1226.53 1250.05
4941.41 1226.11 1232.71
4944.31 1245.48 1243.57
4947.2 1259.13 1253.14
4950.1 1254.81 1225.01
4953 1161.1 1179.21
4955.89 1121.73 1119.21
4958.79 1074.82 1175.85
4961.69 1331.02 1209.3
4964.58 1222.06 1266.47
4967.48 1246.33 1247.62
4970.38 1274.46 1281.13
4973.27 1322.59 1290.67
4976.17 1274.97 1269.15
4979.06 1209.88 1218.81
4981.96 1171.58 1225.95
4984.86 1296.39 1214.18
4987.75 1174.58 1295.99
4990.65 1417 1276.39
4993.54 1237.6 1328.78
4996.44 1331.76 1286.95
4999.33 1291.49 1263.21
5002.23 1166.38 1223.23
5005.12 1211.83 1192.57
5008.02 1199.51 1182.8
5010.92 1137.06 1177.9
5013.81 1197.11 1191.59
5016.71 1240.59 1200.93
5019.6 1165.09 1260.14
5022.5 1374.74 1284.18
5025.39 1312.72 1271.9
5028.28 1128.23 1267.58
5031.18 1361.78 1278.35
5034.07 1345.04 1352.49
5036.97 1350.64 1308.49
5039.86 1229.79 1282.11
5042.76 1265.91 1291.47
5045.65 1378.72 1332.27
5048.55 1352.18 1344.29
5051.44 1301.97 1275.36
5054.33 1171.94 1279.59
5057.23 1364.85 1287.92
5060.12 1326.97 1300.71
5063.01 1210.31 1291.6
5065.91 1337.53 1304.77
5068.8 1366.48 1369.37
5071.7 1404.09 1343.32
5074.59 1259.39 1303.13
5077.48 1245.9 1263.29
5080.38 1284.58 1296.45
5083.27 1358.86 1291.82
5086.16 1232.03 1335.7
5089.05 1416.21 1374.97
5091.95 1476.68 1374.1
5094.84 1229.41 1335.12
5097.73 1299.27 1308.45
5100.63 1396.67 1349.69
5103.52 1353.13 1386.34
5106.41 1409.22 1359.44
5109.3 1315.97 1308.08
5112.2 1199.06 1334.01
5115.09 1487.02 1378.38
5117.98 1449.06 1439.9
5120.87 1383.61 1371.87
5123.77 1282.93 1351.41
5126.66 1387.69 1358.08
5129.55 1403.63 1364.51
5132.44 1302.2 1341.95
5135.33 1320.03 1288.17
5138.22 1242.28 1278.33
5141.12 1272.69 1238.36
5144.01 1200.1 1288.35
5146.9 1392.25 1315.07
5149.79 1352.87 1329.45
5152.68 1243.24 1332.58
5155.57 1401.63 1343.55
5158.46 1385.77 1368.99
5161.35 1319.58 1302.91
5164.25 1203.39 1207.86
5167.14 1100.6 1148.69
5170.03 1142.09 1143.46
5172.92 1187.7 1206.32
5175.81 1289.17 1217.91
5178.7 1176.84 1197.64
5181.59 1126.91 1131.82
5184.48 1091.72 1163.34
5187.37 1271.38 1218.26
5190.26 1291.68 1277.6
5193.15 1269.75 1312.62
5196.04 1376.43 1309.83
5198.93 1283.3 1279.47
5201.82 1178.67 1190.5
5204.71 1109.53 1212.02
5207.6 1347.85 1272.94
5210.49 1361.42 1340.72
5213.38 1312.88 1357.77
5216.27 1399.02 1346.56
5219.16 1327.78 1361.53
5222.05 1357.8 1313.57
5224.94 1255.13 1288.53
5227.83 1252.65 1310.33
5230.71 1423.22 1345.3
5233.6 1360.03 1390.7
5236.49 1388.84 1412.29
5239.38 1487.98 1409.64
5242.27 1352.11 1423.8
5245.16 1431.31 1374.15
5248.05 1339.02 1394.87
5250.94 1414.29 1380.88
5253.82 1389.33 1391.7
5256.71 1371.48 1311.92
5259.6 1174.95 1267.05
5262.49 1254.71 1201.37
5265.38 1174.45 1270.71
5268.26 1382.96 1309.61
5271.15 1371.42 1370.36
5274.04 1356.68 1349.14
5276.93 1319.32 1321.27
5279.82 1287.82 1317.28
5282.7 1344.7 1265.35
5285.59 1163.53 1274.53
5288.48 1315.37 1268.12
5291.36 1325.46 1301.5
5294.25 1263.66 1302.59
5297.14 1318.65 1319.11
5300.03 1375.02 1354.13
5302.91 1368.73 1360.96
5305.8 1339.14 1351.69
5308.69 1347.22 1362.42
5311.57 1400.89 1358.8
5314.46 1328.28 1346.07
5317.35 1309.03 1300.9
5320.23 1265.4 1284.51
5323.12 1279.1 1253.11
5326 1214.83 1269.78
5328.89 1315.41 1321.12
5331.78 1433.12 1333.17
5334.66 1250.97 1311.38
5337.55 1250.04 1265.63
5340.43 1295.86 1297.2
5343.32 1345.7 1344.34
5346.21 1391.45 1353.1
5349.09 1322.15 1331.15
5351.98 1279.84 1334.39
5354.86 1401.18 1325.49
5357.75 1295.44 1332.37
5360.63 1300.49 1318.61
5363.52 1359.89 1325.81
5366.4 1317.05 1308.05
5369.29 1247.2 1288.84
5372.17 1302.26 1267.14
5375.06 1251.94 1334.9
5377.94 1450.49 1399.97
5380.82 1497.46 1434.45
5383.71 1355.4 1396.75
5386.59 1337.4 1318.82
5389.48 1263.65 1310.79
5392.36 1331.31 1308.42
5395.25 1330.31 1305.92
5398.13 1256.15 1315.34
5401.01 1359.57 1265.28
5403.9 1180.13 1282.5
5406.78 1307.79 1283.17
5409.66 1361.59 1304.19
5412.55 1243.19 1308.33
5415.43 1320.22 1295.46
5418.31 1322.98 1299.99
5421.2 1256.78 1321.06
5424.08 1383.42 1313.51
5426.96 1300.33 1380.5
5429.85 1457.75 1324.71
5432.73 1216.07 1364.22
5435.61 1418.85 1337.42
5438.49 1377.34 1399.42
5441.38 1402.08 1381.42
5444.26 1364.83 1333.47
5447.14 1233.51 1366.47
5450.02 1501.07 1354.97
5452.91 1330.32 1400.14
5455.79 1369.01 1374.08
5458.67 1422.91 1356.09
5461.55 1276.35 1391.79
5464.43 1476.1 1362.82
5467.32 1336.01 1383.77
5470.2 1339.22 1370.49
5473.08 1436.24 1376.94
5475.96 1355.36 1366.28
5478.84 1307.25 1317.01
5481.72 1288.42 1361.39
5484.6 1488.5 1401.12
5487.49 1426.44 1446.81
5490.37 1425.49 1432.17
5493.25 1444.58 1422.28
5496.13 1396.77 1452.25
5499.01 1515.41 1448.03
5501.89 1431.9 1460.89
5504.77 1435.35 1407.98
5507.65 1356.7 1380.57
5510.53 1349.65 1399.41
5513.41 1491.88 1453.22
5516.29 1518.13 1457.63
5519.17 1362.87 1422.61
5522.05 1386.83 1375.44
5524.93 1376.63 1404.1
5527.81 1448.84 1405.91
5530.69 1392.26 1420.77
5533.57 1421.2 1412.84
5536.45 1425.05 1436.37
5539.33 1462.87 1459.25
5542.21 1489.82 1457.15
5545.09 1418.76 1494.02
5547.96 1573.48 1466.16
5550.84 1406.23 1499
5553.72 1517.28 1464.87
5556.6 1471.09 1425.77
5559.48 1288.93 1398.12
5562.36 1434.34 1326.61
5565.24 1256.56 1346.29
5568.12 1347.97 1374.89
5570.99 1520.15 1432.62
5573.87 1429.74 1459.88
5576.75 1429.76 1396.39
5579.63 1329.68 1318.81
5582.51 1197 1290.05
5585.38 1343.46 1289.37
5588.26 1327.64 1339.12
5591.14 1346.26 1333.73
5594.02 1327.28 1357.92
5596.89 1400.22 1360.68
5599.77 1354.54 1393.37
5602.65 1425.36 1383.82
5605.52 1371.57 1406.38
5608.4 1422.2 1412.17
5611.28 1442.73 1424.43
5614.15 1408.35 1445.92
5617.03 1486.67 1446.26
5619.91 1443.76 1463.1
5622.78 1458.89 1441.06
5625.66 1420.53 1433.65
5628.54 1421.52 1421.82
5631.41 1423.39 1440.19
5634.29 1475.64 1445.25
5637.17 1436.72 1465.99
5640.04 1485.6 1459.02
5642.92 1454.73 1460.2
5645.79 1440.26 1441.55
5648.67 1429.65 1418.74
5651.54 1386.31 1401.77
5654.42 1389.34 1329.07
5657.29 1211.57 1311.48
5660.17 1333.54 1331.07
5663.04 1448.09 1390.37
5665.92 1389.49 1426.65
5668.79 1442.37 1420.37
5671.67 1429.26 1408.91
5674.54 1355.11 1382.88
5677.42 1364.27 1371.02
5680.29 1393.67 1412.38
5683.17 1479.2 1393.49
5686.04 1307.6 1379.5
5688.91 1351.69 1350.28
5691.79 1391.53 1366.71
5694.66 1356.92 1363.37
5697.54 1341.65 1350.04
5700.41 1351.56 1351.71
5703.28 1361.93 1327.78
5706.16 1269.85 1338.31
5709.03 1383.14 1326.21
5711.9 1325.64 1330.23
5714.78 1281.91 1352.12
5717.65 1448.81 1441.72
5720.52 1594.42 1428.14
5723.4 1241.2 1402.06
5726.27 1370.56 1339.43
5729.14 1406.54 1377.96
5732.01 1356.78 1398.75
5734.89 1432.91 1357.43
5737.76 1282.59 1315.35
5740.63 1230.55 1256.35
5743.5 1255.92 1234.09
5746.37 1215.8 1272.87
5749.25 1346.88 1270
5752.12 1247.33 1249.51
5754.99 1154.34 1223.45
5757.86 1268.69 1243.44
5760.73 1307.28 1265.57
5763.6 1220.72 1254.32
5766.47 1234.95 1272.2
5769.35 1360.93 1319.25
5772.22 1361.88 1285.04
5775.09 1132.31 1274.09
5777.96 1328.07 1237.77
5780.83 1252.93 1286.07
5783.7 1277.23 1304.01
5786.57 1381.88 1347.6
5789.44 1383.69 1372.14
5792.31 1350.86 1340.86
5795.18 1288.04 1311.4
5798.05 1295.31 1311.4
5800.92 1350.85 1332.38
5803.79 1350.96 1330.38
5806.66 1289.34 1326.37
5809.53 1338.82 1278.04
5812.4 1205.98 1262.49
5815.27 1242.67 1252.45
5818.14 1308.71 1307.73
5821.01 1371.81 1319.55
5823.88 1278.13 1335.38
5826.75 1356.19 1325.26
5829.61 1341.48 1388.2
5832.48 1466.94 1399.28
5835.35 1389.43 1401.16
5838.22 1347.11 1355.5
5841.09 1329.97 1323.42
5843.96 1293.17 1296.97
5846.82 1267.77 1254.91
5849.69 1203.78 1302.5
5852.56 1435.95 1321.61
5855.43 1325.1 1396.15
5858.3 1427.41 1382.92
5861.16 1396.25 1316.2
5864.03 1124.95 1276.89
5866.9 1309.49 1249.56
5869.77 1314.25 1281.36
5872.63 1220.34 1318.06
5875.5 1419.6 1325.85
5878.37 1337.6 1381.39
5881.23 1386.96 1299.1
5884.1 1172.74 1248.56
5886.97 1185.98 1183.09
5889.83 1190.56 1190.57
5892.7 1195.18 1197.06
5895.57 1205.45 1241.15
5898.43 1322.82 1293.96
5901.3 1353.61 1356.62
5904.16 1393.43 1367.35
5907.03 1355 1395.9
5909.9 1439.27 1422.62
5912.76 1473.59 1412.57
5915.63 1324.84 1426.92
5918.49 1482.33 1395.05
5921.36 1377.99 1458.96
5924.22 1516.56 1418.03
5927.09 1359.54 1386.1
5929.95 1282.19 1371.04
5932.82 1471.41 1065.02
5935.68 441.476 801.794
5938.55 492.497 746.751
5941.41 1306.28 1034.66
5944.28 1305.19 1261.51
5947.14 1173.06 1180.18
5950 1062.29 1220.93
5952.87 1427.45 1283.52
5955.73 1360.84 1392.33
5958.6 1388.7 1326.17
5961.46 1228.97 1326.57
5964.32 1362.03 1295.39
5967.19 1295.16 1021.26
5970.05 406.598 1025.7
5972.91 1375.35 973.728
5975.78 1139.24 1302.76
5978.64 1393.69 1308.17
5981.5 1391.57 1318.68
5984.36 1170.79 1304.1
5987.23 1349.93 1304.55
5990.09 1392.91 1344.53
5992.95 1290.76 1292.47
5995.81 1193.75 1034.3
5998.68 618.38 1016.97
6001.54 1238.78 1091.9
6004.4 1418.55 1277.48
6007.26 1175.1 1017.27
6010.12 458.143 980.341
6012.98 1307.78 1039.61
6015.85 1352.92 1311.9
6018.71 1274.99 1312.08
6021.57 1308.33 1254.98
6024.43 1181.63 1286.29
6027.29 1368.91 1253.87
6030.15 1211.06 1273.98
6033.01 1241.95 1226.06
6035.87 1225.15 1270.56
6038.73 1344.58 1283.75
6041.59 1281.53 1319.17
6044.45 1331.39 1313.23
6047.31 1326.78 1309.72
6050.17 1271 1279.78
6053.03 1241.58 1273.3
6055.89 1307.31 1243.17
6058.75 1180.61 1274.47
6061.61 1335.47 1269.67
6064.47 1292.92 1285.01
6067.33 1226.65 1282.39
6070.19 1327.59 1288.36
6073.05 1310.84 1339.5
6075.91 1380.06 1282.24
6078.77 1155.81 1307.49
6081.62 1386.62 1277.83
6084.48 1291.08 1335.18
6087.34 1327.85 995.519
6090.2 367.628 960.712
6093.06 1186.65 636.664
6095.92 355.71 999.29
6098.77 1455.51 1027.87
6101.63 1272.38 1333.77
6104.49 1273.42 1275.7
6107.35 1281.28 1330.77
6110.2 1437.61 1373.47
6113.06 1401.51 1381.4
6115.92 1305.09 1328.6
6118.78 1279.21 1335.68
6121.63 1422.74 1082.01
6124.49 544.091 1110.18
6127.35 1363.71 1066.47
6130.2 1291.62 1281.08
6133.06 1187.92 1286.93
6135.92 1381.24 1261.8
6138.77 1216.22 1263.32
6141.63 1192.49 1267.29
6144.48 1393.16 1008.17
6147.34 438.848 781.93
6150.19 513.783 726.789
6153.05 1227.73 993.137
6155.91 1237.89 1262.11
6158.76 1320.69 1270.11
6161.62 1251.76 1311.33
6164.47 1361.56 1317.82
6167.33 1340.15 1078.32
6170.18 533.254 1058.98
6173.04 1303.54 1024.71
6175.89 1237.35 1268.31
6178.74 1264.05 1268.42
6181.6 1303.87 1019.27
6184.45 489.878 1030.72
6187.31 1298.4 1024.49
6190.16 1285.19 1015.16
6193.01 461.887 998.687
6195.87 1248.98 1005.69
6198.72 1306.19 1262.61
6201.57 1232.67 967.176
6204.43 362.671 649.316
6207.28 352.61 646.58
6210.13 1224.46 929.048
6212.99 1210.08 1257.37
6215.84 1337.59 1301.98
6218.69 1358.27 1345.97
6221.54 1342.04 1323.65
6224.4 1270.64 1290.16
6227.25 1257.79 1023.73
6230.1 542.758 982.182
6232.95 1146 995.029
6235.8 1296.33 1261.53
6238.66 1342.27 1285.93
6241.51 1219.19 1267.2
6244.36 1240.13 1243.66
6247.21 1271.65 1244.41
6250.06 1221.46 1246.77
6252.91 1247.2 1257.74
6255.76 1304.56 980.283
6258.61 389.083 933.678
6261.46 1107.39 709.755
6264.32 632.797 1018.31
6267.17 1314.74 1060.91
6270.02 1235.19 1262.68
6272.87 1238.11 1275.59
6275.72 1353.48 1292.07
6278.57 1284.61 1233.61
6281.42 1062.73 1217.34
6284.27 1304.68 1234.38
6287.11 1335.73 1278.19
6289.96 1194.16 1254.8
6292.81 1234.52 830.013
6295.66 61.3576 414.763
6298.51 -51.5902 459.119
6301.36 1367.59 855.69
6304.21 1251.07 1277.39
6307.06 1213.5 940.466
6309.91 356.823 657.87
6312.75 403.283 685.632
6315.6 1296.79 974.891
6318.45 1224.6 1293.4
6321.3 1358.81 1300.85
6324.15 1319.13 1343.22
6326.99 1351.71 1325.11
6329.84 1304.49 1327.21
6332.69 1325.42 1304.21
6335.53 1282.7 1319.7
6338.38 1350.96 1312.21
6341.23 1302.95 1075.09
6344.08 571.353 1064.24
6346.92 1318.42 823.991
6349.77 582.206 1082.11
6352.61 1345.71 1042.73
6355.46 1200.26 1254.46
6358.31 1217.4 1223.44
6361.15 1252.65 1232.23
6364 1226.63 1271.87
6366.84 1336.34 1266.29
6369.69 1235.89 1237.03
6372.54 1138.85 1198.8
6375.38 1221.64 930.451
6378.23 430.86 955.756
6381.07 1214.77 985.721
6383.92 1311.54 1230.71
6386.76 1165.84 1275.2
6389.6 1348.22 1175.13
6392.45 1011.31 1183.58
6395.29 1191.2 1167.33
6398.14 1299.48 965.974
6400.98 407.25 707.151
6403.83 414.727 665.05
6406.67 1173.17 913.344
6409.51 1152.13 1213.04
6412.36 1313.82 1201.54
6415.2 1138.68 1175.04
6418.04 1072.61 1166.09
6420.89 1286.99 929.292
6423.73 428.27 957.44
6426.57 1157.06 928.312
6429.41 1199.61 1194.61
6432.26 1227.17 1211.09
6435.1 1206.51 958.829
6437.94 442.81 930.305
6440.78 1141.6 683.862
6443.63 467.179 716.831
6446.47 541.716 763.071
6449.31 1280.32 1005.99
6452.15 1195.95 1191.54
6454.99 1098.35 958.228
6457.83 580.384 738.717
6460.67 537.418 762.99
6463.51 1171.17 929.665
6466.36 1080.41 1179.98
6469.2 1288.36 1220.61
6472.04 1293.06 1295.66
6474.88 1305.56 1294.39
6477.72 1284.55 1279.38
6480.56 1248.02 998.926
6483.4 464.199 962.818
6486.24 1176.23 911.543
6489.08 1094.2 1145.08
6491.92 1164.82 1178.85
6494.76 1277.54 1238.76
6497.59 1273.91 1255.8
6500.43 1215.95 1199.69
6503.27 1109.23 1124.52
6506.11 1048.4 1113.89
6508.95 1184.06 925.937
6511.79 545.355 978.267
6514.63 1205.39 739.821
6517.46 468.721 955.941
6520.3 1193.72 993.136
6523.14 1316.97 1224.41
6525.98 1162.54 1212.6
6528.82 1158.29 1201.35
6531.65 1283.21 1213.26
6534.49 1198.28 1216.13
6537.33 1166.9 1182.56
6540.17 1182.5 1178.62
6543 1186.45 1188.26
6545.84 1195.82 1195.82
6548.68 1205.19 1172.88
6551.51 1117.64 1097.06
6554.35 968.35 985.078
6557.18 869.243 932.519
6560.02 959.965 947.653
6562.86 1013.75 1009.03
6565.69 1053.37 1055.66
6568.53 1099.85 1101.78
6571.36 1152.13 1127.82
6574.2 1131.47 1184.67
6577.03 1270.42 1185.24
6579.87 1153.83 1226.84
6582.7 1256.26 1221.64
6585.54 1254.83 1241.9
6588.37 1214.62 1290.2
6591.21 1401.17 1300.48
6594.04 1285.65 1059.74
6596.87 492.403 923.413
6599.71 992.188 891.856
6602.54 1190.98 1033.19
6605.38 916.408 815.441
6608.21 338.936 796.493
6611.04 1134.14 825.623
6613.88 1003.8 1072.77
6616.71 1080.37 1040.45
6619.54 1037.18 1067.25
6622.37 1084.22 825.759
6625.21 355.878 863.974
6628.04 1151.82 687.756
6630.87 555.567 965.769
6633.7 1189.92 694.965
6636.54 339.409 873.752
6639.37 1091.93 833.622
6642.2 1069.53 1080.21
6645.03 1079.16 1106.4
6647.86 1170.51 1098.91
6650.69 1047.07 1138.46
6653.52 1197.79 1085.9
6656.36 1012.84 1085.03
6659.19 1044.46 1079.33
6662.02 1180.68 1144.05
6664.85 1207.01 976.446
6667.68 541.653 721.631
6670.51 416.234 664.421
6673.34 1035.38 856.639
6676.17 1118.31 1117.77
6679 1199.63 919.356
6681.83 440.13 705.207
6684.66 475.858 709.788
6687.49 1213.38 921.618
6690.31 1075.62 1124.61
6693.14 1084.85 849.223
6695.97 387.2 623.342
6698.8 397.979 614.911
6701.63 1059.55 859.841
6704.46 1121.99 1079.86
6707.29 1058.04 1029.82
6710.11 909.436 995.537
6712.94 1019.13 1016.8
6715.77 1121.84 1059.14
6718.6 1036.43 1108.58
6721.42 1167.47 1037.24
6724.25 907.828 1025.05
6727.08 999.854 715.074
6729.9 237.541 496.818
6732.73 253.06 525.64
6735.56 1086.32 545.151
6738.38 296.076 555.957
6741.21 285.477 543.523
6744.04 1049.02 806.573
6746.86 1085.23 1070.34
6749.69 1076.78 1069.89
6752.51 1047.68 1083.18
6755.34 1125.08 840.699
6758.16 349.332 662.432
6760.99 512.879 638.33
6763.81 1052.78 655.297
6766.64 400.233 860.15
6769.46 1127.44 864.499
6772.29 1065.83 1099.55
6775.11 1105.39 844.19
6777.94 361.356 855.514
6780.76 1099.8 621.227
6783.58 402.524 865.234
6786.41 1093.38 834.868
6789.23 1008.7 1071.3
6792.06 1111.83 1016.85
6794.88 930.02 996.478
6797.7 947.583 1027.07
6800.52 1203.62 1098.14
6803.35 1143.22 1178.63
6806.17 1189.07 1151.91
6808.99 1123.44 1139.86
6811.81 1107.09 1122.41
6814.64 1136.69 1130.57
6817.46 1147.91 1094.15
6820.28 997.837 1076.7
6823.1 1084.35 802.518
6825.92 325.371 863.03
6828.74 1179.37 865.363
6831.57 1091.35 881.944
6834.39 375.113 849.224
6837.21 1081.21 609.241
6840.03 371.398 830.57
6842.85 1039.1 845.598
6845.67 1126.3 1095.39
6848.49 1120.76 1125.46
6851.31 1129.32 1096.89
6854.13 1040.6 1039.77
6856.95 949.377 999.702
6859.77 1009.13 973.913
6862.59 963.23 938.706
6865.41 843.755 846.019
6868.22 731.071 826.223
6871.04 903.844 842.995
6873.86 894.071 903.971
6876.68 913.996 703.743
6879.5 303.161 715.054
6882.32 928.006 700.851
6885.14 871.386 912.288
6887.95 937.471 909.089
6890.77 918.41 913.148
6893.59 883.562 691.57
6896.41 272.737 721.73
6899.22 1008.89 535.543
6902.04 324.999 768.661
6904.86 972.091 749.787
6907.67 952.269 993.438
6910.49 1055.95 1009.37
6913.31 1019.88 1068.15
6916.12 1128.62 1087.79
6918.94 1114.86 1126.08
6921.75 1134.77 1108.04
6924.57 1074.5 1108.62
6927.38 1116.6 1054.53
6930.2 972.498 1056.55
6933.02 1080.56 1086.59
6935.83 1206.7 1098.67
6938.64 1008.76 1069.76
6941.46 993.826 1010.15
6944.27 1027.87 1033.57
6947.09 1079 1086.76
6949.9 1153.41 1107.56
6952.72 1090.26 1116.58
6955.53 1106.07 897.548
6958.34 496.314 907.331
6961.16 1119.61 878.845
6963.97 1020.62 854.783
6966.78 424.127 648.724
6969.6 501.427 667.985
6972.41 1078.4 879.634
6975.22 1059.07 852.837
6978.03 421.035 856.516
6980.85 1089.44 865.207
6983.66 1085.15 1087.7
6986.47 1088.51 1074.63
6989.28 1050.24 1047.63
6992.09 1004.14 1014.98
6994.9 990.547 1027.29
6997.72 1087.17 843.624
7000.53 453.153 908.817
7003.34 1186.13 724.257
7006.15 533.493 924.932
7008.96 1055.18 843.016
7011.77 940.379 1024.85
7014.58 1078.99 1004.75
7017.39 994.884 1039.3
7020.2 1044.01 844.925
7023.01 495.883 663.335
7025.82 450.113 630.594
7028.63 945.785 828.036
7031.44 1088.21 999.54
7034.25 964.626 817.434
7037.05 399.466 804.634
7039.86 1049.81 815.64
7042.67 997.646 811.164
7045.48 386.037 746.505
7048.29 855.831 764.567
7051.09 1051.83 1030.86
7053.9 1184.91 1080.8
7056.71 1005.64 884.919
7059.52 464.205 847.757
7062.32 1073.42 868.424
7065.13 1067.64 1042.68
7067.94 986.981 1037.63
7070.74 1058.28 829.97
7073.55 444.65 852.587
7076.36 1054.83 655.772
7079.16 467.833 637.278
7081.97 389.169 644.653
7084.78 1076.96 829.306
7087.58 1021.79 1067.64
7090.39 1104.17 1072.58
7093.19 1091.78 1103.21
7096 1113.67 1085.53
7098.8 1051.14 1052.68
7101.61 993.229 1012.42
7104.41 992.885 1021.45
7107.21 1078.23 1054.38
7110.02 1092.04 920.384
7112.82 590.881 705
7115.63 432.08 703.082
7118.43 1086.28 696.288
7121.23 570.499 700.426
7124.04 444.493 664.343
7126.84 978.036 817.219
7129.64 1029.13 1003.33
7132.45 1002.81 999.885
7135.25 967.714 1000
7138.05 1029.48 1000.13
7140.85 1003.19 1045.53
7143.65 1103.92 1011.22
7146.46 926.56 1018.77
7149.26 1025.84 1009.28
7152.06 1075.44 796.06
7154.86 286.904 617.899
7157.66 491.359 602.555
7160.46 1029.4 649.529
7163.26 427.825 803.112
7166.06 952.108 776.623
7168.86 949.937 976.088
7171.66 1026.22 964.131
7174.46 916.236 781.11
7177.26 400.875 765.791
7180.06 980.261 730.294
7182.86 809.746 927.398
7185.66 992.186 886.172
7188.46 856.584 731.044
7191.26 344.362 717.254
7194.06 950.817 722.362
7196.86 871.909 728.606
7199.65 363.092 735.877
7202.45 972.631 756.808
7205.25 934.703 962.296
7208.05 979.554 782.483
7210.85 433.193 808.936
7213.64 1014.06 812.911
7216.44 991.481 988.811
7219.24 960.892 992.841
7222.03 1026.15 981.929
7224.83 958.745 992.798
7227.63 993.498 740.88
7230.42 270.397 732.98
7233.22 935.045 501.763
7236.01 299.846 707.622
7238.81 887.975 751.212
7241.61 1065.82 943.429
7244.4 876.497 969.777
7247.2 967.018 914.067
7249.99 898.686 962.977
7252.79 1023.23 916.135
7255.58 826.492 709.66
7258.37 279.263 647.946
7261.17 838.082 652.605
7263.96 840.47 625.195
7266.76 197.032 424.035
7269.55 234.604 466.234
7272.34 967.067 672.318
7275.14 815.282 654.195
7277.93 180.235 650.577
7280.72 956.216 628.482
7283.51 748.996 836.94
7286.31 805.61 786.192
7289.1 803.969 793.277
7291.89 770.253 803.356
7294.68 835.846 833.658
7297.47 894.875 851.861
7300.27 824.862 832.025
7303.06 776.338 785.447
7305.85 755.14 782.631
7308.64 816.416 793.426
7311.43 808.721 793.478
7314.22 755.297 791.567
7317.01 810.682 810.921
7319.8 866.785 813.839
7322.59 764.049 776.473
7325.38 698.584 767.913
7328.17 841.106 770.639
7330.96 772.226 607.316
7333.75 208.615 551.919
7336.54 674.917 311.922
7339.33 52.2356 494.512
7342.11 756.384 525.411
7344.9 767.612 752.924
7347.69 734.776 758.255
7350.48 772.377 760.728
7353.27 775.031 765.56
7356.05 749.272 798.345
7358.84 870.734 824.594
7361.63 853.776 857.739
7364.42 848.707 600.923
7367.2 100.286 507.692
7369.99 574.083 490.612
7372.77 797.466 711.817
7375.56 763.9 744.394
7378.35 671.815 732.237
7381.13 760.994 700.193
7383.92 667.769 755.877
7386.7 838.868 750.885
7389.49 746.017 800.566
7392.27 816.812 788.655
7395.06 803.137 846.356
7397.84 919.119 604.894
7400.63 92.4259 594.931
7403.41 773.248 522.517
7406.2 701.875 593.677
7408.98 305.908 554.423
7411.76 655.486 569.36
7414.55 746.687 735.769
7417.33 805.135 750.323
7420.11 699.146 748.057
7422.9 739.89 756.642
7425.68 830.891 795.639
7428.46 816.137 805.993
7431.24 770.951 787.657
7434.02 775.883 760.344
7436.81 734.199 731.199
7439.59 683.513 543.209
7442.37 211.914 517.085
7445.15 655.829 582.065
7447.93 878.451 601.664
7450.71 270.712 649.64
7453.49 799.757 444.512
7456.27 263.066 606.921
7459.05 757.939 604.004
7461.83 791.005 738.413
7464.61 666.296 556.218
7467.39 211.353 579.176
7470.17 859.879 432.072
7472.95 224.985 439.244
7475.73 232.867 410.969
7478.51 775.053 601.507
7481.29 796.599 773.556
7484.07 749.015 819.54
7486.84 913.005 810.792
7489.62 770.357 649.192
7492.4 264.215 431.542
7495.18 260.055 407.747
7497.95 698.972 421.014
7500.73 304.014 577.741
7503.51 730.236 579.588
7506.28 704.514 741.6
7509.06 790.051 569.393
7511.84 213.614 619.699
7514.61 855.431 609.245
7517.39 758.69 767.642
7520.17 688.805 734.784
7522.94 756.858 732.398
7525.72 751.53 764.619
7528.49 785.469 790.932
7531.27 835.797 775.848
7534.04 706.277 749.828
7536.81 707.412 690.908
7539.59 659.035 699.246
7542.36 731.292 717.607
7545.14 762.494 583.308
7547.91 256.139 453.953
7550.68 343.225 429.881
7553.46 690.278 569.746
7556.23 675.735 701.819
7559 739.443 564.172
7561.77 277.339 560.872
7564.55 665.833 580.601
7567.32 798.631 728.48
7570.09 720.976 743.402
7572.86 710.599 720.092
7575.63 728.7 728.636
7578.41 746.611 721.063
7581.18 687.878 707.195
7583.95 687.096 665.262
7586.72 620.812 646.95
7589.49 632.944 536.968
7592.26 357.149 260.2
7595.03 -209.494 -59.9847
7597.8 -327.609 -132.723
7600.57 138.934 -38.8464
7603.34 72.1363 -9.24355
7606.11 -238.801 12.9525
7608.87 205.522 100.496
7611.64 334.766 324.46
7614.41 433.093 400.05
7617.18 432.29 429.182
7619.95 422.162 271.918
7622.72 -38.6983 123.384
7625.48 -13.3109 95.7951
7628.25 339.394 86.5494
7631.02 -66.4354 74.9811
7633.79 -48.0159 42.5249
7636.55 242.026 196.628
7639.32 395.874 207.891
7642.08 -14.2269 263.207
7644.85 407.974 265.306
7647.62 402.17 412.77
7650.38 428.164 450.421
7653.15 520.927 491.131
7655.91 524.302 504.327
7658.68 467.751 532.091
7661.44 604.221 555.69
7664.21 595.099 607.072
7666.97 621.897 584.585
7669.74 536.759 602.427
7672.5 648.625 604.317
7675.26 627.566 638.305
7678.03 638.723 617.622
7680.79 586.577 646.746
7683.55 714.937 615.585
7686.32 545.241 628.927
7689.08 626.602 614.015
7691.84 670.201 610.885
7694.6 535.851 620.853
7697.37 656.507 616.018
7700.13 655.696 643.938
7702.89 619.611 645.635
7705.65 661.598 643.191
7708.41 648.364 454.682
7711.17 54.0844 233.904
7713.93 -0.735989 234.948
7716.69 651.496 445.67
7719.45 686.25 472.427
7722.21 79.5359 464.945
7724.97 629.049 452.457
7727.73 648.787 595.144
7730.49 507.597 581.576
7733.25 588.343 594.504
7736.01 687.573 489.539
7738.77 192.701 476.02
7741.53 547.787 272.61
7744.29 77.3416 401.59
7747.04 579.641 214.876
7749.8 -12.3554 398.251
7752.56 627.468 409.493
7755.32 613.366 633.638
7758.07 660.082 589.116
7760.83 493.899 583
7763.59 595.018 573.922
7766.34 632.85 605.674
7769.1 589.153 611.878
7771.85 613.632 584.568
7774.61 550.92 577.709
7777.37 568.575 448.428
7780.12 225.788 319.113
7782.88 162.975 309.7
7785.63 540.338 428.368
7788.39 581.79 576.552
7791.14 607.527 412.331
7793.89 47.6763 222.62
7796.65 12.6582 204.524
7799.4 553.237 373.312
7802.16 554.04 548.741
7804.91 538.944 406.943
7807.66 127.846 222.322
7810.41 0.174841 269.216
7813.17 679.628 439.155
7815.92 637.662 626.341
7818.67 561.734 603.646
7821.42 611.542 579.174
7824.17 564.244 553.189
7826.93 483.781 541.748
7829.68 577.219 531.178
7832.43 532.533 578.322
7835.18 625.215 588.206
7837.93 606.871 464.989
7840.68 162.881 432.879
7843.43 528.884 261.201
7846.18 91.8382 395.969
7848.93 567.185 394.128
7851.68 523.361 596.327
7854.43 698.435 570.867
7857.18 490.805 581.029
7859.93 553.847 520.572
7862.67 517.064 509.271
7865.42 456.901 373.579
7868.17 146.77 410.282
7870.92 627.176 450.134
7873.66 576.457 595.209
7876.41 581.995 415.875
7879.16 89.1729 408.523
7881.91 554.4 422.62
7884.65 624.287 569.973
7887.4 531.233 556.464
7890.14 513.872 503.072
7892.89 464.113 510.938
7895.64 554.829 521.853
7898.38 546.618 572.285
7901.13 615.408 545.578
7903.87 474.706 541.767
7906.62 535.186 508.88
7909.36 516.746 519.165
7912.1 505.564 555.893
7914.85 645.368 576.118
7917.59 577.423 557.384
7920.34 449.362 510.058
7923.08 503.389 494.126
7925.82 529.627 518.15
7928.57 521.433 522.348
7931.31 515.984 511.016
7934.05 495.631 520.528
7936.79 549.968 494.82
7939.53 438.862 506.405
7942.28 530.386 475.788
7945.02 458.116 522.397
7947.76 578.689 503.425
7950.5 473.472 541.259
7953.24 571.617 386.439
7955.98 114.23 290.69
7958.72 186.223 289.735
7961.46 568.752 434.843
7964.2 549.555 388.42
7966.94 46.9521 382.007
7969.68 549.514 386.71
7972.42 563.663 557.343
7975.16 558.854 530.819
7977.89 469.941 526.536
7980.63 550.814 380.74
7983.37 121.465 377.119
7986.11 459.08 311.818
7988.85 354.911 421.844
7991.58 451.54 448.798
7994.32 539.943 475.309
7997.06 434.444 486.54
7999.79 485.232 433.614
8002.53 381.164 388.004
8005.27 297.615 358.332
8008 396.216 382.466
8010.74 453.566 427.155
8013.47 431.683 403.03
8016.21 323.841 381.213
8018.94 388.116 351.173
8021.68 341.561 395.612
8024.41 457.159 390.853
8027.15 373.839 405.498
8029.88 385.497 387.697
8032.61 403.756 398.622
8035.35 406.611 422.127
8038.08 456.013 462.827
8040.81 525.857 488.084
8043.54 482.383 478.274
8046.28 426.583 456.379
8049.01 460.172 437.926
8051.74 427.023 438.758
8054.47 429.08 420.914
8057.2 406.639 419.031
8059.94 421.375 426.663
8062.67 451.975 457.698
8065.4 499.745 475.143
8068.13 473.709 452.232
8070.86 383.242 436.988
8073.59 454.013 428.087
8076.32 447.005 456.501
8079.05 468.486 450.158
8081.78 434.984 436.279
8084.5 405.367 390.761
8087.23 331.933 418.446
8089.96 518.038 437.356
8092.69 462.098 478.384
8095.42 455.016 446.442
8098.15 422.214 417.768
8100.87 376.073 425.509
8103.6 478.241 411.552
8106.33 380.342 443.349
8109.05 471.463 425.865
8111.78 425.791 439.512
8114.51 421.284 405.387
8117.23 369.086 370.24
8119.96 320.351 343.868
8122.68 342.167 348.134
8125.41 381.883 384.837
8128.13 430.462 377.578
8130.86 320.39 381.522
8133.58 393.713 385.329
8136.31 441.885 433.317
8139.03 464.353 414.054
8141.75 335.924 402.514
8144.48 407.264 370.289
8147.2 367.678 364.025
8149.92 317.133 345.945
8152.65 353.024 320.944
8155.37 292.676 337.235
8158.09 366.005 354.932
8160.81 406.114 383.497
8163.53 378.372 344.043
8166.26 247.644 323.596
8168.98 344.772 348.704
8171.7 453.697 389.544
8174.42 370.164 378.345
8177.14 311.175 340.765
8179.86 340.956 340.035
8182.58 367.975 362.407
8185.3 378.29 404.933
8188.02 468.535 393.561
8190.74 333.858 377.824
8193.46 331.078 341.113
8196.17 358.402 324.765
8198.89 284.814 341.602
8201.61 381.59 351.087
8204.33 386.857 393.723
8207.05 412.72 393.703
8209.76 381.532 394.394
8212.48 388.928 386.44
8215.2 388.859 365.263
8217.91 318.003 359.083
8220.63 370.389 335.226
8223.34 317.288 323.518
8226.06 282.878 320.346
8228.78 360.874 355.808
8231.49 423.673 374.551
8234.21 339.107 395.886
8236.92 424.876 381.767
8239.63 381.317 400.577
8242.35 395.538 369.443
8245.06 331.474 374.743
8247.78 397.216 342.379
8250.49 298.447 325.844
8253.2 281.869 320.802
8255.92 382.089 365.692
8258.63 433.118 381.345
8261.34 328.827 405.32
8264.05 454.016 396.955
8266.76 408.023 441.332
8269.48 461.957 400.996
8272.19 333.006 410.898
8274.9 437.732 408.007
8277.61 453.282 427.747
8280.32 392.227 409.046
8283.03 381.628 373.1
8285.74 345.444 353.948
8288.45 334.771 359.926
8291.16 399.563 353.518
8293.87 326.219 356.888
8296.58 344.882 355.703
8299.28 396.007 350.798
8301.99 311.504 320.364
8304.7 253.581 311.589
8307.41 369.683 293.961
8310.12 258.618 324.208
8312.82 344.323 318.843
8315.53 353.587 330.023
8318.24 292.159 327.854
8320.94 337.814 339.415
8323.65 388.271 341.006
8326.36 296.933 331.744
8329.06 310.029 331.721
8331.77 388.201 345.925
8334.47 339.544 365.535
8337.18 368.86 375.697
8339.88 418.688 403.399
8342.59 422.649 403.157
8345.29 368.133 373.315
8347.99 329.162 310.059
8350.7 232.881 300.944
8353.4 340.79 318.769
8356.1 382.638 376.323
8358.81 405.54 367.04
8361.51 312.943 351.115
8364.21 334.863 300.58
8366.91 253.933 280.297
8369.61 252.094 269.697
8372.31 303.063 317.211
8375.02 396.475 348.239
8377.72 345.178 373.276
8380.42 378.174 356.335
8383.12 345.653 352.819
8385.82 334.63 345.647
8388.52 356.657 345.938
8391.22 346.528 359.488
8393.92 375.28 359.221
8396.61 355.855 387.345
8399.31 430.899 379.521
8402.01 351.809 381.594
8404.71 362.073 356.574
8407.41 355.839 379.467
8410.1 420.49 396.127
8412.8 412.051 394.4
8415.5 350.658 386.538
8418.2 396.905 346.466
8420.89 291.835 341.217
8423.59 334.912 326.974
8426.28 354.175 338.744
8428.98 327.144 321.537
8431.67 283.292 311.371
8434.37 323.678 323.521
8437.06 363.594 352.79
8439.76 371.099 333.462
8442.45 265.695 320.121
8445.15 323.569 333.765
8447.84 412.03 365.224
8450.53 360.073 393.197
8453.23 407.486 366.467
8455.92 331.843 349.523
8458.61 309.241 385.936
8461.3 516.724 375.396
8464 300.222 403.257
8466.69 392.827 359.618
8469.38 385.806 362.186
8472.07 307.925 352.272
8474.76 363.085 346.559
8477.45 368.667 352.974
8480.14 327.172 347.662
8482.83 347.147 321.572
8485.52 290.397 335.543
8488.21 369.084 319.52
8490.9 299.078 337.629
8493.59 344.726 305.634
8496.28 273.099 338.084
8498.97 396.429 321.879
8501.65 296.11 348.46
8504.34 352.842 352.366
8507.03 408.146 339.546
8509.72 257.649 341.371
8512.4 358.319 300.113
8515.09 284.371 332.555
8517.78 354.977 322.851
8520.46 329.207 351.927
8523.15 371.596 356.011
8525.83 367.23 372.702
8528.52 379.278 362.936
8531.2 342.301 339.821
8533.89 297.883 298.583
8536.57 255.565 278.42
8539.26 281.81 264.515
8541.94 256.17 298.131
8544.62 356.414 316.296
8547.31 336.304 357.258
8549.99 379.056 342.553
8552.67 312.299 345.458
8555.35 345.018 341.614
8558.04 367.523 347.83
8560.72 330.949 346.803
8563.4 341.938 359.309
8566.08 405.04 370.044
8568.76 363.154 397.012
8571.44 422.841 364.643
8574.12 307.933 368
8576.8 373.225 341.977
8579.48 344.773 356.944
8582.16 352.834 345.041
8584.84 337.515 355.551
8587.52 376.304 329.94
8590.2 276.001 332.896
8592.88 346.383 315.101
8595.55 322.921 351.947
8598.23 386.539 350.589
8600.91 342.306 387.048
8603.59 432.299 359.762
8606.26 304.679 359.276
8608.94 340.848 339.753
8611.61 373.732 372.908
8614.29 404.143 375.626
8616.97 349.003 377.331
8619.64 378.848 374.587
8622.32 395.912 372.902
8624.99 343.946 386.731
8627.67 420.335 378.845
8630.34 372.254 363.295
8633.01 297.295 345.376
8635.69 366.578 321.444
8638.36 300.458 450.751
8641.03 685.216 404.352
8643.71 227.383 430.511
8646.38 378.933 318.869
8649.05 350.29 342.724
8651.72 298.947 316.491
8654.39 300.235 284.918
8657.07 255.571 245.628
8659.74 181.077 246.257
8662.41 302.123 255.331
8665.08 282.795 321.421
8667.75 379.345 324.576
8670.42 311.587 349.783
8673.09 358.416 347.424
8675.76 372.269 352.628
8678.42 327.2 339.115
8681.09 317.876 324.979
8683.76 329.862 335.787
8686.43 359.622 324.954
8689.1 285.376 322.229
8691.76 321.688 319.332
8694.43 350.931 355.856
8697.1 394.949 393.29
8699.76 433.99 393.705
8702.43 352.175 362.927
8705.1 302.615 302.072
8707.76 251.427 269.552
8710.43 254.613 256.377
8713.09 263.09 260.964
8715.76 265.189 268.756
8718.42 277.989 247.617
8721.08 199.672 254.164
8723.75 284.83 267.702
8726.41 318.604 267.871
8729.07 200.18 266.973
8731.74 282.135 270.047
8734.4 327.828 293.404
8737.06 270.249 282.804
8739.72 250.335 271.855
8742.39 294.981 277.404
8745.05 286.896 300.884
8747.71 320.775 297.155
8750.37 283.794 274.436
8753.03 218.738 274.616
8755.69 321.314 269.968
8758.35 269.851 276.752
8761.01 239.091 266.23
8763.67 289.748 261.029
8766.33 254.248 246.644
8768.98 195.936 232.006
8771.64 245.834 252.326
8774.3 315.208 271.02
8776.96 252.018 238.134
8779.62 147.177 180.858
8782.27 143.378 164.803
8784.93 203.854 221.163
8787.59 316.256 242.028
8790.24 205.974 249.973
8792.9 227.689 213.119
8795.55 205.693 231.621
8798.21 261.481 210.727
8800.86 165.006 210.441
8803.52 204.836 176.263
8806.17 158.946 193.225
8808.83 215.892 185.225
8811.48 180.837 218.87
8814.13 259.881 245.448
8816.79 295.626 278.543
8819.44 280.121 291.248
8822.09 297.998 292.843
8824.74 300.409 256.231
8827.39 170.286 236.535
8830.05 238.909 193.533
8832.7 171.404 192.438
8835.35 167 191.704
8838 236.707 221.89
8840.65 261.964 229.189
8843.3 188.896 212.109
8845.95 185.467 210.443
8848.6 256.966 213.295
8851.25 197.451 232.278
8853.89 242.418 221.883
8856.54 225.781 237.265
8859.19 243.596 202.971
8861.84 139.534 217.614
8864.49 269.713 203.07
8867.13 199.962 203.919
8869.78 142.082 175.189
8872.43 183.524 178.582
8875.07 210.139 217.226
8877.72 258.016 213.58
8880.36 172.586 214.608
8883.01 213.222 181.844
8885.65 159.724 185.708
8888.3 184.178 186.947
8890.94 216.939 189.887
8893.59 168.546 186.099
8896.23 172.812 200.332
8898.87 259.637 248.021
8901.52 311.613 265.596
8904.16 225.538 247.613
8906.8 205.687 197.203
8909.44 160.383 192.504
8912.08 211.441 190.837
8914.73 200.687 202.863
8917.37 196.46 241.464
8920.01 327.244 266.136
8922.65 274.704 282.309
8925.29 244.981 250.02
8927.93 230.374 251.57
8930.57 279.355 267.948
8933.21 294.113 288.263
8935.84 291.322 295.772
8938.48 301.88 285.627
8941.12 263.678 265.716
8943.76 231.589 244.629
8946.4 238.621 250.782
8949.03 282.135 265.161
8951.67 274.726 283.537
8954.31 293.75 292.558
8956.94 309.198 288.723
8959.58 263.221 247.741
8962.21 170.804 215.46
8964.85 212.355 220.091
8967.48 277.114 257.35
8970.12 282.58 287.301
8972.75 302.208 278.281
8975.39 250.056 279.747
8978.02 286.977 269.827
8980.65 272.446 268.377
8983.29 245.709 248.197
8985.92 226.437 238.8
8988.55 244.254 264.016
8991.18 321.356 268.677
8993.82 240.42 270.186
8996.45 248.782 248.512
8999.08 256.336 227.693
9001.71 177.962 222.975
9004.34 234.628 196.293
9006.97 176.288 207.13
9009.6 210.475 210.033
9012.23 243.338 228.401
9014.86 231.39 259.131
9017.49 302.664 236.94
9020.11 176.766 245.415
9022.74 256.816 254.615
9025.37 330.264 272.312
9028 229.855 262.886
9030.62 228.54 241.002
9033.25 264.611 247.602
9035.88 249.656 263.84
9038.5 277.252 235.731
9041.13 180.285 250.692
9043.75 294.538 232.901
9046.38 223.88 259.389
9049 259.748 236.752
9051.63 226.627 223.74
9054.25 184.844 199.858
9056.88 188.102 183.916
9059.5 178.804 207.207
9062.12 254.714 219.449
9064.74 224.83 245.252
9067.37 256.212 243.117
9069.99 248.31 225.703
9072.61 172.587 194.105
9075.23 161.419 111.335
