wavelength spec_sum spec_optimal
3525.07 132.122 114.352
3527.99 99.7983 86.8719
3530.91 95.3971 78.0116
3533.83 90.6196 86.6466
3536.75 84.363 83.4191
3539.67 111.425 92.8047
3542.59 115.758 106.267
3545.51 97.6074 94.5835
3548.43 105.58 95.0337
3551.35 102.821 105.235
3554.27 100.683 100.428
3557.19 121.078 120.569
3560.11 106.638 106.393
3563.03 99.5532 90.8924
3565.95 106.575 105.5
3568.87 95.1906 94.3025
3571.79 110.078 100.307
3574.71 103.912 105.28
3577.63 108.938 102.024
3580.55 112.196 102.964
3583.47 118.129 103.962
3586.39 114.6 97.0731
3589.31 127.705 109.732
3592.23 97.0385 90.1312
3595.15 111.178 100.6
3598.07 108.995 99.6303
3600.99 119.134 107.038
3603.91 103.901 102.049
3606.83 95.0073 92.3499
3609.75 120.142 113.439
3612.67 108.816 101.896
3615.59 132.087 121.493
3618.51 97.2878 88.2615
3621.43 118.955 108.931
3624.34 93.7454 93.98
3627.26 87.042 83.6186
3630.18 110.147 96.6063
3633.1 102.094 93.8751
3636.02 113.317 109.282
3638.94 98.4752 89.9676
3641.86 96.7952 92.1296
3644.78 93.6998 87.7619
3647.7 85.1166 81.0283
3650.62 95.8482 84.3353
3653.54 82.92 76.1641
3656.46 69.5517 69.5497
3659.38 81.6992 81.0883
3662.29 80.6883 77.7829
3665.21 74.1508 72.9191
3668.13 71.0465 69.6109
3671.05 65.8398 68.0229
3673.97 78.6709 71.806
3676.89 82.944 76.1348
3679.81 58.1091 51.3037
3682.73 74.2961 67.3121
3685.64 59.8691 52.6604
3688.56 64.9244 54.5862
3691.48 56.3287 49.7967
3694.4 67.5861 58.3291
3697.32 60.6653 59.1193
3700.24 68.0087 58.2806
3703.16 55.1046 58.1074
3706.08 62.0537 54.1788
3708.99 46.3354 45.3766
3711.91 54.3062 50.055
3714.83 55.1875 49.4856
3717.75 45.6758 41.3016
3720.67 36.7234 32.6142
3723.59 37.7427 40.1309
3726.5 50.9367 47.4723
3729.42 42.1656 37.3332
3732.34 47.4436 43.9162
3735.26 44.0382 38.3898
3738.18 37.9187 39.7108
3741.09 45.6961 37.4451
3744.01 39.7287 34.8212
3746.93 41.0192 44.1546
3749.85 33.3303 41.7278
3752.77 35.2162 30.3952
3755.68 39.3217 36.2976
3758.6 34.8374 29.3823
3761.52 47.1399 43.0764
3764.44 42.8046 36.3469
3767.36 40.1443 38.8944
3770.27 39.4644 30.9992
3773.19 35.1496 36.673
3776.11 42.6676 45.4906
3779.03 30.4863 35.2747
3781.94 42.7598 46.7916
3784.86 38.7414 42.2491
3787.78 37.6772 39.8511
3790.7 42.6511 39.2954
3793.61 37.1655 42.1826
3796.53 37.6009 38.3399
3799.45 37.5929 42.632
3802.37 41.0577 38.1098
3805.28 44.5634 44.909
3808.2 43.4356 45.8881
3811.12 37.5334 37.6442
3814.03 47.2837 46.0325
3816.95 49.8165 50.5149
3819.87 51.8493 49.9552
3822.79 49.0058 45.18
3825.7 45.8272 49.3808
3828.62 55.9138 51.4407
3831.54 51.7475 52.1331
3834.45 49.7216 47.1981
3837.37 53.6111 47.2107
3840.29 51.9498 50.1095
3843.2 49.7565 48.5715
3846.12 50.3772 47.6177
3849.04 51.0833 46.4248
3851.95 47.3551 43.9001
3854.87 51.2291 52.0855
3857.79 52.3135 50.048
3860.7 48.9969 48.7426
3863.62 56.6293 54.0438
3866.54 53.2026 53.573
3869.45 48.875 53.1143
3872.37 54.4368 57.8803
3875.29 51.0618 46.6778
3878.2 50.0976 56.1047
3881.12 64.8293 63.6779
3884.04 59.2708 57.4641
3886.95 67.8575 63.6831
3889.87 70.5706 71.1634
3892.78 71.1048 68.745
3895.7 69.9073 66.221
3898.62 66.2769 68.495
3901.53 74.0164 72.744
3904.45 77.0931 75.5824
3907.36 75.4462 73.1087
3910.28 81.6053 82.1106
3913.2 85.1137 85.6752
3916.11 81.1979 88.0748
3919.03 85.1189 88.5329
3921.94 93.4072 95.3141
3924.86 92.6872 93.9615
3927.78 90.705 89.2619
3930.69 93.1608 87.0068
3933.61 98.1942 94.6628
3936.52 93.5686 92.9622
3939.44 108.865 103.111
3942.35 97.6121 103.549
3945.27 104.367 106.005
3948.18 112.897 112.792
3951.1 110.769 112.032
3954.02 113.762 119.945
3956.93 113.145 113.242
3959.85 117.328 116.584
3962.76 115.788 114.437
3965.68 115.765 115.42
3968.59 124.642 117.369
3971.51 122.091 121.928
3974.42 120.137 119.192
3977.34 121.063 117.603
3980.25 120.063 121.703
3983.17 127.507 125.763
3986.08 122.902 127.639
3989 120.13 118.369
3991.91 126.72 127.709
3994.83 125.19 131.467
3997.74 127.049 125.302
4000.66 131.438 128.06
4003.57 124.837 125.582
4006.48 129.573 127.702
4009.4 125.838 127.642
4012.31 129.054 130.076
4015.23 136.448 131.483
4018.14 116.381 118.402
4021.06 115.467 120.596
4023.97 119.921 116.149
4026.89 122.34 118.557
4029.8 113.294 115.466
4032.71 118.84 118.454
4035.63 112.435 111.63
4038.54 113.568 113.763
4041.46 107.119 110.062
4044.37 110.986 111.865
4047.28 111.229 109.152
4050.2 109.052 107.106
4053.11 105.338 109.943
4056.03 97.4664 102.745
4058.94 106.588 105.697
4061.85 107.55 106.505
4064.77 96.9789 97.2572
4067.68 104.931 105.421
4070.6 103.747 102.059
4073.51 105.858 106.678
4076.42 111.699 111.996
4079.34 118.157 113.24
4082.25 104.915 108.069
4085.16 104.084 106.689
4088.08 104.931 105.617
4090.99 104.07 104.674
4093.9 104.677 111.963
4096.82 106.473 103.146
4099.73 114.262 114.947
4102.64 115.328 114.119
4105.56 118.828 122.218
4108.47 119.365 119.533
4111.38 116.818 122.261
4114.3 123.894 129.48
4117.21 122.781 125.106
4120.12 131.086 131.257
4123.03 121.361 128.276
4125.95 126.657 128.937
4128.86 128.675 131.959
4131.77 130.234 131.713
4134.69 130.993 131.361
4137.6 133.711 138.341
4140.51 127.716 131.105
4143.42 136.268 141.018
4146.34 139.251 140.95
4149.25 139.076 142.365
4152.16 138.793 138.913
4155.07 136.546 137.421
4157.99 136.966 137.147
4160.9 147.381 147.124
4163.81 145.253 148.164
4166.72 146.141 149.751
4169.63 140.407 140.938
4172.55 133.048 136.614
4175.46 140.016 143.079
4178.37 143.182 144.544
4181.28 131.622 134.603
4184.2 138.408 139.173
4187.11 139.166 141.893
4190.02 137.967 140.36
4192.93 132.429 137.116
4195.84 130.769 130.61
4198.75 131.625 126.967
4201.67 129.929 129.196
4204.58 122.376 123.462
4207.49 123.958 126.952
4210.4 128.052 126.418
4213.31 121.651 131.513
4216.22 119.787 123.151
4219.13 122.561 121.834
4222.05 121.028 125.471
4224.96 115.914 123.302
4227.87 121.627 124.718
4230.78 116.85 118.455
4233.69 121.765 124.63
4236.6 110.126 112.637
4239.51 125.324 127.1
4242.42 113.841 119.789
4245.34 115.348 117.525
4248.25 113.611 114.904
4251.16 113.216 115.894
4254.07 120.85 119.614
4256.98 110.081 114.89
4259.89 118.649 116.253
4262.8 115.929 117.529
4265.71 112.935 115.575
4268.62 111.151 113.21
4271.53 115.298 114.93
4274.44 107.18 112.604
4277.35 105.665 105.438
4280.26 108.343 111.089
4283.17 105.831 112.722
4286.08 100.756 104.882
4288.99 107.184 110.863
4291.9 108.697 112.974
4294.81 108.105 109.278
4297.72 106.484 108.328
4300.63 107.827 106.211
4303.54 92.5703 99.39
4306.45 93.1564 97.543
4309.36 93.0728 93.0219
4312.27 91.5694 93.3934
4315.18 92.2257 94.1387
4318.09 85.9842 94.128
4321 87.5204 91.9275
4323.91 91.7506 94.6887
4326.82 87.5826 87.4163
4329.73 85.7371 89.1585
4332.64 84.5154 89.1296
4335.55 79.8983 82.9159
4338.46 81.1972 81.0707
4341.37 72.5614 80.1544
4344.28 76.5034 80.7678
4347.19 82.5551 82.7971
4350.1 69.8605 76.5733
4353.01 76.1929 76.8478
4355.91 75.104 76.1408
4358.82 77.6654 79.9169
4361.73 76.9906 77.6564
4364.64 71.2173 75.0688
4367.55 64.1414 71.6012
4370.46 68.8608 72.3491
4373.37 66.3502 71.497
4376.28 74.647 75.5473
4379.19 64.6573 71.2502
4382.09 65.0368 68.8662
4385 72.8263 75.3626
4387.91 68.6718 68.3336
4390.82 63.6046 68.0702
4393.73 68.2803 72.1417
4396.64 77.6001 75.6446
4399.54 73.9805 75.2344
4402.45 74.7426 78.8445
4405.36 74.5459 74.3314
4408.27 72.3364 73.5528
4411.18 67.0047 77.4822
4414.08 68.6312 74.3725
4416.99 76.9676 80.557
4419.9 72.9415 77.2007
4422.81 71.0702 75.2596
4425.72 75.3807 78.6438
4428.62 84.3819 86.5275
4431.53 78.5728 84.3826
4434.44 84.615 90.5993
4437.35 83.4839 86.6489
4440.25 87.4349 90.601
4443.16 86.8013 94.1776
4446.07 86.7141 90.2919
4448.98 85.3699 89.9947
4451.88 89.8795 93.2957
4454.79 87.1825 93.8458
4457.7 90.1079 94.828
4460.61 80.8665 90.5879
4463.51 85.9232 90.2285
4466.42 90.3663 95.055
4469.33 90.5374 92.5937
4472.23 95.2867 97.7329
4475.14 90.5133 92.955
4478.05 88.5444 92.6357
4480.95 83.7363 86.6427
4483.86 85.8612 88.1686
4486.77 87.3093 90.2987
4489.67 81.8968 90.4106
4492.58 89.6949 93.1506
4495.49 82.9505 87.7895
4498.39 84.7375 86.9087
4501.3 84.9626 86.4791
4504.21 75.823 85.2044
4507.11 84.0925 87.785
4510.02 83.7575 85.441
4512.92 76.9907 83.4318
4515.83 78.6673 85.8674
4518.74 82.5378 90.8961
4521.64 79.2217 82.0685
4524.55 81.5344 85.6088
4527.45 85.7303 89.5213
4530.36 85.5826 91.9147
4533.27 85.6282 91.504
4536.17 88.5954 91.5244
4539.08 87.6687 92.6632
4541.98 85.6631 89.7187
4544.89 85.0707 95.8225
4547.79 90.4027 95.2464
4550.7 89.8549 94.7379
4553.6 92.9695 97.8669
4556.51 90.261 97.1568
4559.42 90.6666 94.9527
4562.32 93.6863 97.5787
4565.23 92.6587 101.07
4568.13 96.6434 99.1126
4571.04 92.4331 97.6516
4573.94 95.8916 104.683
4576.85 89.7886 98.9918
4579.75 97.8883 102.501
4582.66 95.8016 100.945
4585.56 94.8314 101.99
4588.46 99.4345 103.187
4591.37 96.4535 104.121
4594.27 99.5313 105.406
4597.18 100.656 105.028
4600.08 101.997 106.766
4602.99 101.417 109.19
4605.89 103.148 107.404
4608.8 102.608 104.639
4611.7 101.005 105.26
4614.6 92.2531 101.75
4617.51 99.2694 103.733
4620.41 102.867 103.758
4623.32 96.515 105.868
4626.22 102.707 108.633
4629.12 98.1331 103.865
4632.03 102.054 107.157
4634.93 98.4182 104.119
4637.83 96.5291 104.346
4640.74 95.3269 102.472
4643.64 98.9514 107.385
4646.54 92.5945 102.189
4649.45 91.8994 103.717
4652.35 94.5361 98.7868
4655.25 89.243 96.3868
4658.16 96.8182 100.786
4661.06 97.7796 103.477
4663.96 93.5993 103.426
4666.87 97.8435 104.101
4669.77 97.1888 100.071
4672.67 96.1811 102.687
4675.58 97.7759 100.704
4678.48 99.7251 107.88
4681.38 98.9559 105.345
4684.28 95.5104 99.2714
4687.19 96.7167 101.527
4690.09 91.6755 102.381
4692.99 100.566 107.753
4695.89 96.7559 101.05
4698.8 94.7383 104.242
4701.7 90.1189 98.6723
4704.6 97.3262 103.043
4707.5 91.2976 97.2605
4710.4 94.5845 97.1585
4713.31 94.1208 96.5751
4716.21 83.8222 94.5449
4719.11 94.9211 98.7756
4722.01 78.6629 91.4201
4724.91 82.7446 90.7877
4727.82 88.6821 92.6614
4730.72 84.8553 90.876
4733.62 81.9912 84.5732
4736.52 83.8633 89.2262
4739.42 79.3164 87.3966
4742.32 82.0584 87.0785
4745.22 84.4957 87.5104
4748.13 84.5135 90.156
4751.03 80.9417 83.4891
4753.93 81.3633 84.4881
4756.83 77.6397 82.7538
4759.73 77.3802 82.599
4762.63 79.6785 86.1887
4765.53 78.0074 80.9159
4768.43 80.1694 84.3423
4771.33 77.7438 82.8226
4774.23 79.714 84.099
4777.13 80.5829 82.7573
4780.04 69.779 78.9178
4782.94 75.4604 80.877
4785.84 67.2341 77.1142
4788.74 75.8303 82.3133
4791.64 76.8196 81.6064
4794.54 74.2407 77.3969
4797.44 72.7244 78.2536
4800.34 75.5909 78.6802
4803.24 70.6857 74.0595
4806.14 70.7729 78.9656
4809.04 72.767 76.1506
4811.94 71.5364 76.2685
4814.84 72.6601 78.728
4817.74 71.5132 75.4071
4820.64 70.891 75.0058
4823.54 75.1946 76.9986
4826.43 72.0127 78.4495
4829.33 66.865 70.4575
4832.23 67.9613 73.0465
4835.13 67.6593 74.1899
4838.03 64.3903 74.1083
4840.93 69.6686 72.8588
4843.83 80.0031 81.1242
4846.73 64.6137 73.8332
4849.63 75.4963 78.3809
4852.53 73.239 77.9665
4855.43 67.5316 74.5966
4858.32 68.6195 77.886
4861.22 64.9118 76.5298
4864.12 71.3552 77.7592
4867.02 72.7497 80.4379
4869.92 74.5275 79.4375
4872.82 73.9026 76.3612
4875.72 74.3689 78.7379
4878.61 72.3266 82.6692
4881.51 73.3709 83.2864
4884.41 67.1196 76.3432
4887.31 66.3249 73.4097
4890.21 74.8179 79.8784
4893.1 76.2674 82.9015
4896 75.7166 79.3329
4898.9 64.8172 76.5443
4901.8 70.4982 76.2455
4904.69 68.5524 73.5496
4907.59 64.9387 73.1242
4910.49 67.5658 72.916
4913.39 61.4034 66.776
4916.28 66.1111 71.4812
4919.18 68.2123 71.0005
4922.08 59.9737 66.2486
4924.98 58.0325 62.9469
4927.87 54.2334 58.5008
4930.77 61.1452 62.7326
4933.67 51.5771 57.6959
4936.56 63.9708 64.7102
4939.46 56.5607 58.4522
4942.36 51.6915 56.3168
4945.25 53.3751 54.4851
4948.15 52.3925 52.5684
4951.05 56.3692 57.4163
4953.94 51.8908 55.3215
4956.84 48.4197 51.3019
4959.74 51.9557 52.7724
4962.63 51.9399 53.6421
4965.53 53.7314 54.2026
4968.42 52.642 55.485
4971.32 55.3795 56.1519
4974.22 59.3003 59.6651
4977.11 51.0352 56.4499
4980.01 49.3888 54.1276
4982.9 54.2034 57.0227
4985.8 56.0026 56.6902
4988.69 57.6558 58.6186
4991.59 53.5044 55.8347
4994.49 54.7363 56.9233
4997.38 55.617 56.5231
5000.28 55.5133 57.1916
5003.17 55.7119 56.8464
5006.07 58.8595 62.2476
5008.96 57.145 58.4091
5011.86 60.9291 62.4656
5014.75 61.2257 63.3577
5017.65 62.9556 64.1697
5020.54 61.899 64.1956
5023.44 60.0308 62.1727
5026.33 63.9272 66.2337
5029.22 62.5 62.9713
5032.12 63.8013 65.0864
5035.01 61.8648 70.6319
5037.91 60.9259 66.7965
5040.8 65.5295 68.0704
5043.7 65.6779 68.3538
5046.59 66.5041 70.9269
5049.48 59.7864 67.9725
5052.38 68.3193 72.9686
5055.27 60.0619 64.1748
5058.16 67.8459 70.9682
5061.06 62.1959 64.8987
5063.95 67.4232 72.8973
5066.85 67.9351 73.2392
5069.74 65.5819 69.482
5072.63 60.3256 69.5132
5075.53 62.3219 70.7646
5078.42 63.7813 68.2296
5081.31 67.5649 72.4277
5084.21 59.883 69.9531
5087.1 58.7529 69.2583
5089.99 59.6384 69.7892
5092.88 68.8544 74.6311
5095.78 58.6164 67.8046
5098.67 62.3804 71.3112
5101.56 65.1256 71.9072
5104.45 68.3708 72.5433
5107.35 68.285 70.803
5110.24 65.5234 72.881
5113.13 63.7082 69.0709
5116.02 60.9704 73.417
5118.92 68.0917 75.1103
5121.81 67.8143 73.5676
5124.7 69.7487 77.9649
5127.59 70.2464 74.7123
5130.48 66.7607 74.8947
5133.38 65.5584 72.038
5136.27 68.6088 77.4679
5139.16 62.7665 77.9074
5142.05 63.1006 76.8043
5144.94 65.1942 72.1656
5147.83 66.2568 76.8687
5150.72 70.0263 76.0063
5153.62 70.9996 79.7685
5156.51 72.7403 77.7909
5159.4 77.9006 86.4968
5162.29 69.4903 81.6604
5165.18 74.1688 81.5559
5168.07 70.8439 77.0084
5170.96 72.9957 82.3
5173.85 68.1941 82.3596
5176.74 70.4444 80.5808
5179.63 72.5218 84.5288
5182.52 72.7797 79.5808
5185.41 75.3576 83.5287
5188.3 75.1309 86.0737
5191.19 79.187 87.1761
5194.08 75.3888 84.0546
5196.97 76.7451 84.8282
5199.86 75.7794 85.2934
5202.75 78.3628 88.2596
5205.64 77.8113 86.6953
5208.53 70.4671 85.0248
5211.42 71.4951 83.6524
5214.31 78.5614 86.1905
5217.2 78.441 86.7071
5220.09 74.3007 82.3084
5222.98 73.5476 82.9109
5225.87 78.0316 85.9809
5228.76 69.5843 82.6138
5231.65 77.8687 84.4222
5234.54 77.6701 85.0616
5237.42 78.2047 85.2959
5240.31 76.6727 85.7653
5243.2 70.6978 81.4745
5246.09 72.174 80.9811
5248.98 65.3197 80.9683
5251.87 65.4217 79.9344
5254.76 76.2239 84.4287
5257.64 77.3958 83.904
5260.53 74.7734 82.2534
5263.42 77.7731 87.2081
5266.31 79.1237 85.7432
5269.2 74.1052 80.5953
5272.08 75.3895 85.9976
5274.97 64.8167 78.4357
5277.86 71.5962 83.9667
5280.75 76.5055 84.6134
5283.63 70.7648 81.398
5286.52 75.9883 82.3188
5289.41 79.448 83.3482
5292.3 72.7437 80.3238
5295.18 67.707 81.1591
5298.07 76.3318 84.9516
5300.96 73.7923 81.9059
5303.84 68.8182 79.7743
5306.73 64.9492 76.4647
5309.62 66.512 80.8814
5312.5 72.1797 79.2866
5315.39 66.7504 75.4074
5318.28 66.6343 76.4955
5321.16 61.7334 73.5268
5324.05 59.9035 68.7254
5326.94 62.1519 67.6416
5329.82 60.5022 67.7201
5332.71 62.6276 69.1146
5335.59 57.1244 67.3418
5338.48 54.2881 63.7558
5341.37 57.0727 63.618
5344.25 52.5818 60.9428
5347.14 55.3931 61.4846
5350.02 57.1199 63.1818
5352.91 58.3727 65.4809
5355.79 54.3303 60.9119
5358.68 56.3229 61.6726
5361.56 48.1233 58.6791
5364.45 52.4543 56.0511
5367.33 45.8087 56.4114
5370.22 44.9566 55.4078
5373.1 48.1006 59.5365
5375.99 50.2221 59.0555
5378.87 52.3675 57.269
5381.76 55.2755 60.2676
5384.64 56.4967 59.854
5387.53 55.1466 58.3677
5390.41 54.099 57.4601
5393.29 56.44 57.9865
5396.18 52.5535 57.5432
5399.06 43.4619 53.6206
5401.95 55.7691 59.0449
5404.83 53.1527 59.3957
5407.71 55.4734 62.7261
5410.6 48.0539 55.2171
5413.48 53.2997 56.4908
5416.36 53.7596 55.1355
5419.25 54.718 55.1417
5422.13 50.3961 54.334
5425.01 54.1483 57.4055
5427.9 57.4288 60.6635
5430.78 57.9713 59.9211
5433.66 52.562 54.7885
5436.55 53.432 58.2585
5439.43 55.7095 59.2659
5442.31 56.0927 58.3872
5445.19 59.4512 60.6163
5448.08 56.9635 63.1842
5450.96 58.7824 60.9039
5453.84 56.7144 58.0916
5456.72 59.2268 60.2867
5459.6 55.1098 57.7184
5462.49 62.456 63.1962
5465.37 58.8134 61.5489
5468.25 54.5729 59.7853
5471.13 56.5793 62.4878
5474.01 60.019 61.4492
5476.9 50.7463 58.5785
5479.78 59.8246 58.5944
5482.66 58.9165 62.5928
5485.54 60.6215 63.1096
5488.42 56.9073 59.6514
5491.3 58.3866 61.2886
5494.18 54.8031 54.5975
5497.06 61.6588 63.4917
5499.94 54.2582 55.686
5502.82 49.0379 53.5421
5505.71 46.5879 54.0738
5508.59 56.921 55.7406
5511.47 50.193 52.4353
5514.35 52.9594 53.1136
5517.23 56.6675 57.9263
5520.11 55.5342 54.9546
5522.99 43.4089 49.4585
5525.87 45.8651 52.4869
5528.75 50.6846 49.2173
5531.63 49.7546 52.4881
5534.51 54.5192 54.2494
5537.39 56.2119 57.057
5540.26 50.5983 51.692
5543.14 48.9625 48.2771
5546.02 50.82 49.5208
5548.9 49.6282 49.7372
5551.78 47.9366 50.3699
5554.66 44.7081 49.2947
5557.54 49.8668 50.3691
5560.42 47.8858 49.7181
5563.3 49.5616 52.8716
5566.18 48.1622 53.8567
5569.05 53.1595 51.2188
5571.93 54.7067 50.2326
5574.81 58.0242 52.0292
5577.69 55.0359 46.8577
5580.57 51.5458 52.2336
5583.44 51.8159 51.9883
5586.32 51.4264 53.4739
5589.2 54.3938 58.848
5592.08 53.397 54.6247
5594.96 49.691 55.1041
5597.83 53.8757 56.3882
5600.71 52.6548 53.5683
5603.59 54.9308 63.3889
5606.47 58.8603 60.7058
5609.34 52.8688 57.0903
5612.22 58.4569 60.6095
5615.1 58.0554 59.5479
5617.97 60.259 64.0093
5620.85 59.3444 61.8705
5623.73 56.0177 63.1575
5626.6 60.8038 63.8257
5629.48 65.1736 66.1176
5632.36 57.4334 61.0695
5635.23 63.6606 65.7217
5638.11 62.5629 67.2468
5640.98 53.6836 62.5593
5643.86 59.3938 61.7353
5646.74 59.5707 66.9066
5649.61 59.6114 61.3636
5652.49 63.1832 65.3933
5655.36 55.5558 66.0012
5658.24 62.4693 62.3379
5661.11 60.7801 67.1836
5663.99 63.0981 65.9457
5666.86 55.4608 65.409
5669.74 57.2359 63.1797
5672.61 60.3333 62.9041
5675.49 55.8132 62.3163
5678.36 61.4684 65.802
5681.24 61.8702 64.4942
5684.11 62.7375 65.1587
5686.99 65.0135 69.7134
5689.86 66.5578 71.9794
5692.73 54.7108 63.6193
5695.61 63.1746 67.0345
5698.48 65.4543 66.3103
5701.36 55.1992 63.6264
5704.23 61.5699 65.0465
5707.1 63.9927 65.2404
5709.98 64.2466 67.7481
5712.85 65.5589 68.2347
5715.72 61.3655 66.1941
5718.6 65.9384 67.9074
5721.47 62.1525 65.0978
5724.34 62.1678 65.8138
5727.22 63.6109 67.8039
5730.09 62.073 67.2683
5732.96 65.2066 68.0931
5735.83 56.0683 67.9101
5738.71 61.9921 63.5167
5741.58 60.0993 62.1691
5744.45 64.722 65.3595
5747.32 63.3576 65.01
5750.2 62.9611 66.4304
5753.07 59.7396 69.2543
5755.94 62.9931 66.1453
5758.81 57.8521 63.6051
5761.68 62.9384 65.3958
5764.56 67.7174 69.9997
5767.43 65.5208 67.8461
5770.3 58.3671 65.5903
5773.17 65.096 67.6618
5776.04 58.1939 66.3932
5778.91 64.2802 69.0673
5781.78 64.5911 68.7746
5784.65 64.6866 66.7012
5787.52 63.3254 65.142
5790.39 64.1003 65.575
5793.27 55.4943 61.166
5796.14 64.2459 67.4994
5799.01 63.6241 66.2147
5801.88 61.404 66.1739
5804.75 62.3873 64.6108
5807.62 63.1743 65.2981
5810.49 58.3029 64.3606
5813.36 58.5117 60.2382
5816.23 59.957 62.557
5819.1 51.3237 58.3006
5821.96 60.3299 64.1604
5824.83 60.5482 62.4387
5827.7 59.5397 61.1547
5830.57 62.2443 63.9215
5833.44 58.6816 58.9521
5836.31 59.0231 58.7182
5839.18 55.308 59.8995
5842.05 58.8334 58.3938
5844.92 48.0538 55.4287
5847.78 54.3336 60.3174
5850.65 58.865 59.6633
5853.52 54.4984 60.7367
5856.39 53.3616 53.7975
5859.26 54.6792 54.8722
5862.12 55.0269 55.3391
5864.99 56.5011 58.1015
5867.86 48.0383 57.5789
5870.73 55.348 56.4171
5873.6 58.7007 61.5417
5876.46 55.3231 64.1752
5879.33 56.7886 60.2315
5882.2 64.4013 65.4549
5885.06 49.8461 59.1179
5887.93 52.4728 54.1232
5890.8 55.0521 57.1878
5893.66 52.5394 53.9011
5896.53 54.4416 55.3046
5899.4 60.036 60.3601
5902.26 55.563 58.6409
5905.13 57.4269 56.9402
5908 53.4439 56.9582
5910.86 55.9714 57.4256
5913.73 54.9494 55.2382
5916.59 59.7653 61.936
5919.46 49.5979 56.0264
5922.32 61.5755 63.4969
5925.19 50.5641 60.9831
5928.06 52.621 55.1748
5930.92 54.8161 61.9798
5933.79 50.4871 60.318
5936.65 59.8076 58.4202
5939.52 58.5629 60.8821
5942.38 58.9306 59.2047
5945.25 60.5745 64.3471
5948.11 57.621 58.6397
5950.97 62.0714 63.9422
5953.84 58.6329 66.3563
5956.7 57.986 61.3665
5959.57 57.8856 60.8281
5962.43 57.9176 62.597
5965.29 56.2039 59.6798
5968.16 64.2188 65.7052
5971.02 57.7642 60.6844
5973.89 56.1975 64.1978
5976.75 55.5804 57.3982
5979.61 58.8507 60.9709
5982.47 56.3218 59.1441
5985.34 59.3865 60.8421
5988.2 58.9174 60.9356
5991.06 53.5751 62.1031
5993.93 61.721 61.1569
5996.79 62.5434 61.7318
5999.65 62.2834 63.2942
6002.51 60.315 61.0167
6005.38 61.3865 63.4979
6008.24 61.3036 61.9092
6011.1 61.6137 64.3475
6013.96 58.2736 61.4218
6016.82 62.4442 67.0555
6019.68 54.4667 61.4513
6022.55 60.7879 63.2559
6025.41 60.4018 61.8574
6028.27 62.568 64.2739
6031.13 61.1725 62.0854
6033.99 60.3162 65.6777
6036.85 58.9241 60.3846
6039.71 57.0281 60.2479
6042.57 57.2404 59.0731
6045.43 57.9945 62.2183
6048.29 54.519 57.7754
6051.15 61.6248 63.1743
6054.01 57.8707 61.8148
6056.87 53.6325 58.2632
6059.73 59.6946 58.3063
6062.59 56.6179 57.4531
6065.45 61.8239 60.3386
6068.31 57.4371 58.244
6071.17 49.8875 57.1359
6074.03 58.4047 58.116
6076.89 58.0403 60.2942
6079.75 56.9839 54.7992
6082.61 56.8782 57.6048
6085.47 56.096 54.753
6088.33 52.4455 52.9934
6091.19 45.6379 52.0446
6094.04 54.2447 55.5683
6096.9 53.6174 54.5235
6099.76 48.2222 53.0658
6102.62 45.864 48.5265
6105.48 46.7636 44.0728
6108.34 51.8422 50.4384
6111.19 41.8175 45.9314
6114.05 43.7725 43.8925
6116.91 42.8996 44.3531
6119.77 45.4415 43.5057
6122.62 46.441 46.0566
6125.48 41.6033 42.8532
6128.34 38.3573 37.2873
6131.19 43.3485 40.3394
6134.05 43.2057 39.2777
6136.91 40.92 39.0769
6139.76 43.2154 37.6144
6142.62 37.8766 36.5278
6145.48 37.8888 33.1021
6148.33 34.5127 34.1258
6151.19 41.0604 39.0913
6154.04 37.6987 35.4938
6156.9 33.2193 35.6046
6159.76 31.7514 33.6608
6162.61 35.5132 33.7128
6165.47 33.9913 30.0974
6168.32 30.73 31.9803
6171.18 25.3878 27.3099
6174.03 30.6716 31.2873
6176.89 32.6064 29.5687
6179.74 30.0788 28.0032
6182.6 33.8536 29.2222
6185.45 32.9972 28.5763
6188.31 28.7876 27.4361
6191.16 33.6574 25.6056
6194.01 32.0555 25.6948
6196.87 33.0626 29.6859
6199.72 32.6108 28.4406
6202.58 30.7604 29.3593
6205.43 24.4815 28.468
6208.28 27.1524 26.138
6211.14 27.8991 21.3893
6213.99 26.284 26.333
6216.84 30.2607 25.2827
6219.69 30.5867 26.247
6222.55 27.5489 25.0997
6225.4 29.2724 25.6227
6228.25 30.48 25.5075
6231.11 29.6289 25.0006
6233.96 28.6525 24.1374
6236.81 33.6182 28.3827
6239.66 24.6312 25.2713
6242.51 27.819 31.4345
6245.37 23.9819 27.7338
6248.22 31.0021 26.6836
6251.07 32.4539 30.1695
6253.92 29.9679 28.2739
6256.77 34.818 29.042
6259.62 22.1472 25.9476
6262.47 31.7546 26.669
6265.32 30.8435 31.6335
6268.18 33.2268 29.687
6271.03 28.4091 29.7242
6273.88 31.1077 27.3286
6276.73 34.3857 29.4692
6279.58 33.4266 30.5111
6282.43 32.6003 30.9452
6285.28 37.1555 34.2166
6288.13 32.392 30.6314
6290.98 33.2346 34.3082
6293.83 41.5314 33.5712
6296.68 38.0315 23.6449
6299.53 44.6398 25.834
6302.37 11.9594 34.494
6305.22 29.4253 25.5744
6308.07 27.5049 43.6709
6310.92 45.6139 47.3535
6313.77 29.352 40.9389
6316.62 38.2958 41.2777
6319.47 38.5727 47.5997
6322.32 44.0572 42.2262
6325.16 43.4633 40.0494
6328.01 42.5498 41.0432
6330.86 43.9217 42.9515
6333.71 46.3906 43.8401
6336.55 46.151 43.6897
6339.4 48.5872 47.1819
6342.25 47.8175 46.5901
6345.1 45.3425 43.178
6347.94 44.9211 45.0998
6350.79 47.7355 46.6565
6353.64 49.6646 50.1
6356.48 55.6716 52.9679
6359.33 51.5001 47.296
6362.18 53.6666 44.5854
6365.02 51.6143 45.2074
6367.87 51.2322 46.5184
6370.72 45.5858 44.9771
6373.56 57.1832 56.1364
6376.41 54.5919 57.8362
6379.25 55.4667 56.5664
6382.1 52.5996 53.1716
6384.94 53.392 54.1838
6387.79 46.3817 46.6236
6390.63 50.23 52.8707
6393.48 50.8847 51.7543
6396.32 52.585 54.6329
6399.17 50.5698 52.7985
6402.01 54.893 57.0895
6404.86 54.1099 57.1629
6407.7 54.0249 57.3283
6410.54 55.009 56.8419
6413.39 50.6764 56.0978
6416.23 52.1101 56.7611
6419.08 55.9906 57.9299
6421.92 54.7836 57.913
6424.76 57.7357 57.5141
6427.61 57.0109 60.2902
6430.45 54.0337 60.7281
6433.29 55.0932 54.368
6436.13 60.44 61.9012
6438.98 50.5335 55.7465
6441.82 52.6575 54.2589
6444.66 57.0986 58.3309
6447.5 57.2541 59.1256
6450.35 56.7152 56.3387
6453.19 53.9291 58.3987
6456.03 58.6277 58.2064
6458.87 55.83 55.5594
6461.71 56.9371 59.5952
6464.55 55.4282 57.9383
6467.4 49.5636 54.7796
6470.24 54.9824 55.7155
6473.08 58.6131 55.1479
6475.92 55.6403 54.4461
6478.76 53.0391 58.5661
6481.6 55.3462 54.9149
6484.44 58.0085 59.8444
6487.28 53.3156 55.4964
6490.12 48.9369 55.5915
6492.96 60.5194 59.4311
6495.8 58.4018 56.6421
6498.64 52.4259 60.0685
6501.48 53.6919 60.569
6504.32 57.8234 60.3355
6507.16 54.5106 56.8915
6510 51.8826 53.4134
6512.84 53.9243 59.951
6515.67 49.4764 55.3931
6518.51 56.7975 56.4204
6521.35 53.3797 56.8921
6524.19 56.0793 56.7544
6527.03 55.7268 54.9543
6529.87 57.2012 57.8908
6532.7 54.4779 55.2384
6535.54 53.6518 55.0346
6538.38 50.2131 57.8944
6541.22 58.2053 58.5521
6544.05 45.1766 53.2704
6546.89 54.8339 56.6479
6549.73 51.4863 55.5078
6552.57 52.9363 57.205
6555.4 49.4513 51.0902
6558.24 50.0818 52.9432
6561.08 49.4119 52.4721
6563.91 51.6712 50.6296
6566.75 45.806 52.0477
6569.58 56.0117 54.8936
6572.42 50.3444 49.3262
6575.26 54.8808 56.0092
6578.09 49.0496 54.7582
6580.93 49.9071 53.3324
6583.76 52.0065 53.4853
6586.6 51.2822 53.8345
6589.43 52.4958 53.6262
6592.27 52.7698 51.4986
6595.1 54.0378 54.0813
6597.94 51.1909 52.9211
6600.77 44.5816 52.2458
6603.61 51.8583 51.6846
6606.44 50.1974 51.1884
6609.27 49.1238 51.4417
6612.11 53.3653 53.4516
6614.94 49.8058 52.9068
6617.77 46.5959 48.9051
6620.61 53.4789 53.1411
6623.44 50.9563 53.6337
6626.27 49.5584 50.3489
6629.11 47.0487 50.6762
6631.94 49.4815 53.0823
6634.77 46.332 53.6723
6637.6 49.307 52.1167
6640.44 52.6225 53.7065
6643.27 52.2635 51.9323
6646.1 46.9687 46.9704
6648.93 50.4638 50.7561
6651.76 48.9882 50.6596
6654.6 47.8093 49.2331
6657.43 53.0987 54.9863
6660.26 54.7553 55.3001
6663.09 51.5536 49.9879
6665.92 45.933 47.2284
6668.75 51.3514 53.5716
6671.58 50.9421 54.2521
6674.41 46.1342 47.4909
6677.24 49.9459 51.8332
6680.07 46.0515 50.023
6682.9 48.9986 49.3065
6685.73 51.1144 50.3189
6688.56 46.2322 48.1649
6691.39 49.7657 49.1949
6694.22 47.9088 48.7227
6697.05 51.348 52.1276
6699.88 45.6007 48.4227
6702.71 43.6787 52.2021
6705.54 46.2513 49.4821
6708.37 44.9347 51.1268
6711.2 45.6539 47.9841
6714.02 45.5552 49.1915
6716.85 48.2315 50.2718
6719.68 47.4589 49.9842
6722.51 44.5047 50.4067
6725.34 44.2138 48.6454
6728.16 47.7818 50.0783
6730.99 46.3153 50.4483
6733.82 49.4533 52.4938
6736.64 51.5957 52.684
6739.47 49.1907 50.8643
6742.3 47.6694 48.676
6745.12 47.9444 49.6592
6747.95 48.9107 49.7609
6750.78 47.8181 49.6165
6753.6 50.4121 51.4911
6756.43 47.6508 48.4666
6759.26 51.0402 52.8284
6762.08 49.9246 50.1964
6764.91 48.4905 49.7894
6767.73 48.0784 50.6857
6770.56 48.5243 47.8531
6773.38 46.0917 48.1854
6776.21 42.314 48.2903
6779.03 41.732 44.1672
6781.86 45.2618 49.0459
6784.68 45.9884 50.2525
6787.5 46.7072 48.8554
6790.33 44.1426 45.4184
6793.15 41.2607 48.6163
6795.98 44.4951 46.058
6798.8 42.7726 46.2521
6801.62 45.5134 46.6398
6804.45 41.954 43.464
6807.27 40.4422 43.7733
6810.09 43.1574 45.3109
6812.92 40.2503 43.462
6815.74 41.8729 45.2311
6818.56 47.2881 48.2394
6821.38 41.9438 44.4559
6824.21 46.2268 47.4266
6827.03 39.0904 39.2428
6829.85 44.2564 44.4753
6832.67 43.663 42.5242
6835.49 37.5285 44.5534
6838.31 35.5463 41.431
6841.13 41.9496 42.933
6843.96 43.6672 44.4822
6846.78 33.2477 41.7457
6849.6 43.1289 41.7704
6852.42 43.6885 43.8784
6855.24 43.7782 43.1869
6858.06 41.8997 40.5177
6860.88 29.3453 39.0887
6863.7 43.019 43.8628
6866.52 35.0943 32.8419
6869.34 29.1629 32.9504
6872.16 31.7335 32.6998
6874.98 34.4453 35.2264
6877.79 37.6746 39.527
6880.61 38.64 37.3061
6883.43 39.3672 37.9971
6886.25 37.9275 38.1589
6889.07 36.6742 37.2479
6891.89 35.4546 37.9964
6894.71 33.1094 38.5061
6897.52 39.6847 40.5635
6900.34 35.8309 39.5456
6903.16 37.592 37.8188
6905.98 40.0267 41.1319
6908.79 35.698 35.8746
6911.61 39.6046 41.7879
6914.43 40.3093 41.7689
6917.24 39.3087 40.2951
6920.06 35.9576 38.993
6922.88 38.8004 37.498
6925.69 37.4289 36.7095
6928.51 36.8115 39.7535
6931.32 39.8319 39.1872
6934.14 39.0367 41.1403
6936.96 34.6349 40.7834
6939.77 43.6975 40.7442
6942.59 35.3402 37.0417
6945.4 37.5418 37.0872
6948.22 40.3098 42.2038
6951.03 39.1064 36.2469
6953.85 41.071 40.8957
6956.66 40.1231 42.0901
6959.47 46.5674 44.9725
6962.29 41.2689 41.0612
6965.1 38.8946 40.1635
6967.92 34.7967 41.2082
6970.73 38.8753 38.6957
6973.54 38.2363 39.7054
6976.36 37.8162 36.9783
6979.17 34.0147 38.6524
6981.98 42.2499 41.6991
6984.79 41.0626 40.0893
6987.61 35.5511 37.6701
6990.42 42.5659 38.6501
6993.23 37.0658 39.7365
6996.04 44.6517 42.403
6998.85 31.62 34.4417
7001.67 40.6226 36.2714
7004.48 40.5205 40.5989
7007.29 43.127 42.7929
7010.1 40.8433 37.7706
7012.91 38.7534 39.4723
7015.72 35.8201 39.1869
7018.53 37.5027 36.2952
7021.34 34.4181 36.9537
7024.15 37.7007 36.931
7026.96 40.5539 38.9298
7029.77 39.7004 38.7237
7032.58 42.2094 42.547
7035.39 41.5914 41.0512
7038.2 37.9396 36.5834
7041.01 41.0707 38.1443
7043.82 41.1911 39.9124
7046.63 37.8481 35.6685
7049.44 39.9209 38.6239
7052.24 44.1618 42.931
7055.05 34.6303 38.9864
7057.86 42.4665 35.5218
7060.67 43.3016 41.3314
7063.48 41.9174 42.138
7066.28 39.2195 39.6645
7069.09 42.1796 40.6215
7071.9 36.2909 37.4319
7074.71 32.4285 37.9752
7077.51 41.7549 38.417
7080.32 40.8595 39.0939
7083.13 40.6892 40.0292
7085.93 33.5372 36.7036
7088.74 38.2572 37.4385
7091.54 36.5244 40.1388
7094.35 41.2942 38.0448
7097.16 41.9198 39.0368
7099.96 42.7226 40.2807
7102.77 37.3003 35.7218
7105.57 36.6543 36.3045
7108.38 41.0461 37.8812
7111.18 39.9734 38.3916
7113.99 39.9937 39.7374
7116.79 35.0294 39.1479
7119.59 39.4683 37.3989
7122.4 38.1249 35.2942
7125.2 37.561 37.4024
7128.01 33.0474 33.8164
7130.81 39.9776 40.0707
7133.61 39.4979 41.3516
7136.42 42.1065 38.011
7139.22 38.0203 40.1957
7142.02 39.5183 38.0073
7144.82 42.0781 40.2092
7147.63 37.1426 36.2516
7150.43 37.6017 35.6954
7153.23 37.9985 37.0575
7156.03 37.7355 38.2233
7158.83 36.6633 35.2582
7161.64 38.025 38.5523
7164.44 41.815 37.8063
7167.24 31.8021 36.9756
7170.04 40.744 39.6336
7172.84 32.7906 38.7197
7175.64 31.935 33.0602
7178.44 35.1346 34.8166
7181.24 39.9527 36.5835
7184.04 36.0183 35.6732
7186.84 34.7364 34.9295
7189.64 35.3408 34.7031
7192.44 35.9922 33.5278
7195.24 38.0913 37.1513
7198.04 35.4048 33.6135
7200.84 39.3528 35.5478
7203.64 32.5459 33.9508
7206.43 39.8667 38.7595
7209.23 37.9452 36.8204
7212.03 35.5442 33.3754
7214.83 35.8884 36.5183
7217.63 36.4316 36.6333
7220.42 37.3936 34.1088
7223.22 38.7853 36.9331
7226.02 38.756 36.623
7228.82 37.4183 35.346
7231.61 37.3773 35.345
7234.41 36.7331 33.6885
7237.21 32.2162 31.422
7240 39.1034 33.796
7242.8 22.0468 38.917
7245.59 23.1857 35.9621
7248.39 34.8876 32.0987
7251.19 30.1871 35.597
7253.98 37.5094 36.8736
7256.78 32.5688 30.1472
7259.57 33.7115 31.5011
7262.37 35.018 31.462
7265.16 35.1138 34.237
7267.95 35.4038 32.4269
7270.75 39.8838 35.8621
7273.54 19.5752 31.7604
7276.34 43.676 36.5704
7279.13 34.2042 32.4994
7281.92 36.8394 37.5943
7284.72 33.0838 30.6748
7287.51 28.7748 33.075
7290.3 37.3038 36.0496
7293.1 32.3016 32.6421
7295.89 36.0327 34.6868
7298.68 26.7632 28.7901
7301.47 34.2456 31.1449
7304.26 34.4714 29.9396
7307.06 35.8461 34.3584
7309.85 35.7507 32.5831
7312.64 24.142 30.7062
7315.43 38.8943 34.0498
7318.22 39.8985 35.9556
7321.01 33.589 31.6524
7323.8 34.8275 33.7858
7326.59 34.8623 30.4183
7329.38 37.1419 34.485
7332.17 34.23 31.0082
7334.96 37.8044 34.6502
7337.75 31.4664 25.1888
7340.54 40.0245 34.0853
7343.33 30.593 35.5483
7346.12 26.7262 35.2619
7348.91 32.0374 35.7192
7351.7 31.7584 33.0323
7354.49 26.8831 35.0935
7357.27 29.6716 32.349
7360.06 31.7257 33.5431
7362.85 39.4526 34.1829
7365.64 38.9785 33.4961
7368.43 37.2387 34.7208
7371.21 20.0442 31.2657
7374 30.4325 33.0824
7376.79 30.7431 33.4235
7379.57 34.0212 34.8634
7382.36 33.3609 31.5207
7385.15 33.0285 28.6281
7387.93 34.8164 32.3325
7390.72 30.3143 27.7099
7393.5 28.9225 30.8961
7396.29 38.72 32.886
7399.07 30.9499 33.8998
7401.86 21.7762 34.8155
7404.64 21.6518 29.6328
7407.43 34.7298 32.3789
7410.21 31.9776 32.3626
7413 30.8286 27.6353
7415.78 31.0832 27.2729
7418.57 32.5692 31.875
7421.35 29.0406 27.5455
7424.13 32.2943 31.1835
7426.92 28.2708 31.2628
7429.7 28.929 33.3778
7432.48 30.7922 29.9694
7435.26 33.8749 32.5883
7438.05 30.7811 33.4467
7440.83 33.8551 32.679
7443.61 32.5952 33.4197
7446.39 35.1126 33.0772
7449.18 31.3156 26.1246
7451.96 28.1305 30.2417
7454.74 28.7757 30.921
7457.52 25.6572 30.9316
7460.3 33.0542 32.6297
7463.08 32.407 28.9865
7465.86 33.383 30.438
7468.64 24.3554 27.9742
7471.42 32.9959 33.9785
7474.2 25.4976 33.1871
7476.98 33.8603 32.6083
7479.76 28.9034 28.1366
7482.54 26.2634 35.266
7485.32 33.4484 32.5789
7488.1 34.5002 30.8278
7490.88 30.0292 30.701
7493.65 24.3594 29.4738
7496.43 26.4679 25.2084
7499.21 28.2715 27.6259
7501.99 33.6989 32.7664
7504.77 27.5731 29.1218
7507.54 30.2929 29.8137
7510.32 29.4614 26.1988
7513.1 26.3823 27.7939
7515.88 23.7744 24.7569
7518.65 22.6718 31.0861
7521.43 21.2636 28.2291
7524.2 29.1711 30.0623
7526.98 18.0411 27.6742
7529.76 31.9703 30.0131
7532.53 25.9773 26.9131
7535.31 21.8423 24.6268
7538.08 29.5852 26.2807
7540.86 24.4924 22.4778
7543.63 22.6958 24.5857
7546.41 27.9809 27.5666
7549.18 26.9682 23.628
7551.95 22.6217 27.2911
7554.73 27.0185 24.9463
7557.5 24.0365 21.5258
7560.28 27.4792 25.6488
7563.05 27.1195 20.9942
7565.82 30.5014 25.9229
7568.6 28.0005 21.0434
7571.37 25.8672 22.8238
7574.14 27.8873 24.5848
7576.91 17.0156 25.0411
7579.68 22.4848 21.3382
7582.46 22.6993 24.5654
7585.23 23.2271 22.6023
7588 21.1098 21.4408
7590.77 20.0715 18.5445
7593.54 17.7853 18.5602
7596.31 14.7073 15.4276
7599.08 8.80648 10.8004
7601.85 8.42432 7.72871
7604.62 8.25313 7.86671
7607.39 5.55795 5.7603
7610.16 9.54442 8.86142
7612.93 14.8644 13.0998
7615.7 16.5764 14.538
7618.47 15.8625 13.8381
7621.24 15.3019 15.0276
7624.01 11.2011 15.1076
7626.78 13.9366 13.0036
7629.54 7.97859 11.8283
7632.31 7.77024 11.0673
7635.08 12.8395 11.4276
7637.85 14.3708 14.1124
7640.62 16.7966 15.8512
7643.38 15.1673 13.2905
7646.15 17.0563 16.5731
7648.92 15.6029 15.1302
7651.68 17.1632 14.8731
7654.45 19.5979 18.2177
7657.21 23.2369 20.4639
7659.98 21.7127 19.6699
7662.75 22.6416 20.8258
7665.51 27.3642 23.4301
7668.28 24.7854 21.3421
7671.04 21.87 21.6007
7673.81 25.3114 23.1496
7676.57 24.2846 24.6428
7679.34 24.2458 20.3136
7682.1 26.3295 22.2878
7684.86 31.8377 24.4884
7687.63 25.3456 19.9878
7690.39 19.7657 23.2863
7693.15 26.7207 22.8979
7695.92 27.092 23.6134
7698.68 22.3818 23.785
7701.44 30.951 24.0741
7704.2 32.6687 23.0697
7706.97 38.9245 21.5711
7709.73 22.1294 20.7522
7712.49 28.0622 22.1896
7715.25 35.247 28.4477
7718.01 34.3525 32.0127
7720.77 10.0488 29.4564
7723.54 23.6055 26.4369
7726.3 22.9761 25.3679
7729.06 25.0704 29.9199
7731.82 25.7862 23.9834
7734.58 29.2056 22.5325
7737.34 24.5844 22.2949
7740.1 29.6334 23.3096
7742.85 24.4856 21.5851
7745.61 28.3371 24.6957
7748.37 31.6121 23.9114
7751.13 29.9914 22.6325
7753.89 32.068 31.4388
7756.65 25.5039 27.1672
7759.41 28.2409 31.2468
7762.16 26.1251 28.3334
7764.92 30.9818 31.4012
7767.68 31.0049 30.5531
7770.44 28.6803 26.7123
7773.19 32.537 25.0449
7775.95 31.139 24.4633
7778.7 36.8018 29.9401
7781.46 30.4829 25.6059
7784.22 23.3283 23.4426
7786.97 32.1817 23.3936
7789.73 29.3001 22.4487
7792.48 29.1868 23.8743
7795.24 16.9465 26.938
7797.99 33.8235 33.5279
7800.75 28.3866 23.8775
7803.5 32.4464 29.4066
7806.26 33.1517 26.79
7809.01 34.2223 27.249
7811.76 32.3821 27.7498
7814.52 31.3366 23.5762
7817.27 32.3996 23.517
7820.02 9.74121 18.0682
7822.78 32.3014 26.0585
7825.53 33.115 37.6123
7828.28 29.9383 28.8549
7831.03 21.4989 28.1994
7833.78 25.5358 26.7178
7836.54 32.1766 22.6435
7839.29 27.8424 28.8194
7842.04 34.5509 27.3246
7844.79 24.0336 23.2699
7847.54 15.2167 18.0445
7850.29 38.5798 25.1521
7853.04 7.95861 28.9054
7855.79 6.45462 24.628
7858.54 26.9176 27.7558
7861.29 31.6264 31.91
7864.04 25.0741 26.7265
7866.79 18.0132 30.335
7869.54 35.5013 29.6166
7872.29 22.748 25.1698
7875.04 30.8171 30.8599
7877.78 32.0899 28.7123
7880.53 30.8231 28.3102
7883.28 32.7373 24.999
7886.03 35.3571 30.1101
7888.77 19.8589 28.5831
7891.52 23.3365 23.6428
7894.27 18.4514 23.4561
7897.01 20.0518 25.1326
7899.76 31.3177 30.1048
7902.51 36.4308 31.1891
7905.25 26.8236 20.7394
7908 21.8867 24.8
7910.74 34.9399 19.7851
7913.49 41.305 21.9819
7916.23 30.6769 23.7472
7918.98 27.0324 29.3031
7921.72 40.0258 33.4615
7924.47 32.359 31.9297
7927.21 28.6572 25.6424
7929.95 33.998 31.227
7932.7 28.5646 30.3054
7935.44 25.2542 25.0882
7938.18 22.7999 28.9142
7940.93 18.3526 21.8629
7943.67 33.732 27.9581
7946.41 28.2465 21.6495
7949.15 29.9575 26.9877
7951.9 33.8263 28.9404
7954.64 34.5084 26.7593
7957.38 30.2778 25.3614
7960.12 38.6888 30.0165
7962.86 13.0099 20.7103
7965.6 39.3479 27.2502
7968.34 32.7685 30.943
7971.08 31.1267 29.5954
7973.82 27.9325 24.1772
7976.56 25.7483 21.3504
7979.3 24.1554 26.2718
7982.04 29.6932 24.9575
7984.78 26.6057 19.5359
7987.52 31.6801 20.2357
7990.26 38.1398 20.0838
7992.99 33.9964 20.305
7995.73 25.924 31.9144
7998.47 35.4322 32.9302
8001.21 31.1678 29.9599
8003.95 21.9834 28.2202
8006.68 30.3433 23.6677
8009.42 25.7114 18.6981
8012.16 32.9107 20.6836
8014.89 27.2646 24.0262
8017.63 24.9191 26.6765
8020.36 32.9426 23.3049
8023.1 31.6954 19.2317
8025.83 26.4239 22.7916
8028.57 30.2356 25.9837
8031.3 29.2696 28.654
8034.04 25.9905 22.2149
8036.77 30.5926 24.1503
8039.51 26.8174 23.3521
8042.24 30.7604 25.349
8044.98 28.9038 20.8225
8047.71 25.2272 21.9676
8050.44 28.151 21.5666
8053.18 20.1782 23.0143
8055.91 29.8209 26.7835
8058.64 26.7266 22.782
8061.37 19.4513 24.8438
8064.1 21.7132 19.9812
8066.84 31.9649 24.4348
8069.57 31.0933 24.8648
8072.3 22.2671 21.9923
8075.03 29.6636 24.0577
8077.76 25.0374 21.4674
8080.49 33.4626 23.4641
8083.22 27.5546 18.976
8085.95 24.4742 21.1607
8088.68 20.1466 22.2646
8091.41 30.2683 24.1712
8094.14 21.0098 18.5312
8096.87 27.7843 18.7654
8099.6 27.6736 18.1626
8102.33 26.5763 20.4553
8105.05 24.0676 23.3751
8107.78 22.2993 19.1915
8110.51 24.4143 18.4477
8113.24 27.3333 20.7199
8115.96 25.7515 20.4096
8118.69 29.0303 24.1174
8121.42 28.1019 18.6247
8124.14 22.9803 18.0158
8126.87 27.2168 21.0407
8129.6 25.5916 19.6799
8132.32 25.1288 17.6861
8135.05 25.2422 20.6073
8137.77 27.6877 18.2995
8140.5 24.3141 19.7418
8143.22 21.2045 13.8153
8145.95 28.4253 23.5553
8148.67 20.1937 18.5135
8151.4 27.2298 15.5743
8154.12 21.8365 19.6696
8156.84 25.5907 20.3711
8159.57 22.935 17.742
8162.29 26.1864 15.4764
8165.01 25.4591 17.5182
8167.73 24.2705 19.036
8170.46 28.497 20.7962
8173.18 26.1597 20.544
8175.9 24.2018 20.3637
8178.62 22.7051 16.2118
8181.34 22.0501 17.3827
8184.06 24.0856 16.8821
8186.78 24.0142 15.8834
8189.51 22.9183 17.4537
8192.23 23.6001 18.8131
8194.95 27.9417 23.2298
8197.67 21.7384 15.1977
8200.38 21.6128 19.9372
8203.1 21.4184 20.4899
8205.82 20.8392 20.7334
8208.54 23.808 18.7749
8211.26 23.9832 18.6854
8213.98 23.9711 19.1311
8216.7 21.9421 16.7105
8219.41 25.9867 18.7018
8222.13 28.6891 18.9828
8224.85 24.6126 19.9142
8227.56 19.6959 18.6299
8230.28 19.5509 17.2444
8233 19.8689 16.6039
8235.71 27.2033 17.1015
8238.43 25.3611 20.5273
8241.14 22.4924 17.9304
8243.86 20.2592 16.9322
8246.58 25.8013 19.4735
8249.29 28.199 18.1809
8252 30.0717 21.0928
8254.72 25.448 19.6519
8257.43 22.032 17.3499
8260.15 25.3685 18.9804
8262.86 24.1597 20.1478
8265.57 23.0202 17.4499
8268.29 23.5065 16.7177
8271 24.7559 15.9365
8273.71 21.5366 16.8157
8276.42 11.5643 13.9735
8279.14 19.4798 14.2507
8281.85 28.7023 21.8632
8284.56 21.575 16.8126
8287.27 19.2296 12.0683
8289.98 -2.23644 12.0765
8292.69 8.29007 17.2254
8295.4 23.6122 18.0053
8298.11 33.7533 25.6473
8300.82 17.9658 13.2633
8303.53 9.27154 19.5751
8306.24 21.3447 21.2337
8308.95 22.03 10.7981
8311.66 19.4902 14.3313
8314.37 15.1275 17.2824
8317.07 19.0196 17.7141
8319.78 19.8276 16.2376
8322.49 28.6637 17.5366
8325.2 22.8441 16.6798
8327.9 19.9288 16.8111
8330.61 23.5348 18.2825
8333.32 22.5977 11.0151
8336.02 20.7244 13.9559
8338.73 35.9858 17.4821
8341.44 36.9752 14.3924
8344.14 34.0972 13.2994
8346.85 17.4085 14.1764
8349.55 14.877 21.5437
8352.26 20.8181 19.9811
8354.96 -1.35315 15.5268
8357.67 -0.900338 17.8087
8360.37 14.6224 15.4956
8363.07 22.0874 13.8721
8365.78 9.54693 14.3365
8368.48 20.4492 20.2709
8371.18 26.6369 20.1686
8373.89 17.1476 17.3177
8376.59 29.5287 22.7965
8379.29 29.9657 10.7695
8381.99 21.4103 16.1116
8384.69 13.4033 12.0766
8387.39 13.9647 10.5804
8390.1 22.5498 16.7785
8392.8 28.4072 19.4128
8395.5 6.35984 12.9002
8398.2 -6.59325 18.6156
8400.9 32.2124 17.8353
8403.6 22.1068 18.0777
8406.3 16.2817 13.6026
8408.99 18.7151 13.8809
8411.69 23.0982 9.66883
8414.39 13.6074 11.9863
8417.09 24.2025 10.8418
8419.79 15.9328 7.90937
8422.49 13.7481 15.6591
8425.18 25.3942 9.38785
8427.88 32.6404 12.4271
8430.58 -1.64688 13.7775
8433.27 11.6976 5.86654
8435.97 -4.48501 15.6574
8438.67 22.7742 18.4535
8441.36 24.5086 13.8541
8444.06 24.4532 14.5991
8446.75 16.9397 15.0526
8449.45 13.3502 11.9792
8452.14 23.6994 14.3282
8454.84 8.1071 16.3162
8457.53 14.5812 16.1329
8460.22 15.4904 18.149
8462.92 28.4548 11.0911
8465.61 17.1566 12.3532
8468.3 21.9492 14.1414
8471 5.23374 11.5421
8473.69 17.1375 7.31878
8476.38 16.5526 12.1673
8479.07 24.4586 10.9697
8481.77 22.0588 15.5783
8484.46 23.6614 10.7071
8487.15 25.5394 18.0017
8489.84 26.9213 12.3651
8492.53 9.03701 8.60271
8495.22 33.8897 17.3071
8497.91 26.6215 13.2298
8500.6 25.0812 13.0845
8503.29 30.5069 12.2399
8505.98 32.1589 10.3471
8508.67 9.65882 12.7863
8511.36 24.9544 16.2486
8514.04 21.563 8.20261
8516.73 23.7373 13.4097
8519.42 25.9445 13.6065
8522.11 22.2291 12.4413
8524.79 21.8252 11.9023
8527.48 24.9273 15.0034
8530.17 25.7116 14.1267
8532.85 26.9248 9.39091
8535.54 23.7237 16.5106
8538.23 26.3774 12.7076
8540.91 18.9806 13.1228
8543.6 21.462 12.8728
8546.28 22.5334 15.1265
8548.97 23.8677 14.5631
8551.65 27.2775 12.0784
8554.33 21.7435 14.1185
8557.02 19.2749 8.81992
8559.7 22.9778 11.5496
8562.38 26.1998 14.0837
8565.07 24.9363 14.4834
8567.75 26.5611 12.9309
8570.43 26.1468 13.4473
8573.11 24.8317 17.7524
8575.8 28.4218 14.9164
8578.48 30.1167 14.7067
8581.16 27.169 12.1072
8583.84 21.2716 13.5384
8586.52 22.2441 10.4354
8589.2 26.7263 18.3628
8591.88 25.0968 14.6946
8594.56 26.3123 15.0473
8597.24 19.2223 14.5445
8599.92 28.0757 15.3923
8602.6 19.5644 12.8799
8605.28 26.1125 12.9476
8607.95 23.197 14.2369
8610.63 21.5566 12.345
8613.31 21.3666 14.5378
8615.99 25.5417 16.8926
8618.66 27.9364 13.5959
8621.34 27.3426 14.915
8624.02 24.5937 17.2131
8626.69 23.3612 14.5106
8629.37 27.8314 13.1722
8632.05 22.1079 9.63453
8634.72 11.4541 15.6128
8637.4 17.6174 6.25273
8640.07 29.4339 13.9159
8642.75 24.7919 12.5057
8645.42 23.9476 9.12692
8648.09 29.97 14.0252
8650.77 37.7242 13.6043
8653.44 37.2794 18.3623
8656.11 24.6797 10.9321
8658.79 21.7322 13.4621
8661.46 15.9865 7.75765
8664.13 15.5686 18.4639
8666.8 20.8466 14.1458
8669.48 32.1867 14.8531
8672.15 20.7769 12.0447
8674.82 17.4166 9.83788
8677.49 18.8937 9.53554
8680.16 15.8139 11.7573
8682.83 26.2697 16.3992
8685.5 20.9848 14.4277
8688.17 24.3516 14.4052
8690.84 24.683 12.5838
8693.51 25.8972 14.0648
8696.17 31.8801 14.1997
8698.84 31.5101 17.6503
8701.51 30.5793 15.5077
8704.18 28.7521 9.67486
8706.85 25.7768 8.42817
8709.51 24.9507 15.0585
8712.18 28.5083 11.5328
8714.85 25.4928 10.9876
8717.51 26.0705 9.40216
8720.18 25.3446 9.75931
8722.84 25.7785 12.4608
8725.51 28.6231 15.3949
8728.18 30.2362 12.7593
8730.84 25.4598 12.89
8733.5 27.1191 11.2423
8736.17 28.6942 12.6228
8738.83 30.9211 15.7042
8741.5 20.7088 11.7421
8744.16 24.1512 7.95267
8746.82 22.64 7.39545
8749.49 26.1997 8.97183
8752.15 29.2408 12.2924
8754.81 11.5677 10.6249
8757.47 25.2246 18.0337
8760.13 21.1643 4.04759
8762.79 4.24832 3.30559
8765.45 23.6217 -8.90375
8768.12 23.8584 -4.02946
8770.78 -28.86 -12.714
8773.44 -10.6785 6.35762
8776.1 35.1954 7.47999
8778.75 28.449 -6.04985
8781.41 -0.669049 -2.32237
8784.07 27.7946 -7.08209
8786.73 30.0246 8.64413
8789.39 13.265 3.63084
8792.05 12.4872 -0.102004
8794.7 24.1589 6.66474
8797.36 18.0231 1.64387
8800.02 21.7473 9.39435
8802.68 24.2888 5.08106
8805.33 24.2798 4.76364
8807.99 25.3501 3.02978
8810.64 28.2187 2.00229
8813.3 25.1457 1.46762
8815.95 31.3966 7.39956
8818.61 26.4565 6.78952
8821.26 21.3239 14.4544
8823.92 39.9231 -9.66235
8826.57 41.5761 -11.4073
8829.22 21.2257 -27.5157
8831.88 24.6398 -8.52219
8834.53 15.3219 9.88099
8837.18 -13.2834 -1.33929
8839.84 27.7965 2.4193
8842.49 14.5313 14.7857
8845.14 25.5167 5.93593
8847.79 23.6499 10.6702
8850.44 23.3927 2.57962
8853.09 31.2754 -6.75227
8855.74 20.8763 8.08053
8858.39 17.5879 3.2966
8861.04 24.9939 1.83148
8863.69 29.3288 -1.698
8866.34 24.6766 0.273025
8868.99 31.1394 -0.367881
8871.64 12.4265 -1.39789
8874.29 29.3175 12.7975
8876.93 25.5433 0.803172
8879.58 17.3749 -1.0228
8882.23 9.28574 -9.20892
8884.88 40.4711 3.54046
8887.52 -18.8148 7.75152
8890.17 19.9545 19.9152
8892.82 5.78066 12.0743
8895.46 17.2274 7.2977
8898.11 20.5214 -4.37422
8900.75 35.0709 -5.50441
8903.4 9.38909 -3.54481
8906.04 29.9423 4.3898
8908.69 22.2876 -1.13142
8911.33 19.4283 -0.45605
8913.97 -0.0357872 -15.4905
8916.62 9.36179 -8.67173
8919.26 -12.8802 12.1718
8921.9 -33.4108 -12.048
8924.54 16.056 10.3878
8927.19 -22.524 -13.4152
8929.83 17.5667 -2.55115
8932.47 21.373 0.429232
8935.11 19.15 -7.44352
8937.75 21.0404 0.716533
8940.39 27.6728 -4.45223
8943.03 1.80256 0.941378
8945.67 26.1397 7.33772
8948.31 17.7889 -12.8308
8950.95 8.80346 -21.1123
8953.59 14.6521 -19.2487
8956.23 29.7563 7.7731
8958.87 30.8909 14.6761
8961.5 -21.0689 -1.66993
8964.14 1.22464 -30.8197
8966.78 6.50252 -25.2828
8969.41 14.1331 -20.0132
8972.05 21.4083 -3.6034
8974.69 21.0741 2.34471
8977.32 18.1909 1.54501
8979.96 16.8179 3.92283
8982.59 22.2736 3.31526
8985.23 19.4058 4.37946
8987.86 14.9487 10.389
8990.5 26.1071 7.57134
8993.13 20.8287 1.47564
8995.77 19.9696 -12.3931
8998.4 2.2947 23.6376
9001.03 21.328 20.4971
9003.67 21.8374 20.5794
9006.3 14.1887 -14.7058
9008.93 17.2444 -41.282
9011.56 21.5924 -17.5772
9014.19 18.298 -6.62563
9016.82 23.1556 4.09549
9019.45 20.9022 10.9433
9022.08 22.7182 3.93373
9024.72 19.7909 8.19351
9027.34 22.5016 14.7359
9029.97 21.1074 14.2479
9032.6 20.0575 8.79976
9035.23 27.7251 19.0012
9037.86 16.8131 19.706
9040.49 23.9098 7.28008
9043.12 18.9078 2.35274
9045.74 28.8671 13.8207
9048.37 22.8901 27.3268
9051 20.6807 10.2836
9053.62 20.4796 0.822549
9056.25 13.5842 -14.9006
9058.88 17.7296 -10.8929
9061.5 23.4396 0.603752
