wavelength spectrum_sum 3smoothed_sum spectrum_optimal 3smoothed_optimal
3508.48 29.136 18.824 36.9211 20.424
3511.39 27.3361 34.7494 24.351 34.461
3514.3 47.776 38.3353 42.1109 34.2126
3517.21 39.8939 42.4011 36.176 35.9031
3520.12 39.5333 38.1523 29.4223 33.2929
3523.03 35.0297 34.9815 34.2804 27.3511
3525.94 30.3816 31.3967 18.3505 26.3207
3528.85 28.7787 30.5777 26.3312 24.4616
3531.76 32.5729 32.0932 28.7032 25.6099
3534.67 34.9281 31.6018 21.7953 29.272
3537.58 27.3043 33.1675 37.3176 22.5974
3540.49 37.2702 30.0433 8.67918 28.1624
3543.41 25.5554 26.3643 38.4906 27.7431
3546.32 16.2675 15.0033 36.0594 33.5631
3549.23 3.18706 18.3852 26.1391 33.478
3552.14 35.7012 34.7382 38.2354 40.8988
3555.05 65.3264 40.1143 58.322 46.6301
3557.96 19.3155 41.5327 43.333 46.7673
3560.87 39.9563 32.1136 38.6469 42.2817
3563.78 37.0692 44.3296 44.8651 40.4666
3566.69 55.9633 46.9487 37.8877 39.8168
3569.6 47.8137 55.6963 36.6976 44.9199
3572.51 63.3119 56.3882 60.1742 40.3548
3575.42 58.039 55.5965 24.1925 40.4622
3578.33 45.4387 47.3966 37.02 34.5541
3581.24 38.712 41.4581 42.4498 38.6765
3584.15 40.2235 42.0179 36.5597 42.5082
3587.06 47.1182 49.1998 48.5153 43.8131
3589.97 60.2577 49.4917 46.3643 48.8211
3592.88 41.0991 52.2286 51.5839 48.5245
3595.79 55.329 48.0564 47.6253 49.0648
3598.7 47.741 50.6791 47.9852 53.8435
3601.61 48.9671 57.4631 65.9201 59.3432
3604.52 75.6813 60.9843 64.1244 60.0766
3607.43 58.3046 76.5665 50.1855 57.9025
3610.35 95.7137 66.612 59.3977 49.5974
3613.26 45.8177 71.5127 39.2092 50.6955
3616.17 73.0066 60.1026 53.4795 53.0769
3619.08 61.4835 73.6394 66.5421 56.1526
3621.99 86.4279 71.5432 48.4361 59.387
3624.9 66.7181 67.834 63.1829 49.5015
3627.81 50.356 54.1196 36.8855 45.4644
3630.72 45.2849 52.0101 36.3248 44.926
3633.63 60.3895 53.3646 61.5677 47.9938
3636.54 54.4193 51.2223 46.0888 52.9799
3639.45 38.858 53.4873 51.2832 53.5928
3642.36 67.1847 53.2068 63.4064 45.3822
3645.27 53.5778 66.1149 21.457 46.4909
3648.18 77.5823 66.6922 54.6093 42.0907
3651.09 68.9166 66.1299 50.2058 48.9667
3654 51.8907 60.3218 42.0852 46.1062
3656.91 60.1581 51.552 46.0276 40.5454
3659.83 42.6071 63.4827 33.5233 53.2736
3662.74 87.6828 72.4513 80.2699 61.1861
3665.65 87.0641 79.6453 69.7651 70.9033
3668.56 64.1891 71.4333 62.6749 65.4884
3671.47 63.0466 55.9858 64.0253 55.2075
3674.38 40.7218 62.2787 38.9224 49.4334
3677.29 83.0675 70.1469 45.3524 42.9169
3680.2 86.6515 81.0703 44.476 47.5004
3683.11 73.4918 83.5111 52.6729 54.8906
3686.02 90.3899 87.7459 67.5229 63.9831
3688.93 99.3559 86.0799 71.7535 64.2788
3691.84 68.4938 92.8179 53.56 58.8119
3694.75 110.604 95.7636 51.1223 59.8212
3697.66 108.193 103.185 74.7815 53.983
3700.57 90.7579 98.1721 36.0452 65.6816
3703.49 95.5654 100.775 86.2181 66.6909
3706.4 116.002 105.083 77.8094 75.7018
3709.31 103.681 103.763 63.0779 61.6302
3712.22 91.6047 105.803 44.0032 63.0006
3715.13 122.124 99.0418 81.9207 55.1536
3718.04 83.3964 106.17 39.5371 65.024
3720.95 112.988 90.2972 73.6143 59.3189
3723.86 74.5068 86.0306 64.8055 68.922
3726.77 70.5965 74.5483 68.3462 63.4613
3729.68 78.5418 76.4377 57.2324 66.7929
3732.59 80.1749 85.0025 74.8 61.6718
3735.5 96.2908 89.0212 52.9831 65.0737
3738.41 90.5978 87.0193 67.4378 55.6197
3741.32 74.1693 92.3578 46.4381 67.5888
3744.23 112.306 78.8331 88.8905 63.5775
3747.15 50.0237 92.4915 55.4041 81.9192
3750.06 115.145 90.2782 101.463 85.1284
3752.97 105.666 110.276 98.5181 87.8017
3755.88 110.017 109.788 63.424 89.4368
3758.79 113.679 128.578 106.368 99.5882
3761.7 162.038 146.047 128.972 108.225
3764.61 162.425 130.245 89.3341 97.3672
3767.52 66.2712 115.938 73.7953 83.7654
3770.43 119.119 105.55 88.1669 93.0951
3773.34 131.259 136.085 117.323 106.192
3776.25 157.876 134.51 113.086 114.521
3779.16 114.394 153.352 113.154 117.654
3782.07 187.785 149.645 126.721 131.936
3784.98 146.755 156.375 155.933 138.765
3787.9 134.586 133.808 133.64 134.242
3790.81 120.083 131.17 113.154 124.042
3793.72 138.842 126.711 125.331 116.565
3796.63 121.208 130.652 111.21 110.063
3799.54 131.906 113.404 93.6472 94.3955
3802.45 87.0997 108.994 78.3291 94.2325
3805.36 107.977 109.508 110.721 96.5088
3808.27 133.447 111.952 100.476 99.6251
3811.18 94.4313 115.379 87.6782 91.97
3814.09 118.26 110.505 87.756 100.803
3817 118.824 125.773 126.975 115.652
3819.91 140.236 139.2 132.224 131.584
3822.82 158.539 154.831 135.553 129.145
3825.73 165.717 161.076 119.657 120.244
3828.64 158.971 161.813 105.521 123.124
3831.55 160.752 161.087 144.193 124.413
3834.47 163.538 161.598 123.523 133.877
3837.38 160.503 183.102 133.914 145.366
3840.29 225.265 197.07 178.661 157.439
3843.2 205.443 204.207 159.743 167.212
3846.11 181.914 168.21 163.233 147.761
3849.02 117.274 162.706 120.307 143.667
3851.93 188.929 154.6 147.46 129.816
3854.84 157.597 174.105 121.682 138.599
3857.75 175.788 170.766 146.656 133.077
3860.66 178.913 181.804 130.894 140.205
3863.57 190.711 167.365 143.064 137.456
3866.48 132.473 170.713 138.411 145.315
3869.39 188.957 164.854 154.469 142.305
3872.3 173.132 172.167 134.035 145.247
3875.21 154.413 174.469 147.236 134.479
3878.12 195.861 156.3 122.166 133.134
3881.03 118.625 164.733 129.999 130.34
3883.95 179.712 172.479 138.854 146.432
3886.86 219.1 184.998 170.443 141.044
3889.77 156.183 177.561 113.835 135.807
3892.68 157.399 157.753 123.143 116.585
3895.59 159.677 156.192 112.779 125.6
3898.5 151.5 149.117 140.879 120.339
3901.41 136.173 160.9 107.361 130.818
3904.32 195.026 169.661 144.214 133.549
3907.23 177.784 194.585 149.072 168.167
3910.14 210.944 194.781 211.213 176.908
3913.05 195.615 225.433 170.438 206.937
3915.96 269.74 234.524 239.161 209.916
3918.87 238.218 253.046 220.15 219.505
3921.78 251.182 239.376 199.204 206.731
3924.69 228.73 225.214 200.84 184.268
3927.6 195.732 208.788 152.761 177.263
3930.51 201.903 199.574 178.189 165.798
3933.42 201.085 197.142 166.444 163.787
3936.33 188.439 200.361 146.73 161.494
3939.24 211.56 191.122 171.31 152.525
3942.15 173.366 189.689 139.537 153.39
3945.06 184.141 187.669 149.324 157.291
3947.97 205.501 209.205 183.013 179.627
3950.88 237.973 229.626 206.544 204.636
3953.79 245.404 223.101 224.352 198.567
3956.7 185.927 216.322 164.804 190.631
3959.61 217.635 211.396 182.737 183.233
3962.53 230.625 210.134 202.157 184.429
3965.44 182.142 214.282 168.394 184.486
3968.35 230.079 235.654 182.909 188.539
3971.26 294.741 245.307 214.315 197.408
3974.17 211.102 249.158 195 203.511
3977.08 241.632 234.523 201.217 201.228
3979.99 250.835 222.918 207.467 193.21
3982.9 176.288 215.872 170.946 182.134
3985.81 220.492 186.408 167.987 162.515
3988.72 162.443 194.007 148.61 159.472
3991.63 199.085 186.639 161.817 165.776
3994.54 198.387 222.467 186.901 181.154
3997.45 269.927 223.721 194.742 186.583
4000.36 202.848 240.423 178.107 187.894
4003.27 248.495 219.044 190.832 189.572
4006.18 205.79 229.838 199.777 192.061
4009.09 235.229 239.492 185.574 206.742
4012 277.457 263.088 234.876 220.254
4014.91 276.577 261.036 240.311 221.801
4017.82 229.076 253.636 190.214 210.765
4020.73 255.255 245.772 201.77 197.83
4023.64 252.985 232.208 201.506 186.053
4026.55 188.385 213.501 154.882 174.783
4029.46 199.134 201.102 167.961 167.28
4032.37 215.787 221.655 178.996 181.323
4035.28 250.045 254.017 197.013 209.424
4038.19 296.219 264.587 252.264 216.016
4041.1 247.497 281.455 198.771 240.141
4044.01 300.65 282.544 269.388 233.217
4046.92 299.486 288.49 231.491 252.277
4049.83 265.335 277.146 255.953 254.447
4052.74 266.618 304.218 275.896 280.943
4055.65 380.701 317.217 310.979 281.464
4058.55 304.332 331.398 257.516 283.768
4061.46 309.16 320.31 282.808 269.124
4064.37 347.438 339.862 267.049 277.569
4067.28 362.989 350.56 282.851 277.559
4070.19 341.253 352.18 282.776 287.63
4073.1 352.298 355.492 297.264 305.227
4076.01 372.925 350.635 335.642 308.027
4078.92 326.683 370.889 291.176 318.809
4081.83 413.059 370.912 329.608 318.329
4084.74 372.993 373.144 334.205 339.374
4087.65 333.379 353.401 354.309 332.351
4090.56 353.83 345.75 308.54 325.566
4093.47 350.04 374.663 313.849 316.956
4096.38 420.12 396.679 328.48 325.579
4099.29 419.877 399.072 334.407 313.637
4102.2 357.219 395.197 278.024 323.324
4105.11 408.493 368.58 357.541 313.534
4108.02 340.027 402.508 305.037 333.157
4110.93 459.005 386.955 336.894 331.976
4113.84 361.832 401.56 353.997 334.997
4116.75 383.842 389.357 314.099 331.518
4119.65 422.396 374.27 326.457 303.884
4122.56 316.572 384.126 271.097 315.813
4125.47 413.41 365.684 349.884 305.616
4128.38 367.071 412.91 295.868 334.274
4131.29 458.249 389.25 357.071 308.59
4134.2 342.431 418.706 272.83 334.832
4137.11 455.439 397.311 374.595 343.888
4140.02 394.063 398.354 384.24 362.899
4142.93 345.56 390.584 329.863 360.948
4145.84 432.128 395.484 368.74 346.249
4148.75 408.764 419.512 340.143 350.175
4151.66 417.643 405.098 341.642 338.923
4154.57 388.888 415.118 334.982 350.261
4157.47 438.824 381.366 374.159 337.558
4160.38 316.387 392.244 303.533 350.211
4163.29 421.52 381.248 372.94 331.207
4166.2 405.837 436.213 317.147 350.238
4169.11 481.282 448.361 360.627 345.824
4172.02 457.962 441.837 359.697 361.035
4174.93 386.268 431.168 362.781 362.258
4177.84 449.274 418.73 364.297 368.165
4180.75 420.648 438.413 377.416 373.812
4183.65 445.318 437.532 379.724 371.856
4186.56 446.629 442.385 358.428 367.223
4189.47 435.208 457.856 363.517 369.824
4192.38 491.732 467.124 387.526 381.347
4195.29 474.432 463.106 392.997 375.495
4198.2 423.156 443.327 345.962 371.192
4201.11 432.394 445.793 374.618 372.637
4204.02 481.829 474.18 397.332 398.711
4206.92 508.316 485.195 424.183 397.668
4209.83 465.441 470.949 371.489 395.278
4212.74 439.09 474.759 390.161 399.549
4215.65 519.744 459.742 436.997 401.427
4218.56 420.392 463.206 377.122 410.216
4221.47 449.483 468.645 416.528 408.903
4224.38 536.06 477.741 433.06 405.17
4227.28 447.679 498.523 365.921 395.131
4230.19 511.831 471.743 386.411 382.507
4233.1 455.72 471.599 395.189 398.259
4236.01 447.247 467.097 413.179 404.81
4238.92 498.323 497.953 406.062 422.818
4241.83 548.29 499.998 449.213 427.344
4244.73 453.381 500.884 426.758 430.646
4247.64 500.981 497.463 415.968 426.386
4250.55 538.026 510.016 436.433 416.324
4253.46 491.04 508.249 396.572 419.107
4256.37 495.68 495.592 424.316 406.771
4259.28 500.054 509.449 399.425 406.483
4262.18 532.612 517.757 395.708 398.774
4265.09 520.606 522.87 401.188 419.15
4268 515.391 513.256 460.552 420.273
4270.91 503.772 490.465 399.078 415.467
4273.82 452.231 491.531 386.771 407.477
4276.72 518.59 462.224 436.581 407.678
4279.63 415.852 465.55 399.683 403.017
4282.54 462.208 459.398 372.789 422.119
4285.45 500.133 511.567 493.884 447.467
4288.35 572.359 530.008 475.73 481.527
4291.26 517.531 534.298 474.967 465.427
4294.17 513.004 516.916 445.585 452.83
4297.08 520.214 513.196 437.94 440.43
4299.99 506.372 533.508 437.767 457.826
4302.89 573.937 543.307 497.772 462.781
4305.8 549.612 559.34 452.806 472.359
4308.71 554.47 564.949 466.5 457.906
4311.62 590.766 598.201 454.411 479.001
4314.52 649.366 603.046 516.092 479.212
4317.43 569.005 580.336 467.133 484.653
4320.34 522.637 538.587 470.733 464.605
4323.25 524.12 563.138 455.948 480.923
4326.15 642.656 536.361 516.087 472.796
4329.06 442.307 558.942 446.353 493.287
4331.97 591.861 531.121 517.421 488.151
4334.88 559.196 572.619 500.678 502.103
4337.78 566.799 568.555 488.209 483.554
4340.69 579.669 566.418 461.774 466.714
4343.6 552.787 550.066 450.16 454.309
4346.51 517.743 545.204 450.992 449.094
4349.41 565.08 555.821 446.132 452.632
4352.32 584.64 560.002 460.773 468.829
4355.23 530.284 556.999 499.582 494.547
4358.13 556.073 541.273 523.286 489.262
4361.04 537.463 546.151 444.918 475.832
4363.95 544.917 525.963 459.291 448.395
4366.85 495.509 520.985 440.976 458.787
4369.76 522.53 511.923 476.093 450.879
4372.67 517.73 510.002 435.569 452.944
4375.58 489.745 501.063 447.17 446.122
4378.48 495.714 530.16 455.627 481.48
4381.39 605.021 587.791 541.643 507.597
4384.3 662.637 603.361 525.522 523.129
4387.2 542.426 581.011 502.223 508.569
4390.11 537.971 574.346 497.962 511.384
4393.02 642.642 603.873 533.967 522.462
4395.92 631.005 625.74 535.456 521.198
4398.83 603.574 617.439 494.172 509.78
4401.74 617.739 597.645 499.713 503.928
4404.64 571.621 602.944 517.898 520.504
4407.55 619.47 611.47 543.9 537.275
4410.46 643.318 624.635 550.026 539.851
4413.36 611.116 609.525 525.626 510.473
4416.27 574.14 623.923 455.766 512.113
4419.17 686.513 624.127 554.946 523.181
4422.08 611.727 646.3 558.832 574.873
4424.99 640.658 625.13 610.84 573.104
4427.89 623.006 639.565 549.638 573.363
4430.8 655.031 645.335 559.609 570.858
4433.71 657.968 649.033 603.328 568.121
4436.61 634.101 666.423 541.427 585.703
4439.52 707.2 667.84 612.354 579.443
4442.42 662.218 670.438 584.549 589.922
4445.33 641.897 627.031 572.864 554.078
4448.24 576.978 614.514 504.82 529.16
4451.14 624.668 610.663 509.796 525.353
4454.05 630.343 629.556 561.444 559.352
4456.95 633.657 643.585 606.817 581.31
4459.86 666.756 634.344 575.669 589.026
4462.76 602.62 665.607 584.592 595.783
4465.67 727.445 644.481 627.087 564.313
4468.58 603.38 671.626 481.261 562.28
4471.48 684.054 655.706 578.492 540.445
4474.39 679.683 690.04 561.581 591.881
4477.29 706.382 695.652 635.57 606.776
4480.2 700.89 693.869 623.175 637.832
4483.1 674.334 674.502 654.75 614.284
4486.01 648.283 681.949 564.926 607.534
4488.91 723.229 678.24 602.926 585.115
4491.82 663.209 709.4 587.494 599.51
4494.72 741.762 692.417 608.11 583.075
4497.63 672.281 736.172 553.622 606.969
4500.54 794.475 710.966 659.174 595.664
4503.44 666.142 737.853 574.196 642.443
4506.35 752.942 694.945 693.959 622.883
4509.25 665.752 722.1 600.495 648.201
4512.16 747.605 732.935 650.15 644.296
4515.06 785.447 751.25 682.244 666.388
4517.97 720.698 741.499 666.771 684.941
4520.87 718.351 733.083 705.807 669.621
4523.78 760.2 733.086 636.283 675.884
4526.68 720.706 706.925 685.561 632.57
4529.59 639.87 694.139 575.865 645.125
4532.49 721.842 701.172 673.948 653.152
4535.39 741.803 730.571 709.643 689.741
4538.3 728.069 724.273 685.634 667.139
4541.2 702.948 725.3 606.141 648.979
4544.11 744.884 731.133 655.163 627.751
4547.01 745.566 745.531 621.95 645.739
4549.92 746.144 771.048 660.104 658.909
4552.82 821.433 778.895 694.675 674.492
4555.73 769.107 813.038 668.696 689.333
4558.63 848.573 819.94 704.628 693.754
4561.53 842.139 846.866 707.94 708.992
4564.44 849.885 815.413 714.41 680.434
4567.34 754.215 801.16 618.952 667.574
4570.25 799.379 807.051 669.359 668.64
4573.15 867.558 851.335 717.608 699.273
4576.06 887.067 894.201 710.852 724.507
4578.96 927.978 895.648 745.059 744.327
4581.86 871.899 849.682 777.069 711.54
4584.77 749.169 839.58 612.491 707.946
4587.67 897.671 824.957 734.278 665.754
4590.58 828.032 845.92 650.492 681.451
4593.48 812.058 786.753 659.582 649.738
4596.38 720.168 792.988 639.141 664.399
4599.29 846.738 795.361 694.475 676.221
4602.19 819.176 845.27 695.048 660.749
4605.09 869.895 868.304 592.723 663.586
4608 915.841 859.674 702.987 646.214
4610.9 793.285 846.394 642.933 676.793
4613.8 830.056 818.357 684.459 668.429
4616.71 831.732 825.723 677.896 686.151
4619.61 815.382 834.103 696.097 676.607
4622.51 855.196 850.342 655.828 664.891
4625.42 880.449 897.953 642.747 655.974
4628.32 958.213 899.669 669.347 649.542
4631.22 860.344 879.155 636.532 641.299
4634.13 818.907 836.284 618.018 644.835
4637.03 829.602 858.076 679.955 663.914
4639.93 925.719 915.897 693.767 710.387
4642.84 992.369 929.986 757.437 717.473
4645.74 871.869 921.771 701.215 723.864
4648.64 901.076 865.468 712.94 688.083
4651.55 823.458 900.212 650.094 689.158
4654.45 976.101 885.925 704.439 677.178
4657.35 858.216 888.924 677.002 676.62
4660.25 832.455 875.625 648.419 666.923
4663.16 936.205 886.385 675.347 654.761
4666.06 890.494 914.489 640.516 663.154
4668.96 916.767 903.565 673.598 644.022
4671.86 903.432 937.525 617.951 673.221
4674.77 992.375 931.401 728.112 677.336
4677.67 898.397 927.199 685.945 694.022
4680.57 890.825 937.782 668.009 717.531
4683.47 1024.12 941.381 798.637 739.246
4686.37 909.196 980.004 751.091 758.283
4689.28 1006.69 975.351 725.122 720.965
4692.18 1010.17 973.548 686.683 710.004
4695.08 903.787 951.703 718.206 694.231
4697.98 941.158 960.866 677.803 743.407
4700.89 1037.65 1000.65 834.212 781.064
4703.79 1023.14 1001.13 831.177 798.323
4706.69 942.585 973.962 729.581 781.91
4709.59 956.161 958.752 784.973 764.719
4712.49 977.51 946.621 779.604 758.759
4715.39 906.193 928.262 711.7 744.526
4718.3 901.082 931.653 742.273 736.429
4721.2 987.682 958.451 755.312 768.95
4724.1 986.588 955.12 809.265 767.495
4727 891.09 921.328 737.907 752.105
4729.9 886.306 872.536 709.142 704.273
4732.8 840.213 885.423 665.769 693.013
4735.7 929.751 901.293 704.127 693.518
4738.61 933.917 951.965 710.657 740.674
4741.51 992.227 955.469 807.237 756.919
4744.41 940.264 975.395 752.864 767.458
4747.31 993.694 922.986 742.274 760.574
4750.21 835 930.103 786.585 743.96
4753.11 961.616 890.175 703.021 731.924
4756.01 873.908 923.125 706.166 730.911
4758.91 933.851 916.414 783.546 755.684
4761.81 941.484 937.746 777.342 764.686
4764.71 937.903 955.152 733.171 753.058
4767.62 986.071 946.068 748.662 727.77
4770.52 914.23 928.487 701.478 752.312
4773.42 885.158 873.333 806.797 746.979
4776.32 820.609 869.988 732.662 774.091
4779.22 904.197 872.237 782.815 752.162
4782.12 891.905 882.439 741.01 756.602
4785.02 851.215 892.116 745.982 762.808
4787.92 933.228 942.797 801.432 795.379
4790.82 1043.95 986.359 838.722 815.286
4793.72 981.902 981.016 805.704 784.459
4796.62 917.199 978.593 708.95 775.883
4799.52 1036.68 969.498 812.996 767.265
4802.42 954.615 1018.21 779.85 821.12
4805.32 1063.33 982.492 870.513 823.621
4808.22 929.534 1001.31 820.5 836.001
4811.12 1011.08 960.728 816.99 809.129
4814.02 941.572 962.781 789.896 811.666
4816.92 935.693 952.638 828.113 814.455
4819.82 980.648 946.594 825.356 816.953
4822.72 923.441 939.299 797.391 810.365
4825.62 913.808 947.71 808.349 830.581
4828.52 1005.88 953.309 886.004 844.494
4831.42 940.239 993.678 839.129 846.442
4834.32 1034.92 975.15 814.194 810.344
4837.21 950.296 1019.84 777.71 818.414
4840.11 1074.3 1015.14 863.337 825.405
4843.01 1020.83 1009.84 835.166 853.752
4845.91 934.379 976.774 862.753 838.211
4848.81 975.111 969.061 816.715 841.716
4851.71 997.692 979.357 845.679 830.232
4854.61 965.267 1018.98 828.301 858.834
4857.51 1093.99 1008.5 902.522 844.13
4860.41 966.245 1016.58 801.565 840.38
4863.31 989.512 1000.79 817.052 836.421
4866.2 1046.62 1035.26 890.646 841.856
4869.1 1069.64 1012.41 817.869 836.575
4872 920.962 954.731 801.211 811.596
4874.9 873.59 937.633 815.709 824.645
4877.8 1018.35 960.297 857.016 830.382
4880.7 988.954 993.755 818.421 845.178
4883.6 973.965 977.185 860.096 851.955
4886.49 968.636 988.122 877.347 881.762
4889.39 1021.77 1040.73 907.841 907.658
4892.29 1131.8 1033.91 937.785 888.578
4895.19 948.177 1062.64 820.109 911.595
4898.09 1107.96 1042.8 976.892 902.046
4900.98 1072.28 1071.13 909.137 954.26
4903.88 1033.17 1012.97 976.75 914.292
4906.78 933.464 995.11 856.989 907.6
4909.68 1018.7 987.122 889.06 880.134
4912.58 1009.21 1001.6 894.353 891.733
4915.47 976.884 1008 891.787 926.198
4918.37 1037.9 993.282 992.454 907.849
4921.27 965.059 993.525 839.307 887.144
4924.17 977.615 991.348 829.672 840.648
4927.06 1031.37 1018.15 852.965 846.19
4929.96 1045.47 1047.67 855.935 880.143
4932.86 1066.17 1022.43 931.529 889.212
4935.75 955.65 980.11 880.172 877.946
4938.65 918.513 940.651 822.136 857.461
4941.55 947.79 923.278 870.076 838.914
4944.45 903.531 943.543 824.531 851.394
4947.34 979.309 974.55 859.576 852.932
4950.24 1040.81 1009.02 874.69 867.748
4953.14 1006.95 1003.08 868.978 874.392
4956.03 961.477 962.091 879.507 847.174
4958.93 917.843 949.247 793.037 829.757
4961.83 968.421 976.071 816.726 839.826
4964.72 1041.95 1033.72 909.715 885.686
4967.62 1090.79 1093.16 930.618 941.862
4970.52 1146.75 1110.3 985.254 935.309
4973.41 1093.37 1110.67 890.054 932.206
4976.31 1091.88 1086.68 921.309 918.426
4979.2 1074.78 1086.52 943.915 941.08
4982.1 1092.92 1092.91 958.016 964.552
4985 1111.02 1090.73 991.724 984.274
4987.89 1068.25 1080.92 1003.08 954.612
4990.79 1063.5 1087.11 869.032 923.066
4993.68 1129.57 1083.73 897.086 909.876
4996.58 1058.11 1093.67 963.509 935.791
4999.48 1093.32 1080.16 946.778 976.562
5002.37 1089.04 1107.23 1019.4 981.677
5005.27 1139.34 1138.33 978.855 990.884
5008.16 1186.63 1108.41 974.399 962.043
5011.06 999.269 1092.47 932.874 957.674
5013.95 1091.51 1084.23 965.748 969.936
5016.85 1161.92 1135.67 1011.19 1010.17
5019.74 1153.59 1161.01 1053.56 1041.08
5022.64 1167.52 1146.2 1058.5 1044.89
5025.53 1117.49 1121.62 1022.61 1009.84
5028.43 1079.86 1073.37 948.394 971.22
5031.32 1022.76 1112.23 942.652 983.526
5034.22 1234.06 1160.61 1059.53 1021.03
5037.11 1225 1191.57 1060.9 1030.89
5040.01 1115.66 1173.53 972.236 1025.95
5042.9 1179.94 1172.1 1044.7 1035.61
5045.8 1220.71 1161.36 1089.87 1066.29
5048.69 1083.42 1175.99 1064.28 1090.65
5051.59 1223.84 1135.74 1117.78 1061.23
5054.48 1099.94 1123.3 1001.62 1054.17
5057.37 1046.11 1102.06 1043.11 1025.42
5060.27 1160.14 1100.42 1031.52 1043.85
5063.16 1095 1134.91 1056.92 1071.78
5066.06 1149.58 1144.23 1126.89 1082.39
5068.95 1188.11 1189.73 1063.36 1089.12
5071.85 1231.5 1176.67 1077.1 1063.66
5074.74 1110.39 1179.47 1050.51 1077.83
5077.63 1196.53 1174.26 1105.9 1071.99
5080.53 1215.85 1212.13 1059.57 1093.46
5083.42 1224.02 1210.81 1114.92 1087.65
5086.31 1192.57 1209.8 1088.46 1101.96
5089.21 1212.8 1169.62 1102.5 1097.5
5092.1 1103.5 1190.16 1101.55 1103.82
5094.99 1254.17 1189.49 1107.42 1114.9
5097.89 1210.79 1226.56 1135.72 1107.64
5100.78 1214.71 1188.01 1079.77 1104.12
5103.67 1138.54 1160.18 1096.86 1112.7
5106.57 1127.28 1121.56 1161.47 1122.85
5109.46 1098.86 1111.85 1110.23 1131.98
5112.35 1109.4 1155.01 1124.24 1126.76
5115.25 1256.77 1135.46 1145.81 1102.35
5118.14 1040.2 1154.3 1036.99 1100.22
5121.03 1165.92 1120.06 1117.86 1110.28
5123.92 1154.06 1173.19 1175.99 1135.92
5126.82 1199.59 1172.46 1113.9 1116.3
5129.71 1163.74 1198.47 1059.01 1104.73
5132.6 1232.07 1221.85 1141.27 1135.59
5135.49 1269.75 1266.81 1206.5 1140.28
5138.39 1298.62 1271.29 1073.07 1153.27
5141.28 1245.49 1272.79 1180.24 1136.24
5144.17 1274.27 1237.91 1155.4 1159.87
5147.06 1193.98 1235.68 1143.97 1163.37
5149.95 1238.79 1231.55 1190.75 1165.36
5152.85 1261.87 1264.48 1161.37 1182.22
5155.74 1292.78 1243.66 1194.52 1179.77
5158.63 1176.32 1223.74 1183.42 1157.78
5161.52 1202.12 1199.09 1095.39 1132.24
5164.41 1218.83 1233.3 1117.92 1126.65
5167.3 1278.96 1215.88 1166.65 1117.19
5170.19 1149.85 1217.76 1067 1144.78
5173.09 1224.47 1179.86 1200.67 1150.24
5175.98 1165.27 1186.06 1183.06 1178.1
5178.87 1168.46 1190.36 1150.58 1175.6
5181.76 1237.34 1228.09 1193.15 1190.86
5184.65 1278.47 1280.11 1228.86 1220.06
5187.54 1324.53 1270.4 1238.17 1226.35
5190.43 1208.21 1291.29 1212.03 1243.74
5193.32 1341.11 1234.19 1281.02 1222.04
5196.21 1153.24 1256.03 1173.08 1220.99
5199.1 1273.75 1226.43 1208.88 1198.19
5201.99 1252.3 1218.33 1212.6 1189.71
5204.88 1128.95 1188.38 1147.65 1186.68
5207.78 1183.9 1197.02 1199.79 1171.13
5210.67 1278.23 1253.48 1165.94 1197.83
5213.56 1298.32 1263.67 1227.76 1203.1
5216.45 1214.47 1270.55 1215.58 1219.47
5219.34 1298.86 1219.36 1215.06 1173.84
5222.23 1144.76 1215.7 1090.88 1146.76
5225.12 1203.47 1189.79 1134.35 1142.33
5228.01 1221.13 1237.69 1201.75 1163.1
5230.9 1288.48 1243.01 1153.21 1164.13
5233.78 1219.43 1237.48 1137.43 1157.91
5236.67 1204.54 1233.35 1183.09 1174.4
5239.56 1276.09 1231.99 1202.7 1192.34
5242.45 1215.36 1242.49 1191.22 1194.63
5245.34 1236.02 1202.56 1189.99 1173.75
5248.23 1156.31 1195.06 1140.05 1148.26
5251.12 1192.84 1185.03 1114.73 1114.56
5254.01 1205.94 1193.85 1088.89 1111.1
5256.9 1182.78 1167.55 1129.67 1139.32
5259.79 1113.93 1195.45 1199.41 1179.36
5262.68 1289.63 1214.37 1209 1199.46
5265.57 1239.56 1238.2 1189.98 1177.76
5268.45 1185.41 1189.09 1134.31 1158.2
5271.34 1142.3 1215.07 1150.31 1174.04
5274.23 1317.49 1206.97 1237.49 1177.54
5277.12 1161.12 1248.44 1144.82 1205.23
5280.01 1266.7 1236.16 1233.38 1191.52
5282.9 1280.66 1276.96 1196.35 1216.11
5285.78 1283.51 1264.44 1218.59 1205.45
5288.67 1229.14 1250.97 1201.42 1202.82
5291.56 1240.25 1216.81 1188.45 1196.84
5294.45 1181.05 1214.77 1200.67 1233.47
5297.34 1223.02 1214.97 1311.29 1280.11
5300.22 1240.84 1222.53 1328.37 1296.23
5303.11 1203.73 1248.25 1249.03 1276.58
5306 1300.17 1252.6 1252.35 1260.86
5308.89 1253.89 1292.09 1281.21 1283.47
5311.77 1322.2 1298.03 1316.85 1293.72
5314.66 1317.99 1323.39 1283.1 1296.4
5317.55 1329.99 1324.7 1289.27 1303.88
5320.43 1326.13 1342.37 1339.28 1318.22
5323.32 1371 1345.9 1326.11 1334.44
5326.21 1340.56 1367.14 1337.94 1338.7
5329.1 1389.86 1292.45 1352.04 1288.61
5331.98 1146.93 1277.32 1175.85 1309.55
5334.87 1295.16 1264.37 1400.78 1292.15
5337.76 1351.01 1308.71 1299.83 1310.25
5340.64 1279.97 1317.58 1230.15 1268.83
5343.53 1321.75 1275.24 1276.53 1260.71
5346.42 1223.99 1280.55 1275.47 1274.23
5349.3 1295.92 1246.43 1270.69 1276.31
5352.19 1219.38 1247.19 1282.77 1260.75
5355.07 1226.26 1242.27 1228.79 1285.24
5357.96 1281.16 1254.94 1344.17 1325.6
5360.85 1257.39 1321.35 1403.85 1380.1
5363.73 1425.49 1373.95 1392.28 1384.55
5366.62 1438.98 1414.3 1357.52 1391.06
5369.5 1378.42 1437.4 1423.37 1423.58
5372.39 1494.81 1395.99 1489.84 1439.75
5375.27 1314.74 1383.3 1406.04 1394.43
5378.16 1340.35 1353.55 1287.41 1345.56
5381.04 1405.54 1377.55 1343.23 1331.14
5383.93 1386.77 1391.03 1362.77 1373.91
5386.81 1380.79 1400.35 1415.74 1425.49
5389.7 1433.5 1443.79 1497.95 1470.33
5392.58 1517.07 1476.78 1497.3 1478.03
5395.47 1479.76 1515.06 1438.84 1480.46
5398.35 1548.34 1462.22 1505.24 1473.95
5401.24 1358.56 1419.51 1477.76 1454.51
5404.12 1351.64 1373.65 1380.51 1406.22
5407.01 1410.76 1392.82 1360.38 1379.71
5409.89 1416.06 1383.56 1398.23 1355.62
5412.78 1323.87 1348.61 1308.25 1385.42
5415.66 1305.89 1304.57 1449.79 1361.28
5418.54 1283.95 1320.83 1325.8 1391.22
5421.43 1372.65 1347.1 1398.08 1386.28
5424.31 1384.7 1362.31 1434.97 1412.08
5427.2 1329.57 1385.55 1403.18 1431.13
5430.08 1442.4 1399.21 1455.23 1442.12
5432.96 1425.66 1462.62 1467.95 1485.38
5435.85 1519.8 1440.58 1532.97 1508.53
5438.73 1376.27 1452.09 1524.66 1509.11
5441.61 1460.2 1444.33 1469.71 1495.94
5444.5 1496.51 1477.74 1493.46 1478.16
5447.38 1476.5 1504.09 1471.3 1495.05
5450.26 1539.27 1481.08 1520.4 1478.24
5453.15 1427.47 1463.18 1443.03 1485.07
5456.03 1422.79 1415.42 1491.78 1467.71
5458.91 1396.01 1412.84 1468.32 1485.21
5461.8 1419.72 1431.53 1495.54 1492.55
5464.68 1478.85 1464.88 1513.79 1504.68
5467.56 1496.07 1470.07 1504.71 1490.9
5470.44 1435.3 1487.76 1454.19 1487.44
5473.33 1531.91 1478.27 1503.41 1481.91
5476.21 1467.6 1432.2 1488.14 1468.01
5479.09 1297.1 1375.82 1412.47 1462.36
5481.97 1362.75 1348.3 1486.47 1450.96
5484.85 1385.05 1370.38 1453.93 1446.11
5487.74 1363.35 1454.89 1397.93 1458.59
5490.62 1616.28 1449.87 1523.91 1469.45
5493.5 1369.97 1510.91 1486.52 1511.55
5496.38 1546.47 1432.3 1524.22 1483.21
5499.26 1380.46 1414.64 1438.88 1485.49
5502.14 1316.99 1386.43 1493.37 1473.74
5505.03 1461.83 1435.87 1488.97 1499.68
5507.91 1528.79 1486.27 1516.71 1551.59
5510.79 1468.19 1510.9 1649.09 1550.23
5513.67 1535.73 1445.39 1484.89 1532.02
5516.55 1332.26 1481.03 1462.09 1513.07
5519.43 1575.09 1435.13 1592.23 1533.92
5522.31 1398.04 1540.46 1547.45 1581.97
5525.19 1648.24 1512.62 1606.25 1552.99
5528.07 1491.58 1513.64 1505.27 1523.7
5530.95 1401.1 1439.84 1459.57 1493.07
5533.83 1426.84 1416.13 1514.36 1510.49
5536.71 1420.45 1411.45 1557.55 1534.64
5539.59 1387.05 1419.48 1532 1523.3
5542.47 1450.94 1458.04 1480.33 1510.32
5545.35 1536.12 1441.39 1518.62 1505.89
5548.23 1337.12 1454.61 1518.73 1514.61
5551.11 1490.58 1434.3 1506.49 1505.32
5553.99 1475.21 1445.51 1490.74 1502.51
5556.87 1370.73 1458.46 1510.29 1523.39
5559.75 1529.45 1479.81 1569.13 1556.21
5562.63 1539.26 1544.8 1589.23 1616.17
5565.51 1565.68 1575.48 1690.15 1672.14
5568.39 1621.5 1589.78 1737.05 1743.48
5571.27 1582.16 1588.46 1803.24 1705.03
5574.15 1561.73 1640.17 1574.8 1663.81
5577.03 1776.61 1709.17 1613.39 1678.29
5579.91 1789.18 1675.3 1846.67 1700.82
5582.78 1460.11 1573.83 1642.4 1698.39
5585.66 1472.19 1477.53 1606.1 1607.14
5588.54 1500.28 1491.38 1572.93 1565.92
5591.42 1501.66 1439.53 1518.73 1530.66
5594.3 1316.66 1466.51 1500.31 1544.95
5597.18 1581.2 1466.08 1615.82 1556.91
5600.05 1500.38 1558.25 1554.58 1602
5602.93 1593.16 1576.09 1635.6 1630.54
5605.81 1634.72 1583.85 1701.44 1644.23
5608.69 1523.67 1572.87 1595.65 1629.29
5611.57 1560.23 1500.35 1590.79 1561.26
5614.44 1417.16 1488.94 1497.34 1558.68
5617.32 1489.43 1425.13 1587.91 1568.58
5620.2 1368.81 1497.34 1620.48 1625.67
5623.08 1633.79 1499.54 1668.62 1627.71
5625.95 1496.03 1570.79 1594.03 1613.68
5628.83 1582.54 1549.55 1578.38 1636.46
5631.71 1570.06 1592.99 1736.97 1676.36
5634.58 1626.38 1592.51 1713.74 1687.62
5637.46 1581.08 1625.76 1612.15 1655.32
5640.34 1669.82 1629.74 1640.08 1628.68
5643.21 1638.32 1622.65 1633.82 1621.99
5646.09 1559.83 1608.02 1592.05 1626.45
5648.97 1625.91 1579.56 1653.47 1619.28
5651.84 1552.93 1569.88 1612.33 1624.28
5654.72 1530.8 1546.54 1607.03 1611.7
5657.59 1555.89 1570.87 1615.75 1610.09
5660.47 1625.91 1586.35 1607.49 1627.13
5663.35 1577.25 1562.12 1658.16 1604.48
5666.22 1483.21 1539.71 1547.8 1594.13
5669.1 1558.67 1511.2 1576.42 1557.94
5671.97 1491.71 1520.28 1549.59 1598.74
5674.85 1510.45 1474.51 1670.2 1589.43
5677.72 1421.38 1449.39 1548.5 1608.3
5680.6 1416.35 1475.41 1606.18 1576.12
5683.47 1588.49 1528.92 1573.68 1577.96
5686.35 1581.92 1590.29 1554.02 1600.45
5689.22 1600.47 1584.75 1673.64 1636.54
5692.1 1571.85 1581.42 1681.97 1649.44
5694.97 1571.95 1585.33 1592.69 1653.99
5697.85 1612.18 1582.15 1687.3 1656.34
5700.72 1562.32 1584.59 1689.01 1678.49
5703.6 1579.27 1581.63 1659.17 1665.89
5706.47 1603.31 1593.92 1649.5 1663.77
5709.35 1599.2 1577.79 1682.64 1633.93
5712.22 1530.85 1610.78 1569.64 1668.28
5715.09 1702.29 1550.6 1752.57 1638.85
5717.97 1418.67 1589.54 1594.33 1683.84
5720.84 1647.65 1544.8 1704.6 1645.29
5723.71 1568.07 1582.24 1636.95 1668.57
5726.59 1530.99 1555.11 1664.15 1655.38
5729.46 1566.28 1543.52 1665.06 1642.45
5732.33 1533.29 1543.15 1598.16 1648.4
5735.21 1529.87 1569.46 1681.97 1643.68
5738.08 1645.22 1604.68 1650.91 1672.88
5740.95 1638.96 1601.84 1685.77 1662.21
5743.83 1521.33 1562.1 1649.96 1675.62
5746.7 1526.02 1511.57 1691.15 1667.3
5749.57 1487.34 1528.99 1660.79 1661.91
5752.44 1573.59 1548.94 1633.78 1655.33
5755.32 1585.87 1624.94 1671.41 1675.94
5758.19 1715.37 1634.4 1722.64 1716.57
5761.06 1601.96 1614.67 1755.67 1701.11
5763.93 1526.67 1588.54 1625.01 1663.8
5766.81 1636.98 1611.63 1610.73 1678.68
5769.68 1671.26 1611.89 1800.3 1688.15
5772.55 1527.44 1586.04 1653.41 1706.41
5775.42 1559.43 1549.48 1665.53 1682.81
5778.29 1561.57 1573.29 1729.47 1665.2
5781.16 1598.88 1579.12 1600.6 1645.8
5784.04 1576.91 1608.16 1607.34 1648.69
5786.91 1648.7 1608.8 1738.15 1663.57
5789.78 1600.78 1623.17 1645.23 1675.6
5792.65 1620.04 1622.61 1643.43 1644.38
5795.52 1647 1586.21 1644.47 1653.69
5798.39 1491.58 1596.12 1673.16 1663.34
5801.26 1649.76 1540.1 1672.39 1689.03
5804.13 1478.94 1583.27 1721.52 1674.94
5807 1621.12 1618.44 1630.91 1713.78
5809.87 1755.25 1650.81 1788.9 1716.52
5812.74 1576.07 1685.54 1729.74 1793.04
5815.61 1725.32 1686.75 1860.49 1782.26
5818.48 1758.88 1739.62 1756.56 1811.28
5821.35 1734.65 1719.51 1816.79 1761.63
5824.22 1665 1693.4 1711.54 1757.33
5827.09 1680.55 1675.8 1743.66 1727.83
5829.96 1681.84 1674.4 1728.3 1753.35
5832.83 1660.82 1631.58 1788.08 1764.96
5835.7 1552.07 1585.44 1778.49 1759.61
5838.57 1543.44 1563.39 1712.27 1742.55
5841.44 1594.66 1588.59 1736.9 1731.47
5844.31 1627.66 1620.54 1745.24 1750.7
5847.18 1639.29 1656.04 1769.94 1763.95
5850.05 1701.17 1686.95 1776.68 1756.07
5852.91 1720.4 1677.84 1721.57 1724.17
5855.78 1611.95 1687.85 1674.25 1742.63
5858.65 1731.19 1642.5 1832.08 1804.06
5861.52 1584.36 1679.06 1905.85 1845.58
5864.39 1721.63 1629.09 1798.83 1795.87
5867.26 1581.29 1654.33 1682.92 1739.27
5870.12 1660.06 1613.26 1736.05 1713.49
5872.99 1598.41 1640.28 1721.51 1757.28
5875.86 1662.36 1615.94 1814.28 1732.86
5878.73 1587.03 1647.32 1662.78 1759.97
5881.59 1692.57 1651.62 1802.85 1737.41
5884.46 1675.27 1744.07 1746.59 1820.65
5887.33 1864.37 1765.88 1912.51 1819.55
5890.2 1757.99 1654.32 1799.55 1801.08
5893.06 1340.58 1601.4 1691.16 1779.94
5895.93 1705.63 1529.97 1849.1 1740.99
5898.8 1543.7 1642.83 1682.73 1740.01
5901.66 1679.16 1627.27 1688.2 1690.04
5904.53 1658.94 1653.77 1699.2 1704.8
5907.4 1623.22 1669.03 1726.99 1734.52
5910.26 1724.93 1662.07 1777.36 1741.83
5913.13 1638.05 1668.52 1721.15 1763.77
5916 1642.59 1604.62 1792.81 1779.34
5918.86 1533.23 1637.19 1824.07 1829.94
5921.73 1735.75 1707.34 1872.93 1868.37
5924.59 1853.03 1803.95 1908.12 1874.22
5927.46 1823.08 1773.85 1841.61 1874.53
5930.32 1645.43 1698.49 1873.88 1831.15
5933.19 1626.95 1639.47 1777.95 1792.45
5936.06 1646.02 1626.81 1725.52 1763.77
5938.92 1607.46 1615.59 1787.85 1755.66
5941.79 1593.28 1556.26 1753.6 1754.36
5944.65 1468.04 1559.5 1721.62 1758.05
5947.52 1617.18 1603.8 1798.91 1786.32
5950.38 1726.18 1667.9 1838.42 1787.67
5953.24 1660.34 1692.16 1725.68 1775.83
5956.11 1689.94 1641.53 1763.38 1761.15
5958.97 1574.29 1661.55 1794.4 1802.93
5961.84 1720.42 1647.55 1851.02 1835.41
5964.7 1647.95 1681.45 1860.81 1839.24
5967.57 1675.99 1669.08 1805.88 1814.91
5970.43 1683.29 1648.48 1778.03 1771.74
5973.29 1586.16 1576.25 1731.31 1694.49
5976.16 1459.3 1477.14 1574.14 1597.57
5979.02 1385.95 1404.99 1487.26 1526.15
5981.88 1369.72 1377.82 1517.06 1548.61
5984.75 1377.8 1392.63 1641.51 1580.85
5987.61 1430.36 1453.32 1583.96 1630.78
5990.47 1551.79 1498.87 1666.87 1622.83
5993.34 1514.46 1574.86 1617.65 1666.11
5996.2 1658.32 1622.85 1713.8 1689.8
5999.06 1695.77 1676.3 1737.96 1768.48
6001.92 1674.82 1642.18 1853.69 1792.67
6004.79 1555.95 1623.21 1786.37 1802.06
6007.65 1638.86 1615.16 1766.14 1742.19
6010.51 1650.66 1660.31 1674.07 1741.16
6013.37 1691.41 1679.56 1783.26 1763.04
6016.23 1696.61 1712 1831.8 1810.02
6019.1 1747.98 1733.06 1815 1839.94
6021.96 1754.6 1679.14 1873.02 1817.75
6024.82 1534.83 1681.05 1765.22 1832.71
6027.68 1753.73 1637.43 1859.9 1805.39
6030.54 1623.72 1668.1 1791.05 1810.18
6033.4 1626.86 1636.02 1779.6 1786.15
6036.26 1657.46 1636.56 1787.8 1785.78
6039.13 1625.36 1651.2 1789.93 1789.81
6041.99 1670.78 1624.07 1791.71 1776.69
6044.85 1576.06 1658.68 1748.42 1788.39
6047.71 1729.21 1649.98 1825.05 1798.73
6050.57 1644.66 1742.92 1822.74 1860.82
6053.43 1854.89 1738.4 1934.66 1861.24
6056.29 1715.64 1749.71 1826.33 1837.31
6059.15 1678.61 1672.76 1750.94 1767.05
6062.01 1624.04 1657.37 1723.9 1745.06
6064.87 1669.45 1616.83 1760.35 1770.03
6067.73 1557 1600.94 1825.85 1788.06
6070.59 1576.35 1599.58 1777.97 1826.86
6073.45 1665.38 1635.49 1876.77 1816.16
6076.31 1664.74 1679.54 1793.74 1843.73
6079.17 1708.49 1671.67 1860.68 1827.72
6082.03 1641.79 1655.06 1828.74 1819.41
6084.88 1614.9 1619.95 1768.8 1785.76
6087.74 1603.17 1656.92 1759.72 1804.69
6090.6 1752.67 1679.39 1885.55 1800.6
6093.46 1682.33 1703.04 1756.51 1839.76
6096.32 1674.12 1674.8 1877.2 1803.52
6099.18 1667.95 1648.43 1776.85 1808.3
6102.04 1603.22 1625.75 1770.86 1800.87
6104.89 1606.08 1607.64 1854.89 1800.21
6107.75 1613.62 1646.32 1774.88 1826.64
6110.61 1719.27 1625.52 1850.15 1774.82
6113.47 1543.68 1655.78 1699.43 1779.14
6116.32 1704.39 1654.56 1787.83 1776.89
6119.18 1715.63 1704.16 1843.42 1819.16
6122.04 1692.47 1688.98 1826.23 1860.34
6124.9 1658.84 1699.91 1911.36 1863.17
6127.75 1748.42 1694.47 1851.91 1884.29
6130.61 1676.16 1731.23 1889.6 1878.65
6133.47 1769.12 1727.62 1894.43 1891.98
6136.32 1737.59 1742.7 1891.9 1869.24
6139.18 1721.4 1717.88 1821.37 1855.29
6142.04 1694.66 1656.59 1852.58 1838.4
6144.89 1553.71 1654.81 1841.24 1866.45
6147.75 1716.07 1661.74 1905.53 1873.63
6150.6 1715.43 1711.87 1874.11 1883.66
6153.46 1704.11 1673.72 1871.34 1861.08
6156.32 1601.61 1694.83 1837.79 1865.9
6159.17 1778.79 1661.85 1888.56 1837.04
6162.03 1605.17 1700.42 1784.78 1853.25
6164.88 1717.31 1688.73 1886.4 1843.25
6167.74 1743.72 1713.53 1858.57 1890.1
6170.59 1679.57 1717.97 1925.32 1866.07
6173.45 1730.62 1669.16 1814.32 1850.94
6176.3 1597.29 1674.28 1813.19 1836.71
6179.16 1694.94 1693.96 1882.62 1870.95
6182.01 1789.65 1735.75 1917.04 1890.33
6184.87 1722.67 1734.23 1871.32 1880.62
6187.72 1690.36 1679.4 1853.5 1822.19
6190.58 1625.16 1688.46 1741.76 1817.89
6193.43 1749.84 1664.08 1858.41 1787.92
6196.28 1617.24 1621.72 1763.6 1785.09
6199.14 1498.08 1604.62 1733.26 1778.96
6201.99 1698.52 1642.84 1840.01 1788.06
6204.84 1731.93 1697.75 1790.92 1815.25
6207.7 1662.79 1697.7 1814.81 1831.56
6210.55 1698.39 1614.76 1888.95 1828.8
6213.4 1483.1 1621.72 1782.64 1815.61
6216.26 1683.66 1638.77 1775.24 1810.57
6219.11 1749.54 1717.47 1873.83 1822.42
6221.96 1719.22 1641.35 1818.19 1806.51
6224.82 1455.28 1615.79 1727.53 1794.17
6227.67 1672.88 1598.99 1836.8 1773.35
6230.52 1668.8 1646.7 1755.73 1774.59
6233.37 1598.42 1665.48 1731.24 1756.02
6236.22 1729.21 1694.31 1781.09 1794.73
6239.08 1755.29 1714.38 1871.87 1821.68
6241.93 1658.63 1677.96 1812.09 1818.8
6244.78 1619.96 1635.7 1772.45 1790.02
6247.63 1628.5 1610.92 1785.52 1765.21
6250.48 1584.31 1547.71 1737.65 1727.77
6253.33 1430.33 1504.08 1660.14 1698.73
6256.19 1497.59 1436.98 1698.4 1677.94
6259.04 1383.01 1474.97 1675.3 1704.84
6261.89 1544.3 1510.87 1740.82 1717.48
6264.74 1605.29 1566.42 1736.32 1723.61
6267.59 1549.68 1598.36 1693.7 1733.95
6270.44 1640.11 1613.24 1771.84 1742.55
6273.29 1649.93 1623.94 1762.11 1766.6
6276.14 1581.79 1578.67 1765.84 1753.71
6278.99 1504.3 1547.76 1733.18 1734.39
6281.84 1557.18 1579.26 1704.14 1734.58
6284.69 1676.29 1598.84 1766.43 1707.89
6287.54 1563.07 1638.47 1653.11 1747.32
6290.39 1676.05 1624.31 1822.43 1727.63
6293.24 1633.82 1652.86 1707.36 1763.37
6296.09 1648.7 1669.57 1760.32 1747.01
6298.94 1726.2 1684.07 1773.34 1775.28
6301.79 1677.33 1647.09 1792.18 1765.33
6304.63 1537.75 1558.66 1730.46 1714.77
6307.48 1460.9 1520.8 1621.66 1679.7
6310.33 1563.74 1512.88 1686.97 1678.31
6313.18 1513.98 1523.35 1726.29 1685.56
6316.03 1492.32 1555.03 1643.42 1705.27
6318.88 1658.79 1593.59 1746.1 1709.63
6321.72 1629.67 1647.13 1739.37 1737.31
6324.57 1652.93 1660.15 1726.47 1755.6
6327.42 1697.86 1600.3 1800.97 1708.88
6330.27 1450.12 1571.28 1599.21 1700.79
6333.11 1565.86 1540.14 1702.19 1689.9
6335.96 1604.43 1590.34 1768.31 1747.8
6338.81 1600.71 1554.18 1772.9 1709.33
6341.66 1457.4 1559.36 1586.79 1687.69
6344.5 1619.98 1563.48 1703.39 1690.89
6347.35 1613.07 1603.83 1782.5 1720.68
6350.2 1578.43 1598.96 1676.14 1731.55
6353.04 1605.39 1610.75 1736 1704.05
6355.89 1648.44 1645.89 1700.02 1754.95
6358.74 1683.84 1664.71 1828.84 1790.73
6361.58 1661.84 1656.15 1843.33 1813.54
6364.43 1622.76 1632.37 1768.45 1781.94
6367.27 1612.52 1556.54 1734.03 1734.68
6370.12 1434.33 1572.69 1701.56 1755.69
6372.96 1671.21 1553.26 1831.49 1734.32
6375.81 1554.24 1615.56 1669.9 1714.01
6378.65 1621.21 1619.63 1640.63 1709.54
6381.5 1683.45 1612.32 1818.11 1739.75
6384.34 1532.3 1582.43 1760.51 1773.36
6387.19 1531.54 1559.99 1741.46 1725.4
6390.03 1616.13 1588.43 1674.22 1719.45
6392.88 1617.63 1577.5 1742.67 1723.66
6395.72 1498.76 1534.23 1754.09 1738.9
6398.57 1486.32 1565.5 1719.94 1758.18
6401.41 1711.43 1622.47 1800.52 1768.88
6404.26 1669.65 1659.42 1786.17 1792.18
6407.1 1597.18 1644.38 1789.85 1784.91
6409.94 1666.3 1621.28 1778.71 1785.62
6412.79 1600.35 1585.22 1788.31 1740.87
6415.63 1489.01 1578.72 1655.6 1756.06
6418.47 1646.79 1557.84 1824.28 1740.2
6421.32 1537.73 1643.91 1740.72 1824.57
6424.16 1747.21 1575.25 1908.7 1771.51
6427 1440.82 1606.92 1665.1 1788.52
6429.84 1632.75 1527.7 1791.76 1709.78
6432.69 1509.53 1609.08 1672.48 1733.85
6435.53 1684.95 1621.37 1737.31 1730.92
6438.37 1669.62 1647.14 1782.97 1749.32
6441.21 1586.85 1630.71 1727.68 1747.56
6444.06 1635.67 1564.01 1732.03 1712.9
6446.9 1469.51 1582.56 1678.98 1718.69
6449.74 1642.51 1526.02 1745.07 1737.34
6452.58 1466.05 1514.98 1787.96 1746.37
6455.42 1436.39 1518.11 1706.08 1752.15
6458.26 1651.89 1491.58 1762.4 1708.29
6461.1 1386.47 1500 1656.38 1716.42
6463.95 1461.65 1446.09 1730.47 1713.79
6466.79 1490.15 1513.5 1754.51 1750.31
6469.63 1588.69 1579.85 1765.94 1777.68
6472.47 1660.7 1648.81 1812.59 1779.95
6475.31 1697.04 1676.53 1761.31 1780.21
6478.15 1671.87 1700.03 1766.71 1780.79
6480.99 1731.19 1693.21 1814.35 1795.42
6483.83 1676.57 1687.87 1805.19 1800.55
6486.67 1655.83 1628.76 1782.11 1746.75
6489.51 1553.88 1588.86 1652.96 1705.45
6492.35 1556.87 1540.49 1681.27 1673.27
6495.19 1510.72 1587.03 1685.57 1722.07
6498.02 1693.5 1600.07 1799.36 1754.11
6500.86 1596 1652.04 1777.4 1784.13
6503.7 1666.61 1610 1775.63 1757.33
6506.54 1567.39 1605.33 1718.95 1709.65
6509.38 1581.99 1530.98 1634.37 1655.53
6512.22 1443.57 1520.82 1613.28 1622.56
6515.06 1536.91 1506.65 1620.03 1639.88
6517.89 1539.45 1551.19 1686.34 1682.99
6520.73 1577.21 1529.58 1742.6 1713.34
6523.57 1472.07 1596.12 1711.08 1760.4
6526.41 1739.08 1519.88 1827.51 1732.69
6529.25 1348.5 1578.4 1659.48 1757.89
6532.08 1647.62 1501.35 1786.67 1703.07
6534.92 1507.93 1549.04 1663.07 1714.73
6537.76 1491.56 1558.17 1694.44 1722.11
6540.59 1675.03 1598.76 1808.81 1743.71
6543.43 1629.68 1619 1727.88 1744.87
6546.27 1552.29 1590.7 1697.91 1697.02
6549.1 1590.15 1573.34 1665.26 1699.91
6551.94 1577.58 1566.42 1736.56 1687.27
6554.78 1531.54 1590.2 1659.98 1728.49
6557.61 1661.5 1591.02 1788.93 1719.54
6560.45 1580.03 1565.48 1709.72 1740.51
6563.28 1454.93 1562.18 1722.87 1726.22
6566.12 1651.58 1565.79 1746.09 1714.82
6568.96 1590.88 1596.87 1675.49 1691.62
6571.79 1548.17 1549.96 1653.28 1702.53
6574.63 1510.84 1579.67 1778.81 1743.05
6577.46 1679.99 1540.05 1797.06 1739.42
6580.3 1429.32 1567.16 1642.39 1714.59
6583.13 1592.17 1572.07 1704.33 1706.78
6585.97 1694.71 1563.07 1773.61 1711.13
6588.8 1402.34 1499.3 1655.46 1679.9
6591.63 1400.85 1441.85 1610.64 1642.33
6594.47 1522.36 1505.17 1660.91 1670.86
6597.3 1592.3 1562.3 1741.02 1684.88
6600.14 1572.23 1581.8 1652.72 1700.28
6602.97 1580.86 1594.39 1707.1 1706.11
6605.8 1630.08 1589.25 1758.51 1717.41
6608.64 1556.8 1638.2 1686.63 1753.86
6611.47 1727.72 1618.32 1816.44 1723.27
6614.3 1570.45 1670.13 1666.74 1795.75
6617.13 1712.23 1640.22 1904.08 1784.94
6619.97 1637.98 1646.78 1784.01 1815.13
6622.8 1590.15 1613.8 1757.29 1784.57
6625.63 1613.27 1604.83 1812.41 1767.26
6628.46 1611.08 1588.03 1732.1 1778.69
6631.3 1539.75 1618.77 1791.58 1772.92
6634.13 1705.48 1633.27 1795.08 1768.5
6636.96 1654.56 1702.56 1718.83 1805.49
6639.79 1747.63 1699.39 1902.56 1820.58
6642.62 1695.97 1740.92 1840.36 1911.13
6645.46 1779.17 1766.99 1990.46 1926.08
6648.29 1825.81 1792.05 1947.44 1946.44
6651.12 1771.15 1827.17 1901.41 1946.87
6653.95 1884.53 2007 1991.75 2136.5
6656.78 2365.33 2295.03 2516.33 2474.51
6659.61 2635.23 2589.43 2915.43 2819.47
6662.44 2767.72 2698.89 3026.65 2924.92
6665.27 2693.71 2573.8 2832.67 2756.65
6668.1 2259.97 2334.3 2410.63 2478.03
6670.93 2049.22 2055.23 2190.8 2201.58
6673.76 1856.49 1936.48 2003.3 2067.96
6676.59 1903.73 1913.51 2009.79 2068.56
6679.42 1980.31 1973.63 2192.6 2126.26
6682.25 2036.86 2028.81 2176.39 2192.19
6685.08 2069.25 2022.51 2207.58 2162.38
6687.91 1961.43 1922.01 2103.17 2071.89
6690.74 1735.35 1810.04 1904.92 1955.49
6693.56 1733.33 1733.3 1858.38 1873.15
6696.39 1731.23 1689.08 1856.16 1844.24
6699.22 1602.7 1672.63 1818.17 1813.92
6702.05 1683.96 1688.86 1767.44 1840.52
6704.88 1779.91 1686.14 1935.95 1819.13
6707.7 1594.55 1673.61 1754.01 1824.06
6710.53 1646.38 1660.03 1782.23 1780.09
6713.36 1739.18 1683.87 1804.03 1801.56
6716.19 1666.04 1699.48 1818.41 1823.84
6719.01 1693.23 1684.67 1849.08 1850.46
6721.84 1694.75 1708.48 1883.91 1866.04
6724.67 1737.47 1696.61 1865.15 1854.2
6727.5 1657.61 1702.94 1813.54 1836.95
6730.32 1713.75 1655.35 1832.15 1791
6733.15 1594.69 1640.12 1727.32 1752.79
6735.97 1611.9 1598.31 1698.9 1726.44
6738.8 1588.34 1636.67 1753.12 1754.89
6741.63 1709.75 1654.66 1812.67 1775.92
6744.45 1665.88 1630.22 1761.97 1766.77
6747.28 1515.02 1601.43 1725.67 1748.4
6750.1 1623.38 1566.88 1757.54 1728.68
6752.93 1562.25 1644.67 1702.83 1777.01
6755.75 1748.38 1653.51 1870.65 1782.04
6758.58 1649.9 1672.34 1772.64 1773.89
6761.4 1618.73 1667.02 1678.39 1768.89
6764.23 1732.43 1639.37 1855.65 1745.21
6767.05 1566.94 1658.16 1701.59 1797.22
6769.88 1675.12 1616.96 1834.4 1766.48
6772.7 1608.84 1655.25 1763.45 1786.4
6775.53 1681.78 1638.41 1761.34 1743.74
6778.35 1624.61 1659.12 1706.43 1742.06
6781.17 1670.96 1654.43 1758.39 1762.82
6784 1667.72 1669.36 1823.63 1804.06
6786.82 1669.41 1668.05 1830.17 1844.01
6789.64 1667.04 1654.91 1878.22 1825.28
6792.47 1628.3 1668.62 1767.44 1821.65
6795.29 1710.51 1689.34 1819.29 1799.85
6798.11 1729.21 1742.36 1812.83 1846.57
6800.94 1787.35 1715.85 1907.58 1817.81
6803.76 1630.98 1683.05 1733.01 1805.75
6806.58 1630.81 1648.88 1776.68 1757.63
6809.4 1684.84 1674 1763.2 1795.66
6812.22 1706.35 1704.58 1847.1 1853.04
6815.05 1722.56 1796.47 1948.81 1951.14
6817.87 1960.51 1830.86 2057.5 1976.17
6820.69 1809.52 1860.54 1922.2 1959.14
6823.51 1811.6 1796.44 1897.73 1907.77
6826.33 1768.19 1807.01 1903.39 1891.01
6829.15 1841.24 1673.03 1871.91 1846.94
6831.97 1409.67 1713.38 1765.52 1847.97
6834.79 1889.24 1707.1 1906.49 1852.66
6837.61 1822.38 1779.42 1885.97 1848.57
6840.43 1626.64 1671.55 1753.26 1778.77
6843.26 1565.62 1595.43 1697.1 1720.54
6846.08 1594.04 1579.4 1711.26 1689.39
6848.89 1578.53 1623.5 1659.81 1715.61
6851.71 1697.95 1586.62 1775.76 1705.73
6854.53 1483.4 1605.18 1681.63 1718.15
6857.35 1634.21 1576.64 1697.06 1694.46
6860.17 1612.3 1586.14 1704.71 1677.6
6862.99 1511.92 1429.83 1631.05 1582.72
6865.81 1165.27 1308.24 1412.39 1486.68
6868.63 1247.54 1247.05 1416.59 1400.52
6871.45 1328.35 1285.34 1372.58 1380.89
6874.27 1280.14 1246.17 1353.52 1355.63
6877.08 1130.03 1293.52 1340.78 1406.94
6879.9 1470.37 1356.18 1526.53 1471.11
6882.72 1468.14 1436.34 1546.02 1543.14
6885.54 1370.51 1404.11 1556.88 1537.69
6888.35 1373.68 1353.66 1510.16 1539.13
6891.17 1316.79 1397.03 1550.36 1524.02
6893.99 1500.62 1428.14 1511.53 1534.22
6896.81 1467 1470.73 1540.76 1518.84
6899.62 1444.56 1441.76 1504.23 1516.19
6902.44 1413.71 1439.31 1503.58 1527.04
6905.26 1459.64 1471.91 1573.3 1561.88
6908.07 1542.39 1485.63 1608.75 1609.98
6910.89 1454.87 1523.97 1647.9 1666.87
6913.7 1574.66 1510.27 1743.95 1675.98
6916.52 1501.28 1536.04 1636.1 1676.49
6919.34 1532.19 1451.32 1649.44 1611.19
6922.15 1320.48 1471.84 1548.04 1634.69
6924.97 1562.84 1468.99 1706.6 1618.25
6927.78 1523.64 1514 1600.11 1626.7
6930.6 1455.51 1515.84 1573.39 1593.89
6933.41 1568.38 1525.24 1608.16 1574.82
6936.23 1551.82 1545.3 1542.91 1589.15
6939.04 1515.72 1548.07 1616.37 1580.04
6941.86 1576.66 1536.3 1580.85 1613.86
6944.67 1516.53 1527.08 1644.36 1598.75
6947.48 1488.05 1471.17 1571.06 1576.32
6950.3 1408.92 1461.41 1513.55 1561.52
6953.11 1487.25 1458.14 1599.95 1570.66
6955.92 1478.26 1508.56 1598.47 1610.42
6958.74 1560.16 1531.65 1632.83 1622.89
6961.55 1556.51 1543.09 1637.39 1633.56
6964.36 1512.59 1507.61 1630.47 1631.39
6967.18 1453.73 1501.32 1626.3 1614.05
6969.99 1537.64 1477.73 1585.37 1616.37
6972.8 1441.83 1501.01 1637.42 1630.47
6975.61 1523.55 1476.34 1668.6 1659.39
6978.43 1463.63 1507.54 1672.16 1650.16
6981.24 1535.44 1496.91 1609.71 1640.02
6984.05 1491.65 1530.41 1638.21 1626.66
6986.86 1564.13 1503.85 1632.05 1619.04
6989.67 1455.77 1537.79 1586.85 1626.29
6992.48 1593.49 1528.14 1659.97 1618.43
6995.29 1535.16 1511.17 1608.47 1624.04
6998.11 1404.87 1494.85 1603.67 1619.46
7000.92 1544.53 1475.04 1646.24 1600.33
7003.73 1475.72 1498.74 1551.08 1580.2
7006.54 1475.97 1481.86 1543.29 1558.98
7009.35 1493.89 1479.53 1582.55 1581.65
7012.16 1468.72 1514.48 1619.12 1624.35
7014.97 1580.82 1495.48 1671.36 1626.5
7017.78 1436.91 1499.1 1589.01 1633.18
7020.59 1479.58 1465.46 1639.18 1613.37
7023.4 1479.9 1464.02 1611.91 1598.8
7026.2 1432.57 1490.5 1545.32 1590.57
7029.01 1559.03 1480.12 1614.47 1547.61
7031.82 1448.76 1499.86 1483.04 1550.8
7034.63 1491.79 1488.02 1554.89 1556.34
7037.44 1523.52 1486.35 1631.08 1569.59
7040.25 1443.74 1476.94 1522.8 1571.27
7043.06 1463.55 1476.56 1559.94 1558.22
7045.86 1522.41 1432.33 1591.91 1552.54
7048.67 1311.05 1457.56 1505.77 1555.57
7051.48 1539.21 1443.83 1569.03 1539.55
7054.29 1481.22 1488.26 1543.84 1553.14
7057.09 1444.36 1487.75 1546.54 1556.55
7059.9 1537.67 1488.36 1579.26 1544.44
7062.71 1483.03 1526.51 1507.53 1583.65
7065.51 1558.82 1508.93 1664.16 1576.6
7068.32 1484.94 1505.54 1558.11 1600.87
7071.13 1472.85 1454.34 1580.35 1553.41
7073.93 1405.24 1454.04 1521.76 1570.49
7076.74 1484.03 1472.96 1609.36 1602.42
7079.55 1529.6 1510.36 1676.14 1620.45
7082.35 1517.45 1490.81 1575.86 1613.54
7085.16 1425.37 1476.46 1588.63 1572.95
7087.96 1486.57 1459.59 1554.37 1573.18
7090.77 1466.81 1483.73 1576.55 1560.5
7093.57 1497.8 1469.23 1550.58 1562.48
7096.38 1443.07 1479.79 1560.3 1540.61
7099.18 1498.51 1454.12 1510.96 1521.82
7101.99 1420.8 1448.51 1494.2 1498.67
7104.79 1426.23 1430.07 1490.86 1514.78
7107.59 1443.18 1458.19 1559.28 1550.84
7110.4 1505.16 1421.53 1602.37 1521.9
7113.2 1316.26 1426.99 1404.04 1508.73
7116 1459.55 1416.73 1519.77 1482.93
7118.81 1474.39 1477.75 1524.97 1533.68
7121.61 1499.29 1465.95 1556.3 1529.24
7124.41 1424.15 1461.77 1506.44 1529.16
7127.22 1461.86 1388.71 1524.75 1490.07
7130.02 1280.12 1417.98 1439.03 1507.86
7132.82 1511.95 1411.29 1559.8 1509.23
7135.62 1441.8 1498.12 1528.85 1542.96
7138.43 1540.62 1484.2 1540.23 1545.68
7141.23 1470.17 1486.85 1567.98 1541.08
7144.03 1449.75 1397.49 1515.04 1509.57
7146.83 1272.54 1354.25 1445.69 1462.17
7149.63 1340.47 1367.64 1425.8 1461.02
7152.43 1489.91 1472.38 1511.57 1531.92
7155.24 1586.77 1486.3 1658.41 1557.32
7158.04 1382.23 1509.32 1501.99 1567.88
7160.84 1558.96 1419.66 1543.23 1494.68
7163.64 1317.8 1410.97 1438.83 1453.34
7166.44 1356.16 1327 1377.97 1385.29
7169.24 1307.05 1314.96 1339.09 1364.56
7172.04 1281.66 1271.49 1376.64 1315.82
7174.84 1225.76 1247.99 1231.73 1301.09
7177.64 1236.56 1241.15 1294.89 1272.37
7180.44 1261.14 1251.41 1290.49 1298.27
7183.24 1256.54 1238.86 1309.44 1261.21
7186.03 1198.9 1235.93 1183.71 1259.32
7188.83 1252.34 1206.75 1284.82 1222.23
7191.63 1169 1203.49 1198.17 1228.78
7194.43 1189.12 1186.08 1203.36 1212.16
7197.23 1200.11 1183.74 1234.94 1225.48
7200.03 1162 1257.8 1238.13 1294.82
7202.82 1411.29 1268.06 1411.4 1316.43
7205.62 1230.89 1281.92 1299.76 1324.17
7208.42 1203.58 1285.74 1261.35 1342.6
7211.22 1422.75 1317.9 1466.67 1369.1
7214.01 1327.39 1376.83 1379.27 1421.64
7216.81 1380.35 1345.23 1418.96 1399.4
7219.61 1327.95 1340.91 1399.96 1367.63
7222.4 1314.43 1314.6 1283.97 1349.76
7225.2 1301.43 1289.75 1365.35 1316.51
7228 1253.4 1253.95 1300.21 1302.59
7230.79 1207.03 1265.73 1242.22 1273.97
7233.59 1336.76 1338.13 1279.48 1283.07
7236.38 1470.62 1357 1327.49 1258.84
7239.18 1263.62 1318.19 1169.54 1225.18
7241.98 1220.34 1244.66 1178.51 1179.99
7244.77 1250.03 1216.9 1191.92 1225.26
7247.57 1180.34 1169.61 1305.34 1215.12
7250.36 1078.47 1109.98 1148.09 1250.97
7253.16 1071.12 1132.91 1299.48 1221.86
7255.95 1249.15 1156.23 1217.99 1224.82
7258.74 1148.41 1201.85 1156.99 1208.96
7261.54 1207.99 1161.81 1251.91 1208.14
7264.33 1129.04 1104.49 1215.53 1195.8
7267.13 976.457 1064.76 1119.94 1187.14
7269.92 1088.77 1038.35 1225.95 1166.34
7272.71 1049.83 1104.42 1153.12 1203.53
7275.51 1174.65 1149.1 1231.53 1218.51
7278.3 1222.8 1146.88 1270.88 1252.38
7281.09 1043.2 1074.55 1254.73 1280.1
7283.88 957.653 1073.58 1314.69 1274.56
7286.68 1219.9 1130.29 1254.26 1278.96
7289.47 1213.33 1243.09 1267.94 1278.1
7292.26 1296.03 1228.01 1312.11 1261.1
7295.05 1174.66 1258.92 1203.25 1258.06
7297.84 1306.08 1236.48 1258.83 1212.27
7300.63 1228.71 1250.33 1174.74 1218.13
7303.43 1216.19 1200.88 1220.82 1183.95
7306.22 1157.74 1185.06 1156.28 1197.28
7309.01 1181.25 1106.97 1214.72 1178.91
7311.8 981.932 1123.09 1165.74 1195.29
7314.59 1206.1 1148.8 1205.41 1219.97
7317.38 1258.36 1231.12 1288.76 1277.11
7320.17 1228.91 1275.45 1337.17 1331.36
7322.96 1339.08 1293.09 1368.16 1340.57
7325.75 1311.29 1306.34 1316.36 1307.92
7328.54 1268.64 1285.22 1239.23 1294.95
7331.33 1275.72 1327.09 1329.25 1310.36
7334.12 1436.9 1205.6 1362.6 1286.79
7336.91 904.174 1220.23 1168.53 1285.18
7339.7 1319.62 1029.35 1324.43 1256.89
7342.48 864.247 1149.91 1277.72 1319.19
7345.27 1265.87 1091.07 1355.44 1322.08
7348.06 1143.1 1226.32 1333.08 1316.76
7350.85 1269.99 1224.9 1261.75 1259.8
7353.64 1261.62 1279.08 1184.55 1246.82
7356.42 1305.63 1271.84 1294.15 1255.09
7359.21 1248.29 1257.43 1286.56 1246.9
7362 1218.36 1162.09 1159.98 1238.94
7364.79 1019.63 1189.75 1270.28 1219.73
7367.57 1331.25 1216.46 1228.94 1271.13
7370.36 1298.49 1295.94 1314.17 1292.19
7373.15 1258.07 1204.67 1333.46 1291.21
7375.93 1057.45 1195.64 1226.01 1287.44
7378.72 1271.42 1188.71 1302.85 1264.34
7381.5 1237.26 1212.96 1264.16 1269.08
7384.29 1130.19 1225.67 1240.24 1247.66
7387.08 1309.55 1258.45 1238.59 1241.7
7389.86 1335.62 1278.3 1246.27 1235.9
7392.65 1189.72 1258.95 1222.83 1227.96
7395.43 1251.5 1242.68 1214.79 1232.77
7398.22 1286.83 1238.55 1260.71 1223.49
7401 1177.31 1284.19 1194.98 1266.99
7403.78 1388.42 1308.27 1345.29 1281.29
7406.57 1359.07 1349.79 1303.59 1307.41
7409.35 1301.9 1304.27 1273.33 1264.58
7412.14 1251.85 1259.73 1216.81 1225.86
7414.92 1225.42 1227.46 1187.44 1211.96
7417.7 1205.11 1246.26 1231.62 1223.51
7420.49 1308.25 1250.98 1251.48 1223.53
7423.27 1239.59 1277.76 1187.49 1226.79
7426.05 1285.44 1262.47 1241.41 1203.15
7428.84 1262.37 1296.11 1180.56 1248.02
7431.62 1340.51 1290.12 1322.1 1241.89
7434.4 1267.47 1305.03 1223 1259.08
7437.18 1307.12 1331.29 1232.14 1250
7439.96 1419.28 1333.22 1294.86 1259.03
7442.75 1273.24 1308.72 1250.1 1283.98
7445.53 1233.65 1273.29 1306.97 1272.56
7448.31 1313 1306.31 1260.62 1284.2
7451.09 1372.27 1290.77 1285 1255.42
7453.87 1187.04 1306.13 1220.63 1253.8
7456.65 1359.08 1274.34 1255.76 1234.86
7459.43 1276.9 1306.49 1228.19 1235.08
7462.21 1283.48 1309.88 1221.3 1244.1
7464.99 1369.26 1348.96 1282.82 1266.73
7467.77 1394.15 1327.08 1296.06 1229.21
7470.55 1217.82 1257.1 1108.74 1210.78
7473.33 1159.33 1244.97 1227.54 1210.48
7476.11 1357.75 1280.75 1295.15 1247.77
7478.89 1325.18 1347.7 1220.62 1261.44
7481.67 1360.17 1249.49 1268.54 1235.15
7484.45 1063.13 1225.11 1216.28 1242.38
7487.23 1252.03 1208.41 1242.33 1255.77
7490 1310.06 1268.53 1308.71 1236.65
7492.78 1243.49 1241.8 1158.92 1221.99
7495.56 1171.84 1196.22 1198.35 1174.66
7498.34 1173.34 1192.58 1166.72 1198.47
7501.12 1232.55 1232.75 1230.33 1204.54
7503.89 1292.38 1234.61 1216.56 1215.13
7506.67 1178.89 1251.51 1198.5 1233.01
7509.45 1283.27 1201.51 1283.98 1222.34
7512.22 1142.37 1245.27 1184.54 1231.88
7515 1310.17 1201.43 1227.12 1206.19
7517.78 1151.74 1246.85 1206.9 1219.65
7520.55 1278.64 1249.72 1224.94 1199.63
7523.33 1318.77 1229.15 1167.04 1188.59
7526.1 1090.04 1251.46 1173.79 1219.12
7528.88 1345.58 1193.1 1316.54 1234.5
7531.66 1143.69 1242.3 1213.19 1248.16
7534.43 1237.62 1144.42 1214.75 1171.09
7537.21 1051.96 1164.5 1085.34 1157.16
7539.98 1203.93 1157.64 1171.39 1136.62
7542.75 1217.03 1173.17 1153.11 1161.96
7545.53 1098.54 1158.46 1161.38 1154.51
7548.3 1159.8 1156.95 1149.03 1147.46
7551.08 1212.5 1179.2 1131.97 1130.1
7553.85 1165.31 1192.79 1109.31 1124.29
7556.62 1200.56 1202.24 1131.59 1124.96
7559.4 1240.87 1237.5 1133.98 1172.91
7562.17 1271.09 1229.33 1253.14 1184.84
7564.94 1176.04 1192.29 1167.4 1206.45
7567.72 1129.74 1185.91 1198.82 1166.36
7570.49 1251.94 1205.54 1132.88 1152.68
7573.26 1234.93 1219.56 1126.35 1149.15
7576.03 1171.79 1182.17 1188.23 1136.92
7578.81 1139.78 1170.73 1096.17 1157.59
7581.58 1200.6 1176.28 1188.36 1135.23
7584.35 1188.46 1175.35 1121.14 1138.77
7587.12 1136.99 1111.54 1106.8 1080.64
7589.89 1009.18 972.615 1013.98 977.661
7592.66 771.674 752.549 812.201 783.341
7595.43 476.798 573.916 523.842 592.414
7598.2 473.276 437.14 441.198 427.736
7600.97 361.345 378.362 318.167 349.4
7603.74 300.464 346.232 288.835 317.177
7606.51 376.886 355.888 344.529 342.428
7609.28 390.315 457.275 393.919 424.615
7612.05 604.624 590.669 535.397 561.26
7614.82 777.069 731.156 754.465 670.319
7617.59 811.776 785.135 721.095 729.831
7620.36 766.562 777.322 713.935 710.557
7623.13 753.627 724.314 696.643 668.816
7625.9 652.752 689.969 595.87 623.239
7628.67 663.528 643.756 577.205 597.779
7631.43 614.988 647.946 620.261 596.406
7634.2 665.322 660.787 591.751 622.813
7636.97 702.051 722.83 656.426 661.283
7639.74 801.117 741.428 735.673 695.541
7642.5 721.117 780.538 694.524 727.792
7645.27 819.379 789.229 753.178 728.792
7648.04 827.192 826.171 738.673 769.376
7650.81 831.942 855.855 816.278 814.722
7653.57 908.429 903.631 889.216 868.736
7656.34 970.523 962.485 900.715 909.812
7659.1 1008.5 1007.57 939.505 934.836
7661.87 1043.7 1021.49 964.288 938.811
7664.64 1012.26 1008.54 912.641 953.661
7667.4 969.664 1033.84 984.052 976.101
7670.17 1119.59 1052.04 1031.61 995.365
7672.93 1066.86 1103.8 970.432 1005.64
7675.7 1124.96 1088.49 1014.88 979.722
7678.46 1073.65 1115.87 953.851 992.142
7681.23 1148.99 1093.39 1007.69 986.79
7683.99 1057.51 1080.23 998.829 997.274
7686.75 1034.18 1111.93 985.301 1014.1
7689.52 1244.1 1094.12 1058.17 1006.57
7692.28 1004.08 1095.69 976.236 1002.1
7695.04 1038.88 1048.95 971.904 989.835
7697.81 1103.88 1068.59 1021.36 997.816
7700.57 1063 1050.36 1000.18 980.914
7703.33 984.185 1059.07 921.196 978.035
7706.1 1130.03 1117.08 1012.73 987.065
7708.86 1237.02 1170.86 1027.27 990.066
7711.62 1145.53 1202.93 930.196 981.092
7714.38 1226.25 1157.3 985.809 955.682
7717.14 1100.12 1096.65 951.041 967.959
7719.9 963.572 1037.81 967.026 966.385
7722.67 1049.74 1008.22 981.088 964.007
7725.43 1011.33 1035.06 943.905 973.66
7728.19 1044.1 1038.84 995.987 965.861
7730.95 1061.08 1073.66 957.689 980.429
7733.71 1115.81 1085.69 987.611 973.633
7736.47 1080.19 1090.82 975.6 972.409
7739.23 1076.45 1019.59 954.017 966.556
7741.99 902.122 1064.79 970.05 950.843
7744.75 1215.81 1047.63 928.464 930.473
7747.51 1024.96 1012.49 892.905 915.803
7750.27 796.682 938.067 926.042 948.759
7753.03 992.553 960.415 1027.33 973.134
7755.79 1092.01 961.708 966.029 1002.47
7758.54 800.561 958.473 1014.06 985.624
7761.3 982.848 926.135 976.778 992.635
7764.06 994.997 1019.47 987.062 983.534
7766.82 1080.55 1033.76 986.762 995.257
7769.58 1025.73 1056.5 1011.95 979.112
7772.33 1063.2 1051.02 938.627 945.09
7775.09 1064.14 1027.8 884.695 881.046
7777.85 956.055 983.408 819.815 861.451
7780.6 930.033 944.623 879.845 865.475
7783.36 947.78 956.951 896.765 893.911
7786.12 993.041 1011.88 905.123 902.33
7788.87 1094.83 956.797 905.101 889.15
7791.63 782.524 1000.39 857.225 912.641
7794.39 1123.83 970.059 975.597 911.857
7797.14 1003.82 1034.19 902.749 928.096
7799.9 974.903 967.806 905.942 922.224
7802.65 924.692 917.815 957.981 891.143
7805.41 853.849 920.987 809.507 889.958
7808.16 984.421 884.862 902.387 886.786
7810.92 816.315 864.864 948.463 892.594
7813.67 793.857 780.403 826.931 858.13
7816.42 731.038 784.22 798.997 837.484
7819.18 827.765 872.34 886.524 854.051
7821.93 1058.22 870.885 876.63 896.144
7824.69 726.674 911.337 925.277 879.439
7827.44 949.123 868.249 836.41 885.341
7830.19 928.948 943.264 894.336 879.047
7832.94 951.721 926.153 906.396 881.431
7835.7 897.788 940.98 843.56 886.711
7838.45 973.431 957.299 910.176 887.81
7841.2 1000.68 1009.97 909.694 913.499
7843.95 1055.8 1034.34 920.628 916.315
7846.71 1046.56 1066.91 918.623 908.736
7849.46 1098.39 1035.26 886.958 892.726
7852.21 960.823 947.862 872.598 843.384
7854.96 784.372 895.789 770.595 803.918
7857.71 942.172 885.958 768.562 782.724
7860.46 931.33 924.646 809.015 811.163
7863.21 900.436 913.601 855.912 824.58
7865.96 909.037 868.793 808.813 815.359
7868.71 796.908 874.312 781.351 804.861
7871.46 916.99 940.206 824.418 837.712
7874.21 1106.72 967.485 907.367 854.346
7876.96 878.744 959.566 831.254 867.178
7879.71 893.234 827.759 862.914 856.966
7882.46 711.3 844.358 876.73 825.894
7885.21 928.54 893.507 738.039 839.877
7887.96 1040.68 968.283 904.862 791.117
7890.7 935.628 941.886 730.452 825.209
7893.45 849.349 833.583 840.313 789.394
7896.2 715.773 797.141 797.418 825.718
7898.95 826.301 805.125 839.421 824.208
7901.7 873.301 859.638 835.786 813.21
7904.44 879.311 803.778 764.423 772.324
7907.19 658.721 762.029 716.762 777.033
7909.94 748.054 751.59 849.915 765.689
7912.68 847.996 896.029 730.389 796.469
7915.43 1092.04 1003.74 809.104 814.661
7918.18 1071.2 1029.6 904.489 830.12
7920.92 925.565 989.079 776.768 874.069
7923.67 970.476 945.096 940.949 855.723
7926.41 939.247 958.405 849.451 857.875
7929.16 965.493 885.173 783.225 832.618
7931.9 750.779 904.302 865.177 837.111
7934.65 996.634 880.208 862.93 844.236
7937.39 893.212 919.655 804.602 823.991
7940.14 869.119 887.641 804.441 787.279
7942.88 900.592 899.086 752.793 790.091
7945.62 927.546 925.505 813.038 776.259
7948.37 948.377 884.455 762.947 769.755
7951.11 777.442 865.008 733.279 755.282
7953.85 869.206 798.493 769.619 768.681
7956.6 748.832 853.33 803.145 789.501
7959.34 941.951 807.321 795.739 783.191
7962.08 731.179 866.98 750.689 769.566
7964.83 927.808 795.191 762.271 734.998
7967.57 726.584 853.292 692.036 749.13
7970.31 905.483 828.937 793.085 739.262
7973.05 854.744 910.279 732.665 753.524
7975.79 970.609 919.105 734.823 755.197
7978.53 931.963 946.192 798.103 778.379
7981.28 936.005 827.561 802.21 770.426
7984.02 614.714 820.289 710.964 767.794
7986.76 910.148 857.252 790.207 743.299
7989.5 1046.89 994.859 728.727 735.398
7992.24 1027.53 970.669 687.261 714.52
7994.98 837.579 897.347 727.571 715.714
7997.72 826.929 833.55 732.31 735.721
8000.46 836.141 829.9 747.282 735.342
8003.2 826.63 836.412 726.433 737.263
8005.93 846.465 848.47 738.073 729.613
8008.67 872.315 882.654 724.333 746.59
8011.41 929.18 836.503 777.366 747.251
8014.15 708.014 787.141 740.054 734.223
8016.89 724.229 769.379 685.25 722.244
8019.63 875.895 792.633 741.429 692.147
8022.36 777.776 891.253 649.763 719.125
8025.1 1020.09 894.022 766.184 703.16
8027.84 884.201 915.171 693.533 752.136
8030.58 841.223 785.272 796.691 716.002
8033.31 630.393 754.4 657.783 718.683
8036.05 791.583 745.477 701.576 687.425
8038.79 814.456 798.081 702.918 714.86
8041.52 788.204 815.729 740.086 716.442
8044.26 844.527 800.939 706.321 716.183
8046.99 770.085 812.412 702.141 693.405
8049.73 822.622 801.796 671.755 712.684
8052.46 812.682 805.482 764.157 724.893
8055.2 781.141 765.753 738.768 726.619
8057.93 703.435 772.256 676.933 673.438
8060.67 832.192 789.276 604.613 660.228
8063.4 832.202 791.84 699.138 680.573
8066.14 711.126 800.995 737.968 729.29
8068.87 859.658 798.984 750.766 742.363
8071.6 826.167 844.222 738.354 734.822
8074.34 846.841 830.641 715.345 708.821
8077.07 818.916 833.428 672.763 695.497
8079.8 834.526 837.539 698.381 713.095
8082.54 859.175 823.026 768.14 743.636
8085.27 775.376 827.224 764.385 755.89
8088 847.121 839.587 735.146 758.733
8090.73 896.265 872.404 776.668 742.172
8093.47 873.827 869.157 714.703 733.525
8096.2 837.381 835.823 709.203 705.237
8098.93 796.262 791.132 691.804 690.355
8101.66 739.754 761.913 670.059 683.504
8104.39 749.724 764.321 688.65 679.722
8107.12 803.485 765.896 680.456 676.293
8109.85 744.48 793.481 659.774 676.495
8112.58 832.477 781.846 689.254 666.599
8115.31 768.58 822.582 650.77 690.74
8118.04 866.687 799.003 732.196 674.348
8120.77 761.743 808.538 640.077 671.752
8123.5 797.185 789.179 642.984 647.958
8126.23 808.608 779.206 660.812 647.924
8128.96 731.825 791.249 639.977 658.093
8131.69 833.313 766.355 673.49 646.498
8134.42 733.928 788.163 626.027 643.823
8137.14 797.247 752.764 631.951 616.949
8139.87 727.117 755.293 592.87 613.589
8142.6 741.515 723.093 615.944 597.384
8145.33 700.648 742.235 583.337 615.112
8148.05 784.542 723.229 646.055 617.996
8150.78 684.497 719.572 624.597 620.333
8153.51 689.678 683.492 590.346 593.343
8156.24 676.301 700.533 565.088 583.247
8158.96 735.621 702.083 594.307 585.706
8161.69 694.327 705.338 597.724 585.587
8164.41 686.066 701.172 564.731 583.176
8167.14 723.124 707.505 587.073 571.143
8169.86 713.324 720.891 561.626 578.8
8172.59 726.226 692.459 587.701 574.819
8175.31 637.827 681.95 575.129 592.713
8178.04 681.796 697.339 615.31 605.86
8180.76 772.395 712.053 627.14 607.448
8183.49 681.968 701.993 579.895 584.255
8186.21 651.617 672.307 545.729 560.689
8188.94 683.336 682.348 556.442 570.61
8191.66 712.092 702.005 609.659 581.511
8194.38 710.588 711.728 578.43 588.252
8197.11 712.503 709.475 576.668 590.967
8199.83 705.334 719.319 617.802 608.612
8202.55 740.119 735.287 631.365 609.391
8205.27 760.408 738.022 579.006 594.256
8208 713.538 734.913 572.396 588.304
8210.72 730.794 710.383 613.51 584.295
8213.44 686.816 727.558 566.978 597.733
8216.16 765.064 704.698 612.71 575.409
8218.88 662.213 703.422 546.54 555.265
8221.6 682.989 656.368 506.546 526.135
8224.32 623.902 610.957 525.319 483.55
8227.05 525.98 597.485 418.786 480.904
8229.77 642.573 627.456 498.606 492.329
8232.49 713.816 694.713 559.596 540.234
8235.21 727.749 727.196 562.499 564.99
8237.93 740.022 784.511 572.875 587.321
8240.64 885.762 814.786 626.591 608.241
8243.36 818.574 805.788 625.258 624.839
8246.08 713.03 758.318 622.669 622.023
8248.8 743.35 721.084 618.141 609.838
8251.52 706.871 714.086 588.705 585.443
8254.24 692.037 705.114 549.482 573.278
8256.96 716.434 714.33 581.646 568.468
8259.67 734.519 739.772 574.275 579.143
8262.39 768.362 740.637 581.507 578.036
8265.11 719.031 742.023 578.326 585.144
8267.83 738.676 737.153 595.6 600.583
8270.54 753.752 736.858 627.822 603.837
8273.26 718.147 746.108 588.089 605.572
8275.98 766.424 742.326 600.804 575.363
8278.69 742.406 714.102 537.194 531.324
8281.41 633.477 712.429 455.974 514.198
8284.12 761.404 682.19 549.425 508.431
8286.84 651.69 716.336 519.893 558.285
8289.55 735.914 695.267 605.537 581.876
8292.27 698.198 612.561 620.198 584.9
8294.98 403.571 630.156 528.964 590.556
8297.7 788.697 681.561 622.507 600.262
8300.41 852.416 772.789 649.314 621.829
8303.13 677.254 758.302 593.667 636.401
8305.84 745.235 727.647 666.222 615.768
8308.55 760.451 721.623 587.415 621.351
8311.27 659.184 724.128 610.416 596.354
8313.98 752.75 709.036 591.231 577.727
8316.69 715.175 720.703 531.534 566.942
8319.4 694.184 704.235 578.062 570.405
8322.12 703.347 708.161 601.62 590.806
8324.83 726.953 709.331 592.735 599.82
8327.54 697.694 723.684 605.105 593.958
8330.25 746.406 695.329 584.035 571.106
8332.96 641.888 665.319 524.179 551.308
8335.67 607.664 632.602 545.709 539.056
8338.39 648.254 673.727 547.279 505.176
8341.1 765.265 706.351 422.541 485.449
8343.81 705.535 789.899 486.525 516.742
8346.52 898.896 576.796 641.159 578.959
8349.23 125.957 574.638 609.192 642.201
8351.94 699.062 489.92 676.252 573.703
8354.65 644.741 687.56 435.665 589.84
8357.35 718.877 670.826 657.604 545.622
8360.06 648.862 690.508 543.597 578.341
8362.77 703.784 725.839 533.822 551.473
8365.48 824.871 749.393 576.998 587.022
8368.19 719.523 757.219 650.245 612.221
8370.9 727.261 738.593 609.42 628.073
8373.6 768.994 704.155 624.555 605.909
8376.31 616.211 747.679 583.754 601.935
8379.02 857.834 749.097 597.496 566.137
8381.73 773.248 822.134 517.161 547.054
8384.43 835.321 776.744 526.506 530.448
8387.14 721.664 751.359 547.676 552.388
8389.85 697.091 725.688 582.981 581.084
8392.55 758.309 794.406 612.596 604.743
8395.26 927.818 858.917 618.651 597.784
8397.96 890.624 764.356 562.105 562.354
8400.67 474.625 713.838 506.304 556.301
8403.37 776.266 633.645 600.495 555.698
8406.08 650.044 725.128 560.294 577.098
8408.78 749.074 740.517 570.506 561.102
8411.49 822.433 723.159 552.507 552.208
8414.19 597.971 709.916 533.611 532.134
8416.9 709.344 617.569 510.285 531.096
8419.6 545.392 655.776 549.391 553.014
8422.3 712.592 586.775 599.366 547.284
8425.01 502.34 702.846 493.095 547.24
8427.71 893.606 714.852 549.26 512.93
8430.41 748.61 840.728 496.436 530.605
8433.11 879.969 779.996 546.121 517.766
8435.82 711.41 765.814 510.742 544.974
8438.52 706.062 704.327 578.06 542.636
8441.22 695.509 680.618 539.106 555.971
8443.92 640.282 660.857 550.747 556.738
8446.62 646.781 633.957 580.36 550.795
8449.32 614.809 650.703 521.28 554.808
8452.02 690.52 675.167 562.784 551.492
8454.72 720.172 692.459 570.411 587.46
8457.42 666.685 675.333 629.184 577.484
8460.12 639.143 630.908 532.857 543.612
8462.82 586.897 630.326 468.794 488.869
8465.52 664.939 508.714 464.956 470.599
8468.22 274.306 525.126 478.047 491.081
8470.92 636.134 527.626 530.24 524.674
8473.62 672.438 631.311 565.735 543.645
8476.32 585.36 648.862 534.959 569.897
8479.02 688.787 655.148 608.996 555.024
8481.71 691.296 676.825 521.118 547.153
8484.41 650.393 687.421 511.345 530.589
8487.11 720.574 700.774 559.303 549.75
8489.81 731.356 715.678 578.602 548.164
8492.5 695.102 704.046 506.587 534.579
8495.2 685.68 653.05 518.548 502.987
8497.9 578.366 618.08 483.826 522.488
8500.59 590.192 656.339 565.088 526.355
8503.29 800.459 636.174 530.151 533.556
8505.99 517.871 688.406 505.43 524.468
8508.68 746.887 592.89 537.823 496.326
8511.38 513.912 660.695 445.724 502.222
8514.07 721.286 655.829 523.119 524.441
8516.77 732.289 705.507 604.481 547.079
8519.46 662.946 698.333 513.636 555.153
8522.16 699.764 688.391 547.341 536.711
8524.85 702.465 685.348 549.156 541.003
8527.54 653.816 688.171 526.514 537.364
8530.24 708.234 714.008 536.421 545.037
8532.93 779.976 737.252 572.175 563.178
8535.62 723.547 756.942 580.937 567.967
8538.32 767.305 729.75 550.79 550.928
8541.01 698.4 733.108 521.056 532.589
8543.7 733.619 726.037 525.922 541.263
8546.39 746.091 705.886 576.811 551.381
8549.08 637.948 694.048 551.41 566.944
8551.78 698.107 666.953 572.611 549.411
8554.47 664.804 686.542 524.213 536.673
8557.16 696.714 691.364 513.196 521.252
8559.85 712.574 709.919 526.347 531.909
8562.54 720.469 699.906 556.184 531.824
8565.23 666.673 681.508 512.942 529.646
8567.92 657.38 698.558 519.812 537.502
8570.61 771.62 720.069 579.752 541.146
8573.3 731.206 740.367 523.874 541.516
8575.99 718.274 709.196 520.921 519.704
8578.68 678.108 697.854 514.318 517.302
8581.37 697.179 679.74 516.668 524.794
8584.05 663.933 703.412 543.397 528.965
8586.74 749.123 732.723 526.832 550.452
8589.43 785.113 763.654 581.128 561.651
8592.12 756.727 749.426 576.994 571.833
8594.81 706.438 701.181 557.377 548.644
8597.49 640.379 702.121 511.561 536.754
8600.18 759.547 705.097 541.324 531.991
8602.87 715.365 723.178 543.086 533.113
8605.55 694.622 680.127 514.927 514.191
8608.24 630.394 685.065 484.559 510.081
8610.93 730.18 692.427 530.757 508.24
8613.61 716.706 743.501 509.404 524.904
8616.3 783.617 751.022 534.551 544.826
8618.98 752.744 732.253 590.523 536.22
8621.67 660.397 737.368 483.586 537.787
8624.35 798.962 703.209 539.251 506.843
8627.04 650.267 724.341 497.69 508.482
8629.72 723.793 687.888 488.504 493.242
8632.41 689.605 686.486 493.533 496.043
8635.09 646.059 727.257 506.092 535.338
8637.77 846.107 746.576 606.391 561.503
8640.46 747.561 754.884 572.026 570.174
8643.14 670.982 717.747 532.106 539.561
8645.82 734.697 679.844 514.55 503.819
8648.5 633.851 727.304 464.802 527.407
8651.19 813.362 704.44 602.867 527.461
8653.87 666.105 733.011 514.713 558.766
8656.55 719.565 665.955 558.718 534.162
8659.23 612.194 688.416 529.056 546.936
8661.91 733.488 640.265 553.033 529.402
8664.59 575.114 622.082 506.115 522.126
8667.27 557.646 590.579 507.229 490.002
8669.95 638.979 610.524 456.661 485.731
8672.63 634.948 617.671 493.302 459.444
8675.31 579.085 626.946 428.369 472.539
8677.99 666.803 630.133 495.946 447.097
8680.67 644.511 635.791 416.977 459.077
8683.35 596.059 605.025 464.309 449.929
8686.03 574.505 629.284 468.501 478.27
8688.71 717.288 696.052 501.999 511.207
8691.39 796.361 741.531 563.12 533.621
8694.07 710.945 738.97 535.745 532.445
8696.74 709.602 723.085 498.471 516.251
8699.42 748.708 767.14 514.537 535.198
8702.1 843.11 773.26 592.585 537.633
8704.78 727.962 779.847 505.778 541.397
8707.45 768.468 741.056 525.829 516.093
8710.13 726.737 721.968 516.672 510.828
8712.81 670.698 706.664 489.984 507.218
8715.48 722.558 686.123 514.998 495.985
8718.16 665.112 725.728 482.973 523.09
8720.83 789.512 738.181 571.299 515.032
8723.51 759.92 764.5 490.823 527.557
8726.18 744.069 761.906 520.55 522.695
8728.86 781.729 743.347 556.711 512.908
8731.53 704.243 719.084 461.463 504.16
8734.21 671.279 701.077 494.305 488.853
8736.88 727.71 692.257 510.79 498.282
8739.56 677.78 712.063 489.75 493.029
8742.23 730.697 742.939 478.548 510.695
8744.9 820.341 768.59 563.786 523.797
8747.58 754.731 766.64 529.057 540.478
8750.25 724.848 731.137 528.591 522.213
8752.92 713.831 717.087 508.99 528.408
8755.59 712.581 697.02 547.644 570.486
8758.26 664.649 725.843 654.823 573.839
8760.94 800.298 779.113 519.05 608.377
8763.61 872.391 882.088 651.258 609.837
8766.28 973.576 733.115 659.205 651.024
8768.95 353.377 707.622 642.609 614.837
8771.62 795.915 637.86 542.698 624.566
8774.29 764.288 727.235 688.392 580.441
8776.96 621.504 699.12 510.233 547.368
8779.63 711.57 719.417 443.48 482.424
8782.3 825.177 724.62 493.559 504.892
8784.97 637.114 693.573 577.639 546.935
8787.64 618.427 648.289 569.607 542.458
8790.31 689.327 679.441 480.129 509.302
8792.98 730.568 647.131 478.17 464.557
8795.64 521.496 613.863 435.37 431.474
8798.31 589.525 568.508 380.88 427.82
8800.98 594.502 621.243 467.21 441.623
8803.65 679.703 666.942 476.779 482.912
8806.31 726.623 683.326 504.746 495.4
8808.98 643.652 684.657 504.676 505.794
8811.65 683.695 698.38 507.961 505.797
8814.31 767.794 711.082 504.754 497.746
8816.98 681.757 692.348 480.522 510.772
8819.65 627.494 654.712 547.041 574.902
8822.31 654.884 765.551 697.144 672.546
8824.98 1014.28 937.871 773.453 733.203
8827.64 1144.45 781.94 729.012 652.712
8830.31 187.091 621.245 455.67 513.391
8832.97 532.19 449.445 355.491 466.225
8835.64 629.053 634.658 587.514 444.582
8838.3 742.732 661.166 390.739 453.505
8840.96 611.713 651.508 382.26 412.919
8843.63 600.08 608.31 465.759 446.185
8846.29 613.137 658.264 490.537 498.313
8848.95 761.574 688.233 538.643 512.562
8851.62 689.987 730.418 508.505 523.87
8854.28 739.694 724.63 524.461 511.051
8856.94 744.21 712.811 500.185 473.069
8859.6 654.53 660.294 394.561 458.197
8862.27 582.142 680.618 479.844 488.31
8864.93 805.183 742.513 590.523 547.795
8867.59 840.215 803.937 573.017 553.523
8870.25 766.414 761.064 497.028 482.321
8872.91 676.564 729.599 376.918 449.835
8875.57 745.817 702.896 475.558 464.322
8878.23 686.307 728.17 540.489 560.872
8880.89 752.388 704.001 666.57 634.385
8883.55 673.31 802.033 696.095 647.377
8886.21 980.402 676.529 579.464 601.672
8888.87 375.876 508.586 529.456 490.238
8891.53 169.48 363.821 361.794 408.019
8894.19 546.108 390.808 332.806 387.113
8896.84 456.838 558.897 466.738 462.501
8899.5 673.747 589.979 587.961 526.51
8902.16 639.351 710.905 524.831 539.092
8904.82 819.618 750.009 504.484 476.257
8907.47 791.058 769.968 399.456 438.256
8910.13 699.227 716.309 410.829 468.015
8912.79 658.643 641.003 593.76 515.285
8915.44 565.139 707.715 541.266 617.457
8918.1 899.365 790.42 717.346 593.266
8920.76 906.758 873.307 521.187 540.367
8923.41 813.8 794.178 382.569 370.071
8926.07 661.975 525.484 206.458 247.804
8928.72 100.677 479.538 154.385 259.57
8931.38 675.96 466.163 417.868 309.143
8934.03 621.852 652.387 355.175 417.174
8936.69 659.348 616.527 478.479 421.79
8939.34 568.38 676.499 431.716 472.778
8941.99 801.768 706.719 508.139 497.924
8944.65 750.009 707.537 553.916 476.282
8947.3 570.833 613.113 366.79 434.619
8949.95 518.497 555.046 383.151 416.321
8952.6 575.809 543.912 499.023 475.804
8955.26 537.431 629.334 545.237 541.518
8957.91 774.761 761.646 580.294 567.881
8960.56 972.747 851.267 578.112 508.655
8963.21 806.294 610.162 367.56 322.89
8965.86 51.4463 405.712 22.9982 156.947
8968.52 359.396 315.963 80.2823 117.172
8971.17 537.046 489.845 248.234 208.331
8973.82 573.092 564.491 296.477 311.147
8976.47 583.336 587.897 388.731 348.175
8979.12 607.262 599.783 359.317 393.623
8981.77 608.751 619.425 432.819 403.446
8984.42 642.263 618.484 418.2 406.452
8987.06 604.438 618.345 368.338 425.504
8989.71 608.334 606.776 489.973 411.748
8992.36 607.556 581.604 376.934 387.606
8995.01 528.923 570.393 295.913 365.004
8997.66 574.701 589.833 422.166 398.253
9000.31 665.874 649.558 476.679 458.319
9002.95 708.1 593.452 476.113 492.866
9005.6 406.383 436.012 525.807 410.948
9008.25 193.552 356.988 230.924 277.64
9010.89 471.03 423.85 76.1886 181.252
9013.54 606.967 541.74 236.644 186.875
9016.19 547.223 587.817 247.793 251.812
9018.83 609.262 573.887 271 285.14
9021.48 565.176 595.555 336.628 317.498
9024.12 612.225 568.705 344.865 351.249
9026.77 528.714 575.797 372.255 377.077
9029.41 586.451 576.514 414.112 389.974
9032.06 614.377 617.75 383.556 391.848
9034.7 652.421 641.51 377.877 400.623
9037.35 657.733 666.369 440.437 435.107
9039.99 688.952 649.314 487.006 436.829
9042.63 601.257 633.683 383.043 408.573
9045.28 610.841 627.783 355.67 377.711
9047.92 671.25 611.714 394.421 394.583
9050.56 553.051 639.226 433.658 418.487
9053.2 693.377 591.933 427.38 422.843
9055.85 529.37 619.362 407.491 376.63
9058.49 635.338 559.003 295.02 309.509
9061.13 512.302 573.549 226.017 273.349
9063.77 573.006 553.991 299.011 290.521
9066.41 576.664 575.742 346.534 343.813
9069.05 577.557 543.397 385.895 336.552
9071.69 475.969 451.943 277.227 278.15
9074.33 302.304 259.424 171.33 149.519
