wavelength spectrum_sum 3smoothed_sum spectrum_optimal 3smoothed_optimal
3504.16 128.486 100.583 116.694 88.653
3507.08 173.263 175.828 149.265 162.825
3510.01 225.735 217.005 222.516 205.102
3512.93 252.016 246.689 243.526 234.05
3515.85 262.317 253.66 236.108 237.584
3518.78 246.646 263.675 233.12 243.835
3521.7 282.062 261.832 262.276 240.717
3524.62 256.789 262.775 226.756 242.218
3527.55 249.475 257.525 237.622 238.376
3530.47 266.31 262.74 250.75 249.923
3533.39 272.436 262.398 261.395 257.105
3536.32 248.448 257.888 259.17 262.469
3539.24 252.781 262.245 266.841 275.764
3542.16 285.506 268.616 301.28 286.383
3545.09 267.561 274.028 291.027 294.761
3548.01 269.019 262.794 291.975 276.841
3550.93 251.803 276.689 247.52 293.788
3553.86 309.245 279.993 341.869 298.376
3556.78 278.93 295.131 305.74 313.804
3559.7 297.217 298.943 293.801 300.305
3562.63 320.681 316.443 301.374 307.908
3565.55 331.431 327.925 328.548 317.186
3568.47 331.663 328.714 321.635 321.257
3571.39 323.047 323.231 313.586 315.921
3574.32 314.982 326.618 312.541 315.879
3577.24 341.825 327.01 321.51 316.432
3580.16 324.224 333.311 315.243 321.866
3583.09 333.883 338.597 328.844 328.984
3586.01 357.685 338.029 342.867 328.269
3588.93 322.519 332.49 313.097 316.789
3591.85 317.267 324.751 294.403 316.767
3594.78 334.467 319.187 342.801 308.093
3597.7 305.826 337.588 287.074 327.152
3600.62 372.47 344.097 351.581 329.263
3603.54 353.995 367.288 349.134 349.791
3606.47 375.4 374.627 348.657 357.587
3609.39 394.486 382.1 374.971 362.696
3612.31 376.413 391.15 364.46 377.504
3615.23 402.551 391.796 393.081 378.414
3618.15 396.423 389.982 377.702 375.302
3621.08 370.972 384.55 355.122 370.514
3624 386.255 365.364 378.719 363.362
3626.92 338.865 376.766 356.245 382.062
3629.84 405.179 375.768 411.224 388.536
3632.77 383.26 396.794 398.139 411.311
3635.69 401.944 385.708 424.571 400.221
3638.61 371.92 387.356 377.953 390.673
3641.53 388.204 390.425 369.496 387.907
3644.45 411.15 390.112 416.273 379.968
3647.37 370.98 382.538 354.136 374.498
3650.3 365.484 349.992 353.086 348.654
3653.22 313.513 352.988 338.741 363.168
3656.14 379.968 359.581 397.678 372.849
3659.06 385.262 368.884 382.126 371.978
3661.98 341.423 361.809 336.129 357.918
3664.9 358.743 337.743 355.499 335.626
3667.83 313.063 338.425 315.249 337.372
3670.75 343.468 319.393 341.367 321.601
3673.67 301.647 318.775 308.186 321.931
3676.59 311.211 310.334 316.24 312.94
3679.51 318.144 314.368 314.395 314.398
3682.43 313.747 313.502 312.56 304.633
3685.35 308.615 299.996 286.944 289.773
3688.28 277.626 278.522 269.816 270.39
3691.2 249.326 259.889 254.408 264.799
3694.12 252.716 248.166 270.171 256.253
3697.04 242.457 249.831 244.18 259.021
3699.96 254.321 244.322 262.711 247.472
3702.88 236.189 242.714 235.525 247.972
3705.8 237.633 235.689 245.679 238.065
3708.72 233.244 231.523 232.991 234.477
3711.64 223.691 233.488 224.76 237.559
3714.56 243.529 232.143 254.927 233.279
3717.49 229.208 238.859 220.15 238.797
3720.41 243.839 228.653 241.315 230.768
3723.33 212.912 223.682 230.841 233.176
3726.25 214.295 215.681 227.374 231.065
3729.17 219.835 214.506 234.981 229.448
3732.09 209.387 211.188 225.988 225.921
3735.01 204.341 206.886 216.794 223.09
3737.93 206.929 211.68 226.487 224.456
3740.85 223.77 224.328 230.086 229.121
3743.77 242.286 221.878 230.791 223.989
3746.69 199.579 217.349 211.091 220.798
3749.61 210.183 200.691 220.511 212.972
3752.53 192.311 208.46 207.314 212.473
3755.45 222.886 203.543 209.593 198.765
3758.37 195.434 197.682 179.388 184.14
3761.29 174.727 185.08 163.44 184.611
3764.21 185.08 192.706 211.005 206.618
3767.13 218.309 199.134 245.407 233.792
3770.05 194.013 199.563 244.964 233.712
3772.97 186.367 197.651 210.764 230.975
3775.89 212.574 195.956 237.197 222.181
3778.81 188.927 199.769 218.583 231.521
3781.73 197.807 206.783 238.785 233.405
3784.65 233.615 227.937 242.847 243.868
3787.57 252.388 252.8 249.971 252.766
3790.49 272.397 239.506 265.478 252.828
3793.41 193.732 230.113 243.033 252.749
3796.33 224.21 210.403 249.735 242.196
3799.25 213.269 228.998 233.821 251.048
3802.17 249.515 245.373 269.59 265.738
3805.09 273.333 271.102 293.804 298.194
3808.01 290.456 283.372 331.188 307.303
3810.93 286.326 288.956 296.915 317.816
3813.85 290.084 292.178 325.343 320.073
3816.77 300.123 296.108 337.96 334.911
3819.69 298.116 294.545 341.431 331.02
3822.6 285.395 293.964 313.67 326.324
3825.52 298.381 301.174 323.872 327.674
3828.44 319.745 311.973 345.48 332.01
3831.36 317.793 324.91 326.679 340.217
3834.28 337.191 350.255 348.492 363.007
3837.2 395.78 367.48 413.851 374.937
3840.12 369.469 371.095 362.468 379.525
3843.04 348.035 373.594 362.255 384.268
3845.96 403.279 357.136 428.082 392.752
3848.88 320.095 337.654 387.918 392.985
3851.79 289.589 316.934 362.954 390.716
3854.71 341.118 309.222 421.275 393.554
3857.63 296.961 317.189 396.434 406.7
3860.55 313.488 305.701 402.39 401.503
3863.47 306.653 316.449 405.684 406.925
3866.39 329.205 318.532 412.7 415.887
3869.31 319.737 338.952 429.276 436.444
3872.22 367.914 343.814 467.355 438.725
3875.14 343.791 352.793 419.544 447.606
3878.06 346.674 361.773 455.919 454.836
3880.98 394.855 399.847 489.045 503.89
3883.9 458.011 447.682 566.705 564.211
3886.82 490.18 464.633 636.882 603.679
3889.73 445.709 462.489 607.45 613.33
3892.65 451.579 451.685 595.659 602.862
3895.57 457.767 478.467 605.477 633.345
3898.49 526.054 495.655 698.899 657.852
3901.41 503.143 515.573 669.179 696.519
3904.32 517.521 515.115 721.477 724.92
3907.24 524.68 538.116 784.104 780.616
3910.16 572.146 589.807 836.268 850.309
3913.08 672.594 626.664 930.555 875.345
3916 635.253 662.515 859.212 897.397
3918.91 679.699 670.32 902.426 895.104
3921.83 696.007 692.008 923.673 913.054
3924.75 700.316 686.548 913.064 898.139
3927.67 663.321 689.965 857.68 883.505
3930.58 706.258 699.429 879.772 878.205
3933.5 728.707 741.742 897.165 918.898
3936.42 790.262 767.569 979.757 958.325
3939.34 783.737 812.952 998.054 1028.51
3942.25 864.857 845.724 1107.73 1087.72
3945.17 888.58 840.003 1157.38 1089.61
3948.09 766.573 845.089 1003.73 1102.54
3951 880.115 858.404 1146.51 1111.57
3953.92 928.524 892.285 1184.48 1147.31
3956.84 868.216 892.139 1110.94 1136.41
3959.76 879.678 891.061 1113.82 1111.48
3962.67 925.29 920.184 1109.67 1125.82
3965.59 955.586 958.921 1153.97 1158.14
3968.51 995.888 997.162 1210.78 1218.41
3971.42 1040.01 999.816 1290.49 1236.79
3974.34 963.546 990.076 1209.1 1247.11
3977.26 966.669 982.145 1241.73 1242.83
3980.17 1016.22 1016.12 1277.66 1284.24
3983.09 1065.46 1056.68 1333.34 1329.79
3986.01 1088.37 1075.18 1378.36 1369.78
3988.92 1071.71 1082.02 1397.62 1398.13
3991.84 1085.98 1068.37 1418.41 1398.56
3994.76 1047.42 1066.45 1379.63 1393.74
3997.67 1065.95 1071 1383.17 1399.13
4000.59 1099.65 1084.74 1434.59 1405.4
4003.51 1088.62 1094.9 1398.45 1425.44
4006.42 1096.44 1087.66 1443.27 1418.54
4009.34 1077.9 1090.12 1413.91 1435.8
4012.25 1096.03 1070.65 1450.23 1418.93
4015.17 1038.03 1063.79 1392.63 1415.8
4018.09 1057.32 1057.58 1404.53 1408.17
4021 1077.39 1059.95 1427.36 1400.15
4023.92 1045.13 1068 1368.56 1401.41
4026.83 1081.48 1035.52 1408.32 1355.72
4029.75 979.953 1060.42 1290.28 1385.67
4032.67 1119.84 1066.88 1458.41 1394.13
4035.58 1100.85 1061.29 1433.68 1409.8
4038.5 963.165 1030.12 1337.3 1371.65
4041.41 1026.34 1016.05 1343.98 1349.14
4044.33 1058.66 1034.92 1366.16 1349.8
4047.24 1019.76 1002.92 1339.27 1320.91
4050.16 930.326 981.319 1257.29 1312.33
4053.08 993.869 982.485 1340.44 1320.03
4055.99 1023.26 1015.09 1362.37 1347.8
4058.91 1028.14 1018.21 1340.59 1338.11
4061.82 1003.23 1003.77 1311.37 1316.65
4064.74 979.925 1012.84 1297.98 1332.26
4067.65 1055.36 1000.83 1387.43 1325.67
4070.57 967.209 1019.25 1291.59 1354.84
4073.48 1035.18 1019.15 1385.49 1353.16
4076.4 1055.07 1040.15 1382.41 1372.82
4079.31 1030.19 1031.51 1350.55 1360.08
4082.23 1009.28 1023.09 1347.27 1352.37
4085.14 1029.8 1013.89 1359.31 1341.98
4088.06 1002.59 1022.64 1319.37 1358.18
4090.97 1035.53 1040.11 1395.88 1378.88
4093.89 1082.21 1087.8 1421.4 1433.99
4096.8 1145.66 1119.2 1484.69 1453.35
4099.72 1129.72 1159.27 1453.97 1494.61
4102.63 1202.44 1185.63 1545.17 1528.94
4105.55 1224.74 1203.38 1587.67 1566.04
4108.46 1182.95 1230.95 1565.29 1597.28
4111.37 1285.17 1242.21 1638.88 1618.05
4114.29 1258.51 1285.87 1649.98 1657.61
4117.2 1313.93 1290.59 1683.98 1676.33
4120.12 1299.32 1316.21 1695.04 1699.8
4123.03 1335.38 1320.25 1720.38 1719.06
4125.95 1326.06 1337.43 1741.76 1740.64
4128.86 1350.85 1380.65 1759.77 1800.81
4131.77 1465.04 1407.67 1900.88 1840.68
4134.69 1407.11 1445.95 1861.4 1881.64
4137.6 1465.7 1435.27 1882.64 1884.18
4140.52 1432.99 1470.42 1908.5 1919.14
4143.43 1512.58 1499.77 1966.26 1956.37
4146.34 1553.74 1532.25 1994.34 1984.16
4149.26 1530.42 1517.07 1991.87 1973.11
4152.17 1467.04 1523.38 1933.12 1997.47
4155.09 1572.68 1551.01 2067.4 2043.01
4158 1613.32 1579.06 2128.52 2085.97
4160.91 1551.18 1573.38 2061.99 2087.75
4163.83 1555.65 1563.48 2072.76 2091.79
4166.74 1583.62 1587.68 2140.63 2113.42
4169.65 1623.76 1615.54 2126.87 2153.62
4172.57 1639.23 1633.61 2193.36 2158.88
4175.48 1637.85 1627.67 2156.41 2159.46
4178.39 1605.94 1609.98 2128.63 2130.33
4181.31 1586.16 1601.37 2105.95 2125.63
4184.22 1612.01 1601.42 2142.32 2124.69
4187.13 1606.1 1613.89 2125.79 2129.29
4190.05 1623.56 1591.47 2119.76 2099.49
4192.96 1544.75 1582.57 2052.91 2078.59
4195.87 1579.41 1561.57 2063.1 2067.23
4198.79 1560.55 1571.47 2085.67 2078.69
4201.7 1574.44 1575.55 2087.3 2090.44
4204.61 1591.65 1591.04 2098.34 2099.98
4207.52 1607.04 1571.26 2114.29 2074.45
4210.44 1515.1 1579.4 2010.72 2084.05
4213.35 1616.07 1545.4 2127.15 2044.11
4216.26 1505.02 1553.21 1994.46 2041.59
4219.17 1538.55 1530.31 2003.16 2015.99
4222.09 1547.35 1521.11 2050.36 2005.06
4225 1477.44 1504.12 1961.68 1997
4227.91 1487.57 1523.44 1978.96 2020.26
4230.82 1605.31 1540.14 2120.13 2036.43
4233.74 1527.53 1549.24 2010.19 2034.2
4236.65 1514.89 1500.88 1972.27 1975.53
4239.56 1460.21 1451.97 1944.13 1925.26
4242.47 1380.81 1468.21 1859.36 1955.42
4245.38 1563.61 1496.19 2062.78 1988.32
4248.3 1544.14 1550.33 2042.81 2049.8
4251.21 1543.25 1573.06 2043.82 2055.54
4254.12 1631.78 1556.46 2079.98 2033.73
4257.03 1494.35 1535.74 1977.38 2016.52
4259.94 1481.1 1486.98 1992.19 1980.34
4262.86 1485.48 1505.26 1971.44 2017.96
4265.77 1549.19 1514.1 2090.25 2032.34
4268.68 1507.63 1536.17 2035.33 2048.33
4271.59 1551.68 1524.72 2019.41 2035.44
4274.5 1514.84 1509.45 2051.58 2005.56
4277.41 1461.82 1483.29 1945.69 1980.8
4280.33 1473.21 1450.27 1945.14 1928
4283.24 1415.8 1448.76 1893.18 1928.26
4286.15 1457.28 1443.89 1946.46 1934.8
4289.06 1458.6 1452.68 1964.77 1932.61
4291.97 1442.17 1427.8 1886.59 1897.59
4294.88 1382.62 1401.96 1841.39 1839.44
4297.79 1381.09 1372.1 1790.34 1791.48
4300.7 1352.58 1373.09 1742.72 1763.91
4303.61 1385.61 1359.43 1758.67 1739.8
4306.53 1340.1 1346.09 1718.03 1724
4309.44 1312.56 1331.49 1695.31 1713.8
4312.35 1341.81 1313.2 1728.07 1710.21
4315.26 1285.24 1296.05 1707.24 1710.9
4318.17 1261.1 1270.31 1697.4 1690.13
4321.08 1264.58 1249.16 1665.74 1648.68
4323.99 1221.81 1245.98 1582.92 1640.23
4326.9 1251.57 1219.76 1672.04 1603.22
4329.81 1185.91 1214.04 1554.7 1605.31
4332.72 1204.66 1179.58 1589.18 1545.88
4335.63 1148.18 1181.23 1493.75 1551.49
4338.54 1190.86 1178.13 1571.53 1541.4
4341.45 1195.33 1171.93 1558.92 1548.41
4344.36 1129.59 1171.09 1514.78 1554.58
4347.27 1188.33 1148.63 1590.04 1526.7
4350.18 1127.95 1135.77 1475.27 1517.78
4353.09 1091.01 1106.16 1488.02 1471.96
4356 1099.53 1076.34 1452.58 1445.5
4358.91 1038.47 1052.59 1395.89 1410.77
4361.82 1019.76 1015.53 1383.85 1376.92
4364.73 988.358 1030.71 1351.02 1400.2
4367.64 1084.01 1033.63 1465.73 1385.19
4370.55 1028.5 1055.07 1338.84 1397.91
4373.46 1052.69 1049.17 1389.17 1379.63
4376.37 1066.31 1048.98 1410.89 1383.38
4379.28 1027.94 1033.7 1350.07 1356.83
4382.19 1006.84 1016.53 1309.52 1337.69
4385.1 1014.8 1022.7 1353.49 1344.74
4388.01 1046.46 1048.28 1371.2 1369.12
4390.92 1083.58 1072.18 1382.67 1397.34
4393.83 1086.5 1072.23 1438.16 1401.45
4396.74 1046.59 1043.97 1383.51 1379.45
4399.64 998.83 1067.2 1316.69 1396.38
4402.55 1156.19 1091.26 1488.93 1422.4
4405.46 1118.75 1151.91 1461.57 1501.58
4408.37 1180.8 1148.97 1554.23 1505.72
4411.28 1147.35 1155.44 1501.36 1513.88
4414.19 1138.17 1159.6 1486.07 1520.36
4417.1 1193.28 1175.25 1573.66 1543.73
4420.01 1194.31 1193.26 1571.48 1570.17
4422.92 1192.18 1212.07 1565.37 1602.24
4425.82 1249.72 1245.09 1669.87 1643.9
4428.73 1293.37 1269.02 1696.46 1667.57
4431.64 1263.97 1280.92 1636.38 1686.55
4434.55 1285.41 1293.5 1726.81 1711.36
4437.46 1331.12 1325.01 1770.89 1771.33
4440.37 1358.49 1348.52 1816.29 1801.36
4443.27 1355.96 1359.43 1816.9 1813.59
4446.18 1363.84 1377.38 1807.58 1832.01
4449.09 1412.34 1396.37 1871.54 1847.06
4452 1412.92 1430.07 1862.06 1880.45
4454.91 1464.94 1445.15 1907.75 1901.54
4457.81 1457.6 1453.93 1934.82 1912.48
4460.72 1439.25 1457.01 1894.86 1919.69
4463.63 1474.18 1460.76 1929.39 1912.53
4466.54 1468.86 1447.54 1913.35 1896.91
4469.45 1399.57 1414.55 1847.98 1870.59
4472.35 1375.23 1430.18 1850.44 1908.67
4475.26 1515.75 1428.18 2027.57 1912.26
4478.17 1393.56 1445.38 1858.76 1929.34
4481.08 1426.83 1414.34 1901.68 1886.74
4483.98 1422.62 1431.66 1899.77 1893.84
4486.89 1445.53 1420.09 1880.08 1884.39
4489.8 1392.12 1419.08 1873.33 1884.92
4492.7 1419.6 1405.4 1901.34 1886.89
4495.61 1404.48 1390.33 1886.01 1867.76
4498.52 1346.9 1368.07 1815.92 1845.69
4501.43 1352.83 1347.47 1835.14 1813.14
4504.33 1342.67 1352.36 1788.36 1812.96
4507.24 1361.58 1370.86 1815.37 1829.52
4510.15 1408.34 1396.76 1884.85 1873.79
4513.05 1420.35 1413.91 1921.16 1894.98
4515.96 1413.04 1428.56 1878.92 1903.21
4518.87 1452.29 1440.82 1909.55 1901.29
4521.77 1457.15 1447.62 1915.39 1894.97
4524.68 1433.41 1460.46 1859.96 1923.3
4527.59 1490.83 1481.49 1994.55 1960.09
4530.49 1520.23 1488.1 2025.77 1992.56
4533.4 1453.25 1480.88 1957.36 1994.61
4536.31 1469.18 1487.17 2000.69 2004.62
4539.21 1539.09 1531.47 2055.81 2052.66
4542.12 1586.13 1575.09 2101.48 2093.55
4545.02 1600.05 1601.51 2123.35 2130.08
4547.93 1618.36 1605.73 2165.41 2124.21
4550.84 1598.79 1610.59 2083.89 2130.33
4553.74 1614.62 1622.76 2141.71 2142.25
4556.65 1654.86 1662.32 2201.14 2216.82
4559.55 1717.48 1715.17 2307.6 2291.48
4562.46 1773.18 1735.14 2365.7 2315.36
4565.37 1714.76 1731.68 2272.8 2305.39
4568.27 1707.1 1719.77 2277.67 2294
4571.18 1737.45 1748.76 2331.52 2334.39
4574.08 1801.73 1773.29 2393.97 2371.05
4576.99 1780.69 1783.58 2387.67 2377.06
4579.89 1768.31 1784.5 2349.55 2384.05
4582.8 1804.49 1798.31 2414.92 2390.38
4585.7 1822.14 1812.21 2406.68 2408.22
4588.61 1809.99 1817.27 2403.06 2412.92
4591.51 1819.7 1824.95 2429.01 2418.72
4594.42 1845.16 1851.12 2424.09 2454.23
4597.32 1888.5 1872.65 2509.59 2469.17
4600.23 1884.3 1895.42 2473.84 2510.55
4603.13 1913.44 1882.51 2548.24 2488.45
4606.04 1849.79 1889.37 2443.27 2509.68
4608.94 1904.87 1847.33 2537.52 2468.7
4611.85 1787.32 1848.12 2425.32 2483.78
4614.75 1852.17 1818.21 2488.51 2445.96
4617.66 1815.15 1845.19 2424.04 2460.32
4620.56 1868.26 1869.77 2468.4 2490.78
4623.47 1925.91 1891 2579.9 2509.09
4626.37 1878.83 1896.66 2478.97 2536.59
4629.27 1885.25 1902.44 2550.91 2543.03
4632.18 1943.23 1887.84 2599.21 2538.16
4635.08 1835.02 1895.95 2464.37 2533.04
4637.99 1909.58 1870.8 2535.54 2502.09
4640.89 1867.79 1894.14 2506.37 2521.2
4643.79 1905.04 1863.92 2521.7 2494.86
4646.7 1818.95 1894.32 2456.52 2532.58
4649.6 1958.97 1895.33 2619.52 2540.66
4652.51 1908.06 1921.09 2545.95 2559.43
4655.41 1896.23 1919.54 2512.81 2557.58
4658.31 1954.33 1897.93 2613.98 2520.06
4661.22 1843.24 1914.82 2433.38 2557.72
4664.12 1946.9 1912.05 2625.79 2533.32
4667.02 1946.01 1925.35 2540.79 2558.88
4669.93 1883.15 1913.5 2510.05 2522.37
4672.83 1911.35 1899.82 2516.28 2534.4
4675.73 1904.96 1908.31 2576.88 2557.34
4678.64 1908.61 1929.5 2578.87 2602.26
4681.54 1974.94 1936.04 2651.05 2606.82
4684.44 1924.56 1939.31 2590.55 2617.16
4687.35 1918.43 1918.4 2609.87 2601.32
4690.25 1912.22 1898.29 2603.53 2577.03
4693.15 1864.23 1901.54 2517.68 2570.65
4696.05 1928.17 1914.48 2590.75 2575.35
4698.96 1951.05 1897.42 2617.63 2542.78
4701.86 1813.05 1882.43 2419.95 2517.73
4704.76 1883.18 1868.43 2515.61 2487.3
4707.66 1909.06 1861.47 2526.33 2480.94
4710.57 1792.17 1835.59 2400.88 2451.82
4713.47 1805.53 1816.2 2428.25 2427.37
4716.37 1850.91 1795.93 2452.98 2410.83
4719.27 1731.35 1787.54 2351.25 2405.74
4722.18 1780.36 1754.1 2413 2376.68
4725.08 1750.57 1735.29 2365.78 2349.05
4727.98 1674.95 1715.32 2268.36 2315.08
4730.88 1720.45 1699.92 2311.12 2298.98
4733.78 1704.37 1716.5 2317.45 2303.6
4736.69 1724.67 1703.41 2282.22 2281.22
4739.59 1681.2 1677.32 2243.99 2268.08
4742.49 1626.08 1669.76 2278.04 2270.11
4745.39 1701.99 1653.42 2288.29 2259.51
4748.29 1632.19 1685.39 2212.2 2280.85
4751.19 1722 1656.57 2342.07 2253.32
4754.1 1615.52 1639.13 2205.7 2233.88
4757 1579.86 1615.02 2153.88 2203.02
4759.9 1649.67 1604.22 2249.47 2177.8
4762.8 1583.13 1609.14 2130.06 2165.11
4765.7 1594.62 1595.45 2115.8 2136.86
4768.6 1608.59 1594.13 2164.72 2133.42
4771.5 1579.18 1617.71 2119.75 2161.55
4774.4 1665.36 1639.5 2200.18 2181.46
4777.3 1673.95 1637.67 2224.47 2167.08
4780.21 1573.68 1635.81 2076.6 2171.17
4783.11 1659.78 1619.26 2212.44 2163.91
4786.01 1624.33 1629.83 2202.69 2183.48
4788.91 1605.37 1621.13 2135.32 2173.17
4791.81 1633.69 1617.13 2181.5 2163.25
4794.71 1612.32 1614.46 2172.93 2174.22
4797.61 1597.37 1599.71 2168.24 2170.44
4800.51 1589.45 1603.76 2170.14 2164.36
4803.41 1624.45 1600.89 2154.7 2161.84
4806.31 1588.76 1588.87 2160.68 2133.13
4809.21 1553.4 1574.25 2084.02 2126.91
4812.11 1580.59 1549.59 2136.04 2078.04
4815.01 1514.77 1554.43 2014.05 2098.6
4817.91 1567.94 1528.62 2145.69 2080.96
4820.81 1503.16 1528.74 2083.15 2081.73
4823.71 1515.12 1505.91 2016.36 2045.59
4826.61 1499.46 1505.73 2037.26 2023.56
4829.51 1502.59 1501.89 2017.06 2040.26
4832.41 1503.62 1494.63 2066.45 2037.23
4835.31 1477.7 1509.4 2028.2 2074.21
4838.21 1546.88 1526.9 2127.98 2089.76
4841.11 1556.13 1527.45 2113.11 2078.97
4844.01 1479.33 1502.08 1995.83 2044.62
4846.91 1470.8 1483.93 2024.91 2020.47
4849.8 1501.65 1500.68 2040.67 2048.59
4852.7 1529.58 1515.29 2080.19 2054.15
4855.6 1514.64 1530.29 2041.59 2073.91
4858.5 1546.66 1522.92 2099.96 2062.37
4861.4 1507.46 1521.45 2045.58 2058.8
4864.3 1510.23 1516.53 2030.88 2039.01
4867.2 1531.92 1524.79 2040.57 2038.29
4870.1 1532.23 1524.71 2043.42 2042.18
4872.99 1509.99 1504.16 2042.54 2021.71
4875.89 1470.27 1485.75 1979.18 2012.86
4878.79 1476.99 1464.04 2016.85 1987.58
4881.69 1444.87 1488.57 1966.72 2003.43
4884.59 1543.84 1500.29 2026.71 2011.54
4887.49 1512.16 1504.82 2041.2 2012.47
4890.38 1458.46 1477.55 1969.5 1986.39
4893.28 1462.03 1463.01 1948.48 1971.65
4896.18 1468.54 1439.83 1996.97 1933.59
4899.08 1388.93 1374.71 1855.32 1865.57
4901.98 1266.64 1341.18 1744.43 1824.07
4904.87 1367.98 1200.12 1872.47 1651.78
4907.77 965.735 1245.94 1338.45 1773.37
4910.67 1404.11 1262.76 2109.2 1855.87
4913.57 1418.42 1391 2119.96 2093.67
4916.46 1350.46 1340.72 2051.83 1956.87
4919.36 1253.27 1295.77 1698.82 1831.01
4922.26 1283.59 1246.73 1742.38 1702.17
4925.16 1203.34 1229.34 1665.3 1669.54
4928.05 1201.09 1204.36 1600.92 1638.4
4930.95 1208.64 1181.06 1648.96 1590.51
4933.85 1133.46 1141.03 1521.65 1557.23
4936.74 1080.98 1114.11 1501.09 1518.64
4939.64 1127.89 1106.23 1533.17 1507.12
4942.54 1109.83 1117.81 1487.11 1508.14
4945.44 1115.71 1105.23 1504.14 1512.1
4948.33 1090.15 1110.83 1545.05 1535.08
4951.23 1126.64 1132.34 1556.06 1563.43
4954.13 1180.23 1143.42 1589.18 1571.14
4957.02 1123.38 1154.93 1568.17 1576.36
4959.92 1161.19 1144.77 1571.72 1571.5
4962.81 1149.73 1129.36 1574.61 1555.43
4965.71 1077.16 1128.27 1519.97 1566.22
4968.61 1157.91 1129.71 1604.09 1580.79
4971.5 1154.07 1169.72 1618.3 1620.09
4974.4 1197.18 1167.87 1637.88 1616.77
4977.29 1152.38 1187.9 1594.14 1638.15
4980.19 1214.14 1163.18 1682.45 1607.69
4983.09 1123.03 1178.9 1546.49 1624.1
4985.98 1199.54 1173.13 1643.37 1624.14
4988.88 1196.83 1216.97 1682.56 1689.81
4991.77 1254.53 1245.76 1743.51 1713.41
4994.67 1285.92 1282.75 1714.15 1763.14
4997.56 1307.82 1279.98 1831.75 1754.6
5000.46 1246.21 1274.12 1717.91 1768.98
5003.35 1268.33 1263.31 1757.29 1750.49
5006.25 1275.39 1310.62 1776.27 1826.49
5009.14 1388.13 1355.09 1945.91 1871.4
5012.04 1401.76 1437.26 1892.01 1996.09
5014.93 1521.9 1772.76 2150.34 2410.66
5017.83 2394.62 1802.73 3189.63 2446.76
5020.72 1491.68 1778.77 2000.3 2366.99
5023.62 1450.01 1440.52 1911.04 1941.43
5026.51 1379.88 1457.41 1912.94 1965.73
5029.41 1542.35 1458.11 2073.21 1992.51
5032.3 1452.11 1490.76 1991.38 2013.57
5035.2 1477.83 1477.34 1976.11 2005.06
5038.09 1502.09 1467 2047.69 1983.48
5040.99 1421.07 1448.19 1926.65 1975.64
5043.88 1421.41 1423.82 1952.59 1952.71
5046.77 1428.99 1441.78 1978.88 1983.66
5049.67 1474.93 1475.86 2019.52 2037.65
5052.56 1523.67 1483.7 2114.53 2024.94
5055.46 1452.51 1477.16 1940.76 2023.82
5058.35 1455.29 1451.87 2016.17 1975.91
5061.24 1447.82 1460.8 1970.78 2005.71
5064.14 1479.3 1471.55 2030.16 2009.62
5067.03 1487.52 1497.48 2027.92 2039.39
5069.92 1525.61 1506.01 2060.08 2044.92
5072.82 1504.89 1517.39 2046.76 2076.14
5075.71 1521.68 1520.96 2121.57 2079.03
5078.6 1536.29 1527.45 2068.76 2086.67
5081.5 1524.38 1545.86 2069.69 2091.13
5084.39 1576.9 1541.57 2134.94 2090.26
5087.28 1523.42 1548.56 2066.15 2107.69
5090.18 1545.36 1565.33 2121.98 2137.05
5093.07 1627.2 1599.3 2223.03 2187.94
5095.96 1625.33 1615.8 2218.81 2187.52
5098.85 1594.88 1587.99 2120.71 2152.64
5101.75 1543.75 1580.08 2118.39 2128.34
5104.64 1601.62 1591.68 2145.92 2165.77
5107.53 1629.68 1602.77 2232.99 2173.74
5110.42 1577 1578.8 2142.31 2158.38
5113.32 1529.73 1569.54 2099.83 2144.82
5116.21 1601.89 1556.57 2192.33 2145.49
5119.1 1538.1 1568.44 2144.31 2157.87
5121.99 1565.33 1559.82 2136.97 2138.79
5124.88 1576.04 1568.2 2135.09 2131.75
5127.78 1563.23 1581.31 2123.18 2154.81
5130.67 1604.67 1604.9 2206.15 2184.02
5133.56 1646.81 1640.25 2222.72 2245.42
5136.45 1669.27 1527.66 2307.39 2248.18
5139.34 1266.91 1416.76 2214.44 2277.93
5142.23 1314.09 1285.66 2311.97 2261.93
5145.13 1275.97 1296.64 2259.39 2303.77
5148.02 1299.86 1317.5 2339.95 2338.89
5150.91 1376.66 1336.92 2417.34 2360.01
5153.8 1334.23 1347.43 2322.74 2371.21
5156.69 1331.41 1349.77 2373.55 2375
5159.58 1383.68 1352.42 2428.71 2384.06
5162.47 1342.16 1356.46 2349.91 2371.71
5165.36 1343.53 1355.76 2336.52 2354.38
5168.25 1381.57 1344.16 2376.71 2331.15
5171.14 1307.38 1365.55 2280.23 2356.93
5174.03 1407.71 1351.78 2413.85 2347.77
5176.93 1340.24 1360.38 2349.23 2377.19
5179.82 1333.21 1363.34 2368.5 2401.29
5182.71 1416.59 1399.8 2486.14 2453.57
5185.6 1449.59 1421.98 2506.06 2482.48
5188.49 1399.77 1418.74 2455.22 2457.33
5191.38 1406.85 1406.46 2410.72 2431.32
5194.27 1412.76 1420.05 2428.03 2444.88
5197.16 1440.54 1434.18 2495.88 2483.49
5200.05 1449.26 1458.4 2526.57 2546.11
5202.94 1485.42 1460.73 2615.89 2557.85
5205.83 1447.52 1451.76 2531.1 2530
5208.72 1422.36 1440.44 2443.02 2502.14
5211.6 1451.45 1417.25 2532.3 2457.86
5214.49 1377.95 1434.26 2398.26 2493.49
5217.38 1473.39 1417.56 2549.92 2459.85
5220.27 1401.34 1449.58 2431.36 2489.71
5223.16 1474 1449.46 2487.85 2486.15
5226.05 1473.05 1486.35 2539.25 2535.59
5228.94 1511.99 1497.94 2579.68 2546.68
5231.83 1508.79 1487.54 2521.11 2507.74
5234.72 1441.83 1485.61 2422.42 2487.92
5237.61 1506.21 1460.2 2520.24 2454.73
5240.49 1432.54 1445.15 2421.54 2442.78
5243.38 1396.69 1422.61 2386.57 2411.96
5246.27 1438.61 1430.94 2427.79 2444
5249.16 1457.52 1454.06 2517.66 2462.48
5252.05 1466.05 1435.34 2442 2455.03
5254.94 1382.44 1415.79 2405.44 2407.38
5257.82 1398.87 1420.5 2374.69 2412.28
5260.71 1480.17 1421.64 2456.7 2390.45
5263.6 1385.87 1449.95 2339.96 2441.11
5266.49 1483.81 1429.81 2526.68 2406.97
5269.38 1419.75 1445.22 2354.28 2389.69
5272.26 1432.08 1466.75 2288.12 2362.49
5275.15 1548.4 1486.1 2445.09 2340.13
5278.04 1477.81 1498.68 2287.19 2330.51
5280.93 1469.82 1476.22 2259.26 2278.47
5283.81 1481.04 1463.7 2288.95 2263.06
5286.7 1440.24 1482.44 2240.97 2303.84
5289.59 1526.05 1492.53 2381.59 2314.14
5292.48 1511.3 1500.9 2319.85 2318.48
5295.36 1465.34 1480.88 2254.01 2292.12
5298.25 1466.01 1440.01 2302.51 2241.79
5301.14 1388.69 1436.49 2168.84 2267.14
5304.02 1454.77 1412 2330.07 2254.15
5306.91 1392.53 1403.41 2263.54 2272.48
5309.8 1362.92 1373.07 2223.84 2251.02
5312.68 1363.76 1373.99 2265.68 2250.64
5315.57 1395.3 1351.65 2262.4 2246.58
5318.46 1295.89 1335.52 2211.66 2237.74
5321.34 1315.36 1308.27 2239.18 2214.08
5324.23 1313.56 1311.2 2191.4 2191.42
5327.11 1304.68 1314.51 2143.67 2175.2
5330 1325.27 1280.92 2190.52 2134.44
5332.89 1212.79 1247.95 2069.14 2102.08
5335.77 1205.77 1215.32 2046.57 2051.95
5338.66 1227.4 1220.42 2040.13 2038.71
5341.54 1228.08 1223.33 2029.42 2049.42
5344.43 1214.51 1192.65 2078.7 2010.99
5347.31 1135.35 1195.34 1924.86 2012.94
5350.2 1236.17 1182.12 2035.26 1976.03
5353.08 1174.85 1189.65 1967.97 1967.58
5355.97 1157.91 1140.06 1899.49 1896.52
5358.86 1087.41 1130.88 1822.1 1861.4
5361.74 1147.33 1095.15 1862.6 1806.22
5364.63 1050.7 1084.08 1733.95 1774.47
5367.51 1054.22 1059.05 1726.86 1750.36
5370.39 1072.23 1079.18 1790.26 1771.14
5373.28 1111.09 1088.72 1796.31 1773.27
5376.16 1082.83 1103.62 1733.24 1776.85
5379.05 1116.93 1082.59 1800.99 1761.02
5381.93 1048.02 1086.97 1748.85 1785.53
5384.82 1095.97 1092.91 1806.74 1800.65
5387.7 1134.76 1116.84 1846.37 1833.64
5390.59 1119.78 1102.59 1847.82 1804.42
5393.47 1053.24 1080.13 1719.06 1787.02
5396.35 1067.38 1071.68 1794.18 1757
5399.24 1094.42 1095.9 1757.77 1778.72
5402.12 1125.9 1126.28 1784.22 1796.33
5405 1158.53 1129.77 1847 1827.58
5407.89 1104.87 1106.68 1851.52 1824.07
5410.77 1056.65 1087.58 1773.69 1829.23
5413.65 1101.21 1098.15 1862.48 1826.13
5416.54 1136.59 1139.34 1842.23 1874.81
5419.42 1180.22 1164.05 1919.72 1899.63
5422.3 1175.34 1166.57 1936.94 1913.65
5425.19 1144.15 1153.16 1884.28 1910.76
5428.07 1139.99 1159.45 1911.05 1944.09
5430.95 1194.21 1184.51 2036.95 1984.75
5433.84 1219.33 1221 2006.25 2023.62
5436.72 1249.47 1206.32 2027.65 1994.91
5439.6 1150.15 1184.65 1950.83 1978.31
5442.48 1154.32 1177.02 1956.46 1975.87
5445.37 1226.59 1193.04 2020.32 1973.64
5448.25 1198.21 1229.38 1944.14 2004.93
5451.13 1263.36 1236.93 2050.33 2024.3
5454.01 1249.23 1270.98 2078.43 2091.93
5456.89 1300.35 1256.46 2147.04 2092.94
5459.78 1219.81 1258.43 2053.35 2087.58
5462.66 1255.14 1240.56 2062.35 2051.86
5465.54 1246.74 1243.36 2039.86 2042.61
5468.42 1228.21 1248.01 2025.63 2062.25
5471.3 1269.09 1249.54 2121.27 2078.86
5474.18 1251.34 1246.52 2089.68 2083.57
5477.07 1219.13 1263.08 2039.76 2101.65
5479.95 1318.78 1262.29 2175.5 2080.75
5482.83 1248.96 1281.98 2027 2089.25
5485.71 1278.2 1280.09 2065.26 2080.68
5488.59 1313.12 1267.34 2149.77 2076.08
5491.47 1210.69 1248.83 2013.22 2052.01
5494.35 1222.66 1242.63 1993.06 2032.08
5497.23 1294.53 1269.5 2089.97 2051.65
5500.11 1291.31 1266.51 2071.94 2051.7
5502.99 1213.67 1227.09 1993.19 2009.61
5505.87 1176.29 1199.79 1963.69 1973.32
5508.75 1209.41 1183.43 1963.07 1942.96
5511.63 1164.59 1205.11 1902.12 1970.25
5514.51 1241.35 1174.86 2045.58 1950.19
5517.39 1118.65 1169.49 1902.86 1947.03
5520.27 1148.48 1152.01 1892.65 1896.62
5523.15 1188.91 1165.01 1894.36 1887.83
5526.03 1157.63 1151.41 1876.49 1855.36
5528.91 1107.7 1124.31 1795.23 1837.76
5531.79 1107.61 1096.57 1841.57 1809.3
5534.67 1074.39 1088.7 1791.09 1806.24
5537.55 1084.1 1079.4 1786.07 1805.17
5540.43 1079.7 1083.98 1838.35 1805.31
5543.31 1088.12 1087.11 1791.52 1800.64
5546.19 1093.51 1104.45 1772.05 1788.44
5549.07 1131.71 1096.57 1801.75 1783.86
5551.95 1064.48 1099.55 1777.76 1793.17
5554.83 1102.45 1083.91 1799.99 1778.06
5557.7 1084.79 1078.99 1756.43 1752.22
5560.58 1049.72 1046.91 1700.23 1710.04
5563.46 1006.22 1062.7 1673.47 1769.68
5566.34 1132.16 1095.09 1935.35 2015.79
5569.22 1146.89 1153.97 2438.55 2376.18
5572.1 1182.86 1176.96 2754.65 2664.66
5574.97 1201.14 1213.86 2800.78 2592.36
5577.85 1257.58 1200.43 2221.67 2131.12
5580.73 1142.59 1186.65 1370.92 1596.88
5583.61 1159.78 1182.16 1198.04 1343.32
5586.48 1244.1 1206.77 1461.01 1455.73
5589.36 1216.43 1262.12 1708.15 1708.86
5592.24 1325.83 1278.58 1957.43 1832.14
5595.12 1293.46 1322.06 1830.83 1922.38
5597.99 1346.9 1314.03 1978.87 1908.19
5600.87 1301.74 1328.94 1914.86 1988.74
5603.75 1338.19 1337.31 2072.49 2039.13
5606.63 1372.01 1353.02 2130.03 2120.15
5609.5 1348.85 1352.75 2157.93 2135.15
5612.38 1337.4 1346.22 2117.5 2139.42
5615.26 1352.42 1359.83 2142.84 2158.74
5618.13 1389.65 1387.51 2215.89 2194.23
5621.01 1420.44 1390.03 2223.96 2194.97
5623.89 1359.99 1422.58 2145.06 2226.31
5626.76 1487.3 1439.71 2309.9 2264.26
5629.64 1471.85 1485.38 2337.8 2334.37
5632.51 1497 1479.44 2355.4 2341.03
5635.39 1469.48 1487.35 2329.88 2350.28
5638.27 1495.57 1473.35 2365.57 2339.69
5641.14 1454.99 1476.61 2323.62 2347.28
5644.02 1479.27 1485.14 2352.64 2362.9
5646.89 1521.16 1496.06 2412.45 2362.67
5649.77 1487.74 1509.55 2322.93 2388.73
5652.64 1519.75 1484.61 2430.82 2348.66
5655.52 1446.35 1511.09 2292.22 2392.44
5658.39 1567.16 1519.78 2454.29 2388.54
5661.27 1545.82 1509.99 2419.1 2371.51
5664.14 1416.98 1502.65 2241.14 2378.78
5667.02 1545.14 1485.05 2476.1 2354.35
5669.89 1493.01 1482.42 2345.83 2348.16
5672.77 1409.11 1461.12 2222.54 2307.53
5675.64 1481.25 1461.08 2354.21 2307.88
5678.52 1492.89 1494.84 2346.89 2362.26
5681.39 1510.37 1500.07 2385.69 2367.25
5684.27 1496.97 1523.39 2369.18 2384.58
5687.14 1562.83 1490.4 2398.87 2334.43
5690.01 1411.42 1489.58 2235.25 2326.68
5692.89 1494.51 1500.53 2345.92 2367.48
5695.76 1595.65 1533.8 2521.26 2413.72
5698.64 1511.24 1527.42 2373.97 2386.46
5701.51 1475.35 1483.52 2264.15 2307.89
5704.38 1463.97 1469.2 2285.55 2289.57
5707.26 1468.29 1483.7 2319.03 2337.33
5710.13 1518.83 1518.77 2407.4 2385.5
5713 1569.21 1553.45 2430.07 2435.94
5715.88 1572.32 1546.7 2470.35 2421.88
5718.75 1498.55 1557.7 2365.21 2410.24
5721.62 1602.21 1549.71 2395.15 2402.54
5724.5 1548.35 1569.06 2447.26 2412.1
5727.37 1556.62 1537.83 2393.87 2393.82
5730.24 1508.52 1556.95 2340.34 2407.47
5733.11 1605.69 1553.7 2488.2 2404.75
5735.99 1546.88 1595.06 2385.7 2475.81
5738.86 1632.61 1566.91 2553.54 2450.03
5741.73 1521.24 1558.02 2410.86 2446.76
5744.6 1520.21 1552.51 2375.88 2426.69
5747.47 1616.08 1563.92 2493.33 2421.75
5750.35 1555.49 1573.19 2396.05 2425.02
5753.22 1548.01 1562.65 2385.68 2424.92
5756.09 1584.46 1584.73 2493.03 2455.64
5758.96 1621.74 1602.21 2488.21 2478.5
5761.83 1600.43 1588.21 2454.26 2452.83
5764.7 1542.46 1572.98 2416.02 2444.46
5767.57 1576.04 1560.92 2463.11 2423.33
5770.45 1564.24 1539.93 2390.85 2385.8
5773.32 1479.5 1513.96 2303.44 2346.87
5776.19 1498.15 1505.95 2346.33 2340.45
5779.06 1540.21 1559.4 2371.57 2414.47
5781.93 1639.83 1571.04 2525.5 2409.03
5784.8 1533.07 1579.98 2330.02 2423.96
5787.67 1567.05 1542.96 2416.37 2371.79
5790.54 1528.76 1527.2 2368.97 2352.95
5793.41 1485.78 1518.25 2273.5 2331.5
5796.28 1540.22 1537.96 2352.02 2348.19
5799.15 1587.89 1545.07 2419.06 2357.38
5802.02 1507.1 1549.23 2301.05 2356.16
5804.89 1552.7 1531.77 2348.37 2354.21
5807.76 1535.51 1511.35 2413.2 2328
5810.63 1445.83 1466.97 2222.42 2272.76
5813.5 1419.59 1456.07 2182.67 2247.39
5816.37 1502.8 1467.09 2337.08 2249.59
5819.24 1478.88 1483.23 2229.03 2274.2
5822.11 1468.01 1451.48 2256.5 2219.75
5824.98 1407.53 1428.87 2173.72 2216.01
5827.85 1411.08 1418.03 2217.81 2204.54
5830.71 1435.47 1421.36 2222.09 2212.94
5833.58 1417.53 1409.3 2198.91 2197.21
5836.45 1374.9 1409.57 2170.63 2202.64
5839.32 1436.29 1393.97 2238.37 2170.86
5842.19 1370.73 1392.18 2103.59 2155.71
5845.06 1369.53 1364.85 2125.18 2114.47
5847.93 1354.3 1346.62 2114.63 2089.86
5850.79 1316.02 1336.74 2029.77 2080.81
5853.66 1339.91 1326.28 2098.02 2057.52
5856.53 1322.91 1350.86 2044.75 2122.06
5859.4 1389.78 1364.52 2223.4 2160.5
5862.26 1380.88 1366.65 2213.33 2186.41
5865.13 1329.28 1365.62 2122.48 2170.16
5868 1386.71 1347.64 2174.68 2112.85
5870.87 1326.93 1356.69 2041.41 2069.13
5873.73 1356.44 1346.47 1991.3 2029.59
5876.6 1356.04 1366.96 2056.06 2064.56
5879.47 1388.39 1370.14 2146.32 2196.17
5882.34 1365.99 1341.66 2386.11 2284.76
5885.2 1270.6 1337.75 2321.83 2409.9
5888.07 1376.67 1306.63 2521.76 2331.58
5890.93 1272.63 1313.85 2151.16 2205.29
5893.8 1292.24 1297.57 1942.94 1964.84
5896.67 1327.84 1312.89 1800.42 1825.47
5899.53 1318.58 1322.24 1733.05 1777.36
5902.4 1320.31 1315.5 1798.59 1791.44
5905.27 1307.61 1312.98 1842.68 1855.43
5908.13 1311.03 1344.77 1925.02 1952.67
5911 1415.68 1413.44 2090.32 2101.39
5913.86 1513.61 1438.54 2288.83 2153.77
5916.73 1386.32 1418.59 2082.16 2140.44
5919.59 1355.84 1391.63 2050.34 2082.61
5922.46 1432.73 1417.29 2115.34 2140.27
5925.32 1463.29 1425.62 2255.15 2191.92
5928.19 1380.85 1438.97 2205.27 2247.21
5931.05 1472.77 1423.93 2281.21 2206.82
5933.92 1418.17 1452.5 2133.97 2194.36
5936.78 1466.55 1423.2 2167.91 2138.56
5939.65 1384.87 1438.03 2113.81 2137.96
5942.51 1462.68 1435.62 2132.16 2152.69
5945.38 1459.31 1446.23 2212.09 2189.41
5948.24 1416.69 1474.1 2223.99 2252.34
5951.11 1546.31 1489.72 2320.96 2265.28
5953.97 1506.15 1528.4 2250.89 2278.01
5956.83 1532.75 1537.55 2262.18 2269.05
5959.7 1573.74 1527.1 2294.08 2252.74
5962.56 1474.8 1507.26 2201.95 2221.3
5965.43 1473.25 1493.77 2167.88 2220.19
5968.29 1533.26 1510.1 2290.74 2274.71
5971.15 1523.79 1526.08 2365.51 2332.07
5974.02 1521.2 1522.73 2339.97 2326.02
5976.88 1523.19 1536.47 2272.58 2319.67
5979.74 1565.03 1549.16 2346.45 2320.59
5982.6 1559.26 1538.03 2342.73 2300.59
5985.47 1489.8 1527.63 2212.6 2278.63
5988.33 1533.83 1528.76 2280.56 2276.03
5991.19 1562.65 1558.93 2334.92 2323.09
5994.05 1580.31 1561.14 2353.8 2347.48
5996.92 1540.47 1537.98 2353.74 2323.97
5999.78 1493.17 1518.65 2264.38 2298.68
6002.64 1522.32 1517.59 2277.9 2287.58
6005.5 1537.29 1528.48 2320.46 2289.97
6008.37 1525.82 1540.83 2271.55 2296.8
6011.23 1559.38 1547.82 2298.39 2293.8
6014.09 1558.25 1557.31 2311.45 2294.5
6016.95 1554.32 1550.78 2273.67 2280.75
6019.81 1539.79 1539.59 2257.12 2286.62
6022.67 1524.67 1532.92 2329.08 2292.46
6025.53 1534.29 1509.36 2291.17 2282.77
6028.39 1469.12 1509.19 2228.07 2266.71
6031.26 1524.15 1506.4 2280.9 2279.38
6034.12 1525.94 1526.95 2329.16 2296.65
6036.98 1530.75 1525.7 2279.89 2288.07
6039.84 1520.4 1496.06 2255.17 2233.47
6042.7 1437.03 1477.16 2165.34 2214.49
6045.56 1474.03 1452.45 2222.97 2178.43
6048.42 1446.3 1488.39 2146.99 2209.53
6051.28 1544.85 1488.83 2258.63 2196.13
6054.14 1475.34 1505.29 2182.76 2233.65
6057 1495.68 1465.6 2259.57 2201.22
6059.86 1425.79 1472.98 2161.32 2212.13
6062.72 1497.48 1468.22 2215.5 2194.39
6065.58 1481.4 1463.43 2206.34 2176.35
6068.44 1411.41 1446.61 2107.22 2165.4
6071.3 1447.04 1434.06 2182.64 2155.09
6074.15 1443.75 1443.64 2175.43 2178.59
6077.01 1440.12 1430.97 2177.71 2167.16
6079.87 1409.04 1415.03 2148.35 2146.44
6082.73 1395.93 1393.78 2113.27 2102.25
6085.59 1376.37 1377.06 2045.13 2047.52
6088.45 1358.88 1366.95 1984.16 2012.38
6091.31 1365.6 1384.11 2007.84 2036.77
6094.16 1427.85 1345.12 2118.32 2004.1
6097.02 1241.92 1324.17 1886.14 2008.34
6099.88 1302.73 1265.01 2020.56 1938.64
6102.74 1250.37 1262.46 1909.22 1923.74
6105.6 1234.28 1220.6 1841.44 1843.02
6108.45 1177.14 1186.68 1778.41 1787.01
6111.31 1148.64 1155.67 1741.18 1737.66
6114.17 1141.24 1152.07 1693.4 1738.83
6117.03 1166.34 1146.99 1781.91 1715.87
6119.88 1133.4 1123.72 1672.3 1673.55
6122.74 1071.44 1087.24 1566.43 1614.72
6125.6 1056.88 1069.01 1605.43 1596.75
6128.45 1078.7 1038.82 1618.39 1585.72
6131.31 980.867 1032.97 1533.33 1587.65
6134.17 1039.33 1018.92 1611.24 1587.77
6137.02 1036.58 994.347 1618.75 1563.84
6139.88 907.137 970.407 1461.52 1524.55
6142.74 967.506 919.523 1493.38 1434.9
6145.59 883.927 924.491 1349.82 1409.8
6148.45 922.04 879.891 1386.21 1339.4
6151.3 833.707 874.419 1282.19 1323.63
6154.16 867.51 836.198 1302.49 1283.69
6157.02 807.377 843.91 1266.4 1299.64
6159.87 856.842 816.621 1330.02 1278.08
6162.73 785.643 814.716 1237.83 1291.35
6165.58 801.663 771.635 1306.18 1255.93
6168.44 727.597 773.551 1223.77 1263.69
6171.29 791.392 762.181 1261.12 1230.98
6174.15 767.554 753.927 1208.06 1172.87
6177 702.837 737.377 1049.43 1128.48
6179.86 741.74 738.327 1127.95 1111.74
6182.71 770.406 754.09 1157.85 1146.72
6185.56 750.124 738.311 1154.38 1130.35
6188.42 694.404 698.925 1078.83 1094.11
6191.27 652.247 669.264 1049.11 1064.49
6194.13 661.139 645.268 1065.53 1053.01
6196.98 622.419 654.221 1044.4 1068.64
6199.83 679.105 646.45 1095.99 1060.43
6202.69 637.825 645.559 1040.89 1056.83
6205.54 619.747 628.721 1033.61 1033.44
6208.39 628.591 614.081 1025.81 1018.52
6211.25 593.905 604.972 996.145 1003.66
6214.1 592.419 610.569 989.022 998.296
6216.95 645.381 607.272 1009.72 979.49
6219.81 584.017 619.007 939.725 987.351
6222.66 627.624 592.025 1012.61 957.288
6225.51 564.434 588.386 919.532 986.607
6228.36 573.1 580.604 1027.68 1014.72
6231.22 604.278 593.475 1096.93 1063.58
6234.07 603.048 603.784 1066.12 1057.2
6236.92 604.028 587.943 1008.54 990.773
6239.77 556.752 552.436 897.662 921.436
6242.62 496.528 538.11 858.103 906.366
6245.47 561.048 532.032 963.332 931.267
6248.33 538.52 535.892 972.366 977.238
6251.18 508.109 522.279 996.016 1027.27
6254.03 520.209 518.599 1113.41 1076.12
6256.88 527.479 528.715 1118.94 1099.87
6259.73 538.456 544.038 1067.25 1091.15
6262.58 566.178 556.302 1087.26 1051.81
6265.43 564.272 572.946 1000.93 1047.29
6268.28 588.386 574.519 1053.7 1035.2
6271.13 570.898 562.71 1050.98 1037.32
6273.98 528.845 557.413 1007.28 1043.12
6276.83 572.495 568.565 1071.09 1101
6279.68 604.355 592.503 1224.63 1182.85
6282.53 600.659 594.627 1252.83 1224.92
6285.38 578.867 600.995 1197.31 1253.03
6288.23 623.46 608.532 1308.95 1540.26
6291.08 623.269 647.613 2114.51 2182.48
6293.93 696.11 687.868 3123.98 2909.3
6296.78 744.226 741.734 3489.4 3072.76
6299.63 784.867 761.001 2604.89 2291.71
6302.48 753.912 769.087 780.828 1112.02
6305.33 768.483 761.975 -49.6628 237.693
6308.18 763.53 760.346 -18.0848 109.462
6311.03 749.024 773.917 396.133 385.317
6313.87 809.196 779.361 777.903 706.125
6316.72 779.864 793.062 944.34 948.86
6319.57 790.126 810.552 1124.34 1162.04
6322.42 861.666 816.99 1417.45 1334.26
6325.27 799.179 837.754 1460.99 1459.74
6328.11 852.417 837.051 1500.79 1489.03
6330.96 859.557 875.948 1505.32 1522.98
6333.81 915.869 902.952 1562.82 1537.65
6336.66 933.429 932.609 1544.82 1560.78
6339.5 948.529 934.123 1574.71 1573.48
6342.35 920.413 929.902 1600.92 1620.36
6345.2 920.764 912.452 1685.46 1651.48
6348.04 896.181 938.049 1668.07 1715.58
6350.89 997.203 940.198 1793.21 1780.59
6353.74 927.212 978.704 1880.5 1996.48
6356.58 1011.7 976.047 2315.72 2178.48
6359.43 989.23 990.798 2339.23 2257.61
6362.28 971.466 1031.75 2117.88 2065.73
6365.12 1134.56 1055.8 1740.1 1726.15
6367.97 1061.38 1066.24 1320.47 1448.72
6370.82 1002.79 1056.61 1285.61 1392.38
6373.66 1105.66 1058.56 1571.07 1515.04
6376.51 1067.24 1096.43 1688.43 1656.67
6379.35 1116.39 1094.96 1710.5 1731.24
6382.2 1101.24 1127.09 1794.77 1788.58
6385.04 1163.65 1158.87 1860.45 1864.71
6387.89 1211.73 1159.09 1938.91 1880.77
6390.73 1101.89 1152.71 1842.95 1892.15
6393.58 1144.52 1136.41 1894.59 1894.58
6396.42 1162.83 1151.13 1946.21 1920.18
6399.27 1146.05 1168.5 1919.73 1957.68
6402.11 1196.62 1154.69 2007.1 1962.9
6404.95 1121.4 1159.69 1961.88 1985.04
6407.8 1161.06 1153.91 1986.15 1981.53
6410.64 1179.27 1177.38 1996.57 1996.38
6413.49 1191.81 1191.6 2006.41 2005.52
6416.33 1203.74 1195.75 2013.59 2008.35
6419.17 1191.71 1180.9 2005.07 1987.41
6422.02 1147.26 1169.13 1943.58 1978.99
6424.86 1168.42 1169.14 1988.32 1979.97
6427.7 1191.72 1200.03 2008 2015.79
6430.54 1239.95 1209.94 2051.05 2017.4
6433.39 1198.15 1225.44 1993.15 2020.49
6436.23 1238.21 1197.21 2017.26 1994.06
6439.07 1155.25 1224.83 1971.77 2031.57
6441.91 1281.02 1215.59 2105.69 2032.35
6444.76 1210.5 1223.89 2019.59 2031.3
6447.6 1180.14 1208.42 1968.63 2023.07
6450.44 1234.61 1225.72 2081 2060.81
6453.28 1262.42 1231.8 2132.81 2094.9
6456.12 1198.37 1213.63 2070.9 2092.36
6458.97 1180.11 1190.92 2073.36 2059.8
6461.81 1194.28 1201.81 2035.13 2069.21
6464.65 1231.03 1190.84 2099.15 2045.89
6467.49 1147.21 1185.01 2003.38 2001.86
6470.33 1176.8 1181.56 1903.06 1964.98
6473.17 1220.67 1228.45 1988.49 1967.27
6476.01 1287.89 1249.31 2010.26 1993.22
6478.85 1239.37 1263.86 1980.89 1988.96
6481.69 1264.33 1242.54 1975.72 1965.64
6484.53 1223.94 1236.91 1940.3 1969.86
6487.37 1222.47 1225.4 1993.56 2002.83
6490.21 1229.78 1205.91 2074.64 2059.18
6493.05 1165.49 1223.09 2109.34 2121.53
6495.89 1273.99 1229.91 2180.61 2131.8
6498.73 1250.24 1248.22 2105.46 2099.6
6501.57 1220.43 1216.36 2012.74 2016.87
6504.41 1178.41 1205.83 1932.41 1960.67
6507.25 1218.67 1208.83 1936.87 1932.59
6510.09 1229.43 1238.13 1928.5 1939.68
6512.93 1266.28 1225.94 1953.67 1964.56
6515.77 1182.12 1229.48 2011.51 2008.33
6518.6 1240.05 1210.24 2059.8 2025.54
6521.44 1208.54 1219.3 2005.31 2024.78
6524.28 1209.3 1209.95 2009.23 2010.15
6527.12 1212.01 1210.32 2015.91 2010.39
6529.96 1209.65 1241.62 2006.02 2028.98
6532.8 1303.19 1246.51 2065.01 2000.61
6535.63 1226.68 1228.09 1930.8 1932.76
6538.47 1154.4 1204.84 1802.48 1897.61
6541.31 1233.43 1182.8 1959.56 1896.18
6544.14 1160.55 1189.88 1926.51 1956.75
6546.98 1175.66 1192.83 1984.17 1982.41
6549.82 1242.29 1177.73 2036.54 1987.15
6552.66 1115.23 1172.96 1940.75 1959.97
6555.49 1161.35 1140.72 1902.64 1880.8
6558.33 1145.57 1147.91 1799.02 1844.28
6561.17 1136.8 1158.92 1831.2 1826.85
6564 1194.38 1170.35 1850.35 1834.26
6566.84 1179.85 1152.41 1821.23 1789.31
6569.67 1082.99 1114.23 1696.36 1770.03
6572.51 1079.85 1095.14 1792.51 1766.13
6575.34 1122.59 1136.66 1809.53 1812.25
6578.18 1207.53 1165.5 1834.71 1809.99
6581.02 1166.37 1168.44 1785.72 1800.62
6583.85 1131.41 1155.49 1781.43 1782.1
6586.69 1168.68 1151.83 1779.16 1779.88
6589.52 1155.41 1147.94 1779.06 1783.89
6592.36 1119.73 1120.35 1793.44 1764.78
6595.19 1085.91 1078.87 1721.84 1748.23
6598.02 1030.96 1082.38 1729.39 1760.01
6600.86 1130.26 1115.19 1828.8 1802.57
6603.69 1184.36 1137.88 1849.5 1796.89
6606.53 1099.02 1148.21 1712.37 1766.24
6609.36 1161.27 1119.31 1736.83 1717.62
6612.19 1097.66 1101.38 1703.66 1702.54
6615.03 1045.22 1098.28 1667.14 1705.35
6617.86 1151.98 1087.65 1745.26 1702.37
6620.69 1065.76 1118.08 1694.71 1727.73
6623.53 1136.51 1084.95 1743.22 1698.72
6626.36 1052.56 1105.25 1658.23 1719.7
6629.19 1126.67 1103.43 1757.64 1734.01
6632.03 1131.05 1130.35 1786.14 1770.27
6634.86 1133.34 1110.56 1767.03 1741.2
6637.69 1067.3 1116.1 1670.44 1730.18
6640.52 1147.66 1119.65 1753.08 1736.41
6643.35 1144 1129.51 1785.71 1742.86
6646.19 1096.87 1107.65 1689.78 1727.43
6649.02 1082.09 1078.54 1706.8 1678.89
6651.85 1056.67 1067.03 1640.09 1667.76
6654.68 1062.33 1047.15 1656.4 1631.58
6657.51 1022.45 1057.27 1598.24 1642.83
6660.34 1087.04 1055.56 1673.85 1666.11
6663.17 1057.2 1066.95 1726.22 1680.33
6666.01 1056.61 1058.99 1640.91 1668.11
6668.84 1063.15 1044.59 1637.21 1609.65
6671.67 1014.01 1048.64 1550.83 1606.24
6674.5 1068.76 1067.84 1630.7 1623.13
6677.33 1120.75 1089.5 1687.86 1664.16
6680.16 1079 1083.49 1673.93 1666.54
6682.99 1050.71 1074.32 1637.82 1661
6685.82 1093.26 1060.24 1671.24 1637.97
6688.65 1036.74 1071.19 1604.86 1636.34
6691.48 1083.56 1073.36 1632.94 1641.99
6694.31 1099.76 1095.24 1688.18 1676.78
6697.13 1102.39 1072.05 1709.22 1667.31
6699.96 1014 1077.72 1604.52 1667.87
6702.79 1116.79 1057.87 1689.88 1626.31
6705.62 1042.81 1082.21 1584.54 1648.12
6708.45 1087.05 1068.21 1669.94 1618.88
6711.28 1074.77 1070.07 1602.18 1645.46
6714.11 1048.38 1044.05 1664.25 1601.28
6716.93 1009 1023.99 1537.42 1582.59
6719.76 1014.61 1037 1546.1 1583.43
6722.59 1087.4 1028.04 1666.78 1579.27
6725.42 982.125 1050.61 1524.93 1605.73
6728.24 1082.3 1027.85 1625.49 1576.89
6731.07 1019.14 1048.46 1580.25 1598.08
6733.9 1043.93 1035.51 1588.48 1593.11
6736.73 1043.45 1037.6 1610.6 1601.62
6739.55 1025.43 1029.41 1605.78 1573.56
6742.38 1019.33 1031.74 1504.29 1580.55
6745.21 1050.45 1045.88 1631.58 1575.82
6748.03 1067.86 1027.78 1591.59 1572.87
6750.86 965.034 1021.58 1495.44 1557.09
6753.68 1031.86 1006.01 1584.23 1557.21
6756.51 1021.14 1017.05 1591.96 1585.43
6759.34 998.14 1014.29 1580.11 1566.65
6762.16 1023.59 1007.92 1527.87 1554.32
6764.99 1002.04 1009.06 1555 1556.03
6767.81 1001.55 1006.49 1585.23 1572.04
6770.64 1015.89 1021.76 1575.9 1577.62
6773.46 1047.83 1048.15 1571.73 1579.65
6776.29 1080.74 1032 1591.3 1551.83
6779.11 967.423 1021.6 1492.44 1532.38
6781.94 1016.63 1006.01 1513.4 1513.66
6784.76 1033.99 1024.51 1535.15 1536.36
6787.58 1022.9 1017.85 1560.53 1535.14
6790.41 996.669 1005.58 1509.74 1518.78
6793.23 997.156 996.921 1486.07 1486.73
6796.06 996.939 993.205 1464.38 1483.98
6798.88 985.519 974.611 1501.48 1484.6
6801.7 941.376 954.912 1487.93 1470.14
6804.53 937.841 942.773 1421 1452.29
6807.35 949.103 957.213 1447.95 1442.3
6810.17 984.697 964.882 1457.95 1446.57
6812.99 960.845 961.509 1433.81 1428.82
6815.82 938.986 979.118 1394.7 1455.25
6818.64 1037.52 992.943 1537.25 1516.94
6821.46 1002.32 998.376 1618.86 1571.32
6824.28 955.286 972.002 1557.86 1585.77
6827.11 958.401 966.692 1580.58 1531.77
6829.93 986.389 953.895 1456.87 1486.05
6832.75 916.895 937.047 1420.69 1383.5
6835.57 907.857 936.982 1272.93 1352.35
6838.39 986.193 957.176 1363.43 1347.13
6841.21 977.478 975.907 1405.03 1341.82
6844.03 964.051 965.414 1257 1335.54
6846.85 954.713 985.159 1344.58 1335.5
6849.68 1036.71 982.586 1404.93 1339.46
6852.5 956.33 970.881 1268.89 1339.07
6855.32 919.6 931.886 1343.4 1342.86
6858.14 919.728 919.929 1416.3 1376.84
6860.96 920.46 884.137 1370.81 1333.94
6863.78 812.223 859.118 1214.71 1243.62
6866.6 844.671 795.486 1145.35 1131.5
6869.41 729.565 773.734 1034.44 1085.87
6872.23 746.965 738.314 1077.81 1051.45
6875.05 738.412 754.173 1042.09 1070.83
6877.87 777.141 780.006 1092.59 1107.28
6880.69 824.466 797.253 1187.15 1126.8
6883.51 790.152 804.769 1100.65 1140.52
6886.33 799.689 800.808 1133.76 1125.53
6889.15 812.582 808.597 1142.16 1133.5
6891.96 813.519 808.651 1124.58 1129.68
6894.78 799.851 832.771 1122.29 1157.21
6897.6 884.944 840.487 1224.74 1180.78
6900.42 836.667 858.133 1195.31 1212.95
6903.24 852.787 839.895 1218.8 1204.25
6906.05 830.23 823.339 1198.64 1170.98
6908.87 787 803.563 1095.49 1142.68
6911.69 793.459 825.111 1133.91 1204.51
6914.5 894.874 846.39 1384.14 1250.17
6917.32 850.836 874.963 1232.47 1285.99
6920.14 879.178 874.312 1241.36 1267.26
6922.95 892.922 878.357 1327.94 1273.96
6925.77 862.971 865.218 1252.58 1268.6
6928.59 839.761 864.437 1225.29 1261.21
6931.4 890.578 878.437 1305.75 1272.71
6934.22 904.971 896.256 1287.07 1312.54
6937.03 893.22 876.6 1344.8 1290.33
6939.85 831.609 858.777 1239.13 1289.42
6942.66 851.503 872.353 1284.32 1277.91
6945.48 933.947 859.681 1310.29 1260.14
6948.29 793.593 860.289 1185.81 1230.89
6951.11 853.326 839.746 1196.57 1203.24
6953.92 872.317 893.626 1227.34 1266.03
6956.74 955.233 894.099 1374.17 1281.54
6959.55 854.746 897.297 1243.1 1294.51
6962.36 881.912 872.104 1266.27 1261.31
6965.18 879.656 883.778 1274.57 1269.03
6967.99 889.765 884.466 1266.25 1259.62
6970.8 883.976 868.648 1238.03 1249.07
6973.62 832.204 845.471 1242.94 1224.08
6976.43 820.233 829.901 1191.28 1212.32
6979.24 837.265 834.716 1202.75 1193.3
6982.06 846.651 848.063 1185.88 1209.29
6984.87 860.272 863.262 1239.23 1226.33
6987.68 882.863 846.704 1253.87 1215.92
6990.49 796.976 845.263 1154.66 1211.65
6993.31 855.949 823.749 1226.42 1202.12
6996.12 818.322 834.453 1225.28 1199.03
6998.93 829.088 837.226 1145.39 1187.99
7001.74 864.266 826.146 1193.31 1169.23
7004.55 785.082 832.587 1168.99 1175.02
7007.36 848.411 829.354 1162.77 1192.06
7010.17 854.567 843.387 1244.41 1191.61
7012.99 827.184 845.992 1167.63 1209.53
7015.8 856.225 830.774 1216.54 1173.87
7018.61 808.915 840.775 1137.45 1182.59
7021.42 857.186 828.799 1193.78 1166.9
7024.23 820.295 836.934 1169.46 1180.33
7027.04 833.32 828.332 1177.76 1171.98
7029.85 831.381 834.472 1168.72 1177.21
7032.66 838.716 825.946 1185.16 1168.29
7035.47 807.741 836.782 1151 1175.01
7038.28 863.889 816.41 1188.88 1141.31
7041.08 777.601 808.583 1084.07 1130.87
7043.89 784.259 803.125 1119.67 1140.02
7046.7 847.515 818.733 1216.33 1149.12
7049.51 824.427 831.872 1111.36 1167.54
7052.32 823.674 805.018 1174.92 1117.94
7055.13 766.954 805.439 1067.53 1112.14
7057.94 825.69 796.998 1093.96 1098.95
7060.74 798.35 820.207 1135.36 1133.04
7063.55 836.581 807.965 1169.79 1130.84
7066.36 788.963 828.522 1087.36 1136.03
7069.17 860.022 801.96 1150.94 1094.32
7071.97 756.895 811.076 1044.65 1096.22
7074.78 816.313 789.397 1093.07 1057.31
7077.59 794.984 785.93 1034.21 1024.18
7080.39 746.494 787.539 945.258 1013
7083.2 821.137 799.108 1059.53 1024.27
7086.01 829.693 809.282 1068.02 1037.48
7088.81 777.017 792.852 984.885 999.974
7091.62 771.845 765.294 947.023 969.169
7094.42 747.019 784.806 975.601 996.899
7097.23 835.553 775.775 1068.07 1001.19
7100.04 744.754 781.649 959.903 994.651
7102.84 764.642 764.972 955.976 973.177
7105.65 785.519 761.736 1003.65 968.401
7108.45 735.046 765.402 945.576 992.704
7111.26 775.64 758.297 1028.88 979.682
7114.06 764.205 769.016 964.587 978.955
7116.86 767.202 772.714 943.395 962.582
7119.67 786.736 784.745 979.763 996.483
7122.47 800.298 690.917 1066.29 934.162
7125.28 485.719 666.088 756.432 912.871
7128.08 712.249 582.752 915.89 858.685
7130.88 550.289 683.277 903.732 940.361
7133.69 787.292 711.041 1001.46 983.197
7136.49 795.542 778.146 1044.4 1010.82
7139.29 751.605 756.782 986.59 1013.33
7142.1 723.2 738.354 1008.99 1001.31
7144.9 740.256 739.449 1008.34 1000.69
7147.7 754.891 769.433 984.743 1020
7150.5 813.152 763.864 1066.9 1010.93
7153.3 723.548 760.077 981.144 1011.47
7156.11 743.53 739.661 986.354 994.438
7158.91 751.905 750.152 1015.82 1013.7
7161.71 755.021 757.102 1038.94 1026.92
7164.51 764.382 730.732 1026.01 1005.31
7167.31 672.793 721.725 950.973 998.256
7170.11 728.002 714.191 1017.78 1008.62
7172.91 741.779 725.481 1057.1 1018.25
7175.71 706.661 710.725 979.879 994.491
7178.51 683.735 707.158 946.492 987.896
7181.31 731.078 702.197 1037.32 973.497
7184.11 691.778 727.682 936.682 997.457
7186.91 760.189 729.041 1018.37 971.905
7189.71 735.157 751.695 960.663 1006.6
7192.51 759.739 757.3 1040.77 1010.28
7195.31 777.003 723.382 1029.4 995.544
7198.11 633.404 713.08 916.459 974.836
7200.91 728.833 680.52 978.644 945.519
7203.71 679.323 702.124 941.454 957.656
7206.51 698.215 705.372 952.872 965.169
7209.31 738.579 720.3 1001.18 980.304
7212.1 724.105 721.26 986.859 984.809
7214.9 701.094 677.496 966.388 983.589
7217.7 607.287 641.448 997.521 1002.26
7220.5 615.964 606.861 1042.89 1001.25
7223.3 597.333 587.409 963.348 971.503
7226.09 548.931 565.151 908.276 932.232
7228.89 549.189 557.672 925.071 860.169
7231.69 574.896 550.391 747.161 809.851
7234.48 527.088 542.198 757.32 765.38
7237.28 524.61 547.32 791.658 846.97
7240.08 590.261 564.47 991.933 968.151
7242.87 578.538 581.164 1120.86 1065.38
7245.67 574.692 559.065 1083.34 1093.86
7248.46 523.965 549.66 1077.38 1080.79
7251.26 550.324 551.916 1081.65 1052.33
7254.05 581.46 571.661 997.949 1020.81
7256.85 583.198 576.202 982.844 961.677
7259.64 563.948 549.684 904.236 913.956
7262.44 501.906 543.285 854.786 831.114
7265.23 564.001 542.443 734.318 742.92
7268.03 561.423 554.952 639.656 698.78
7270.82 539.433 569.197 722.367 794.02
7273.62 606.734 577.568 1020.04 931.829
7276.41 586.537 565.102 1053.08 1053.77
7279.2 502.035 543.002 1088.18 1034.98
7282 540.435 534.353 963.673 1051.33
7284.79 560.588 532.154 1102.14 992.532
7287.58 495.439 541.707 911.784 984.309
7290.38 569.095 542.797 939.004 907.426
7293.17 563.856 578.8 871.491 894.458
7295.96 603.447 575.172 872.877 902.332
7298.75 558.212 566.557 962.627 898.684
7301.55 538.014 554.837 860.548 891.486
7304.34 568.284 562.058 851.281 805.777
7307.13 579.875 564.034 705.501 732.166
7309.92 543.944 576.704 639.716 769.066
7312.71 606.294 578.31 961.982 882.38
7315.5 584.691 569.914 1045.44 992.839
7318.29 518.758 529.842 971.092 965.601
7321.09 486.076 522.439 880.269 896.785
7323.88 562.485 531.973 838.995 864.624
7326.67 547.359 555.808 874.608 833.474
7329.46 557.582 559.9 786.818 773.514
7332.25 574.759 580.161 659.117 711.119
7335.04 608.141 581.78 687.421 744.542
7337.83 562.44 592.848 887.089 945.257
7340.62 607.964 573.132 1261.26 1087.24
7343.4 548.993 555.963 1113.38 1105.68
7346.19 510.933 530.043 942.399 971.62
7348.98 530.204 509.45 859.082 842.168
7351.77 487.212 527.097 725.023 805.401
7354.56 563.875 540.244 832.097 800.18
7357.35 569.645 554.359 843.421 774.78
7360.14 529.557 530.649 648.822 698.913
7362.92 492.746 516.47 604.496 696.153
7365.71 527.107 522.977 835.141 821.132
7368.5 549.077 571.184 1023.76 1000.98
7371.29 637.369 547.419 1144.03 1024.34
7374.07 455.812 524.821 905.224 964.835
7376.86 481.281 486.419 845.253 848.015
7379.65 522.163 510.701 793.567 786.069
7382.43 528.66 534.256 719.388 756.739
7385.22 551.946 528.224 757.263 742.542
7388.01 504.065 513.685 750.975 727.477
7390.79 485.045 490.11 674.192 702.357
7393.58 481.221 486.007 681.903 685.548
7396.36 491.756 514.951 700.549 778.905
7399.15 571.877 529.621 954.263 886.375
7401.93 525.231 541.946 1004.31 963.667
7404.72 528.732 520.023 932.426 953.907
7407.5 506.106 518.95 924.984 895.936
7410.29 522.013 524.906 830.398 869.811
7413.07 546.599 518.74 854.052 828.092
7415.86 487.609 506.143 799.827 793.172
7418.64 484.223 485.906 725.637 728.804
7421.42 485.886 507.555 660.948 702
7424.21 552.556 505.861 719.415 700.764
7426.99 479.14 519.132 721.929 718.424
7429.77 525.701 507.129 713.927 717.51
7432.56 516.545 505.948 716.674 747.414
7435.34 475.597 495.558 811.641 800.492
7438.12 494.532 483.633 873.161 837.038
7440.9 480.769 489.195 826.311 824.083
7443.69 492.284 472.36 772.778 779.33
7446.47 444.027 468.939 738.902 740.955
7449.25 470.506 466.053 711.185 716.486
7452.03 483.626 481.475 699.369 698.686
7454.81 490.294 485.946 685.504 685.451
7457.59 483.918 485.564 671.48 664.043
7460.37 482.481 486.638 635.144 647.322
7463.15 493.514 484.275 635.342 635.842
7465.93 476.831 487.713 637.041 664.876
7468.72 492.795 478.075 722.244 681.644
7471.5 464.598 469.613 685.645 663.696
7474.28 451.445 455.405 583.199 639.662
7477.05 450.17 467.598 650.141 700.977
7479.83 501.179 467.872 869.591 774.187
7482.61 452.266 477.589 802.829 817.429
7485.39 479.322 454.833 779.868 776.753
7488.17 432.911 453.288 747.563 727.739
7490.95 447.633 434.083 655.787 701.013
7493.73 421.706 446.253 699.688 696.983
7496.51 469.419 436.449 735.476 703.927
7499.28 418.222 445.513 676.619 692.855
7502.06 448.897 438.925 666.471 658.023
7504.84 449.656 448.163 630.978 641.481
7507.62 445.935 443.678 626.994 599.819
7510.39 435.444 441.711 541.484 526.372
7513.17 443.754 434.276 410.637 417.422
7515.95 423.629 434.647 300.144 382.562
7518.73 436.559 431.316 436.903 447.094
7521.5 433.759 433.094 604.236 633.744
7524.28 428.963 416.027 860.094 769.736
7527.05 385.358 404.451 844.878 830.984
7529.83 399.032 407.225 787.981 798.94
7532.61 437.285 435.838 763.96 770.11
7535.38 471.197 457.565 758.39 727.904
7538.16 464.212 433.826 661.362 676.788
7540.93 366.069 428.107 610.611 637.449
7543.71 454.039 415.553 640.376 604.097
7546.48 426.552 425.329 561.306 575.025
7549.25 395.395 410.208 523.392 565.509
7552.03 408.676 393.473 611.83 553.838
7554.8 376.347 387.336 526.293 568.988
7557.58 376.985 386.308 568.843 522.963
7560.35 405.593 378.262 473.752 461.795
7563.12 352.207 360.512 342.79 400.803
7565.9 323.735 365.35 385.868 434.292
7568.67 420.108 375.021 574.219 571.248
7571.44 381.222 376.506 753.656 668.063
7574.21 328.19 368.473 676.314 698.698
7576.99 396.009 358.44 666.125 613.561
7579.76 351.123 376.943 498.245 582.18
7582.53 383.697 362.223 582.171 550.474
7585.3 351.85 356.243 571.006 574.565
7588.07 333.182 328.324 570.519 520.462
7590.84 299.94 288.994 419.862 452.242
7593.61 233.859 246.683 366.346 401.576
7596.39 206.251 189.281 418.521 375.167
7599.16 127.732 149.794 340.635 329.301
7601.93 115.398 119.069 228.747 242.112
7604.7 114.076 122.517 156.952 173.442
7607.47 138.076 135.769 134.625 143.531
7610.24 155.155 165.197 139.016 170.345
7613.01 202.361 197.893 237.394 222.061
7615.77 236.163 221.194 289.773 280.578
7618.54 225.059 233.706 314.569 312.318
7621.31 239.895 225.303 332.614 317.829
7624.08 210.954 213.682 306.305 338.09
7626.85 190.197 201.655 375.351 340.696
7629.62 203.815 212.096 340.432 373.139
7632.39 242.275 217.364 403.633 354.262
7635.15 206.003 220.325 318.721 337.705
7637.92 212.698 211.563 290.76 305.718
7640.69 215.988 218.205 307.672 293.396
7643.46 225.93 229.628 281.758 307.359
7646.22 246.968 249.362 332.647 318.999
7648.99 275.188 255.989 342.594 343.468
7651.76 245.812 267.012 355.162 335.927
7654.52 280.035 272.517 310.023 353.783
7657.29 291.704 298.482 396.163 407.626
7660.05 323.706 317.669 516.691 483.543
7662.82 337.596 340.598 537.773 531.781
7665.58 360.491 342.403 540.877 528.998
7668.35 329.122 336.008 508.345 514.383
7671.11 318.411 329.728 493.926 482.439
7673.88 341.651 332.843 445.048 446.208
7676.64 338.468 334.689 399.651 412.455
7679.41 323.947 328.326 392.666 412.085
7682.17 322.565 328.558 443.937 436.547
7684.94 339.162 335.489 473.037 461.134
7687.7 344.739 346.969 466.428 474.283
7690.46 357.006 355.086 483.385 495.873
7693.23 363.514 359.476 537.806 515.799
7695.99 357.909 357.456 526.204 504.474
7698.75 350.946 358.618 449.411 396.745
7701.51 367.001 368.494 214.619 180.241
7704.28 387.536 363.092 -123.307 -66.4081
7707.04 334.74 361.71 -290.537 -103.727
7709.8 362.855 359.881 102.663 174.889
7712.56 382.048 360.954 712.541 609.313
7715.32 337.958 367.243 1012.74 932.831
7718.09 381.724 361.187 1073.21 978.425
7720.85 363.878 370.251 849.323 902.758
7723.61 365.15 375.484 785.735 794.761
7726.37 397.425 387.095 749.226 710.232
7729.13 398.71 382.535 595.735 623.813
7731.89 351.469 366.265 526.479 536.506
7734.65 348.616 360.529 487.304 457.543
7737.41 381.501 365.768 358.847 258.366
7740.17 367.187 378.435 -71.0533 68.7509
7742.93 386.618 380.153 -81.5409 27.3837
7745.69 386.655 375.786 234.745 259.847
7748.44 354.087 391.131 626.336 603.89
7751.2 432.653 396.766 950.589 803.741
7753.96 403.559 401.077 834.298 845.293
7756.72 367.019 384.059 750.992 799.322
7759.48 381.599 379.009 812.675 747.736
7762.23 388.409 381.462 679.541 663.168
7764.99 374.378 380.66 497.287 551.919
7767.75 379.193 386.439 478.929 465.538
7770.51 405.746 378.028 420.398 438.775
7773.26 349.144 381.641 416.997 465.548
7776.02 390.033 391.305 559.249 526.729
7778.78 434.737 421.841 603.94 553.321
7781.53 440.752 431.106 496.774 427.499
7784.29 417.829 406.911 181.783 265.347
7787.04 362.151 400.03 117.483 250.208
7789.8 420.11 398.245 451.358 453.386
7792.55 412.476 422.248 791.319 738.882
7795.31 434.158 416.517 973.969 800.598
7798.06 402.918 395.416 636.506 677.676
7800.82 349.172 369.523 422.553 488.853
7803.57 356.48 379.566 407.5 461.984
7806.33 433.046 402.594 555.898 460.56
7809.08 418.255 414.697 418.281 377.164
7811.83 392.788 406.879 157.314 212.955
7814.59 409.594 421.385 63.269 225.692
7817.34 461.773 443.48 456.493 445.545
7820.09 459.075 440.604 816.874 770.824
7822.85 400.963 433.913 1039.11 922.076
7825.6 441.701 405.526 910.249 848.467
7828.35 373.913 385.173 596.047 634.416
7831.1 339.907 369.258 396.952 445.878
7833.85 393.954 379.231 344.637 379.491
7836.61 403.831 393.88 396.883 379.28
7839.36 383.855 404.883 396.319 330.946
7842.11 426.962 391.383 199.634 156.041
7844.86 363.332 404.648 -127.832 33.1341
7847.61 423.651 406.223 27.5996 107.507
7850.36 431.686 441.98 422.752 437.599
7853.11 470.602 403.822 862.444 721.719
7855.86 309.179 394.541 879.962 822.491
7858.61 403.842 370.007 725.066 723.382
7861.36 396.999 396.936 565.117 583.105
7864.11 389.967 411.531 459.133 539.173
7866.86 447.626 409.226 593.27 562.656
7869.61 390.085 418.7 635.566 626.014
7872.35 418.39 395.896 649.205 610.537
7875.1 379.213 407.355 546.841 556.169
7877.85 424.463 404.814 472.46 493.966
7880.6 410.765 426.904 462.597 481.89
7883.35 445.484 429.784 510.612 522.952
7886.09 433.104 431.537 595.648 600.412
7888.84 416.022 409.301 694.977 707.726
7891.59 378.776 387.615 832.555 729.787
7894.33 368.047 371.855 661.83 684.959
7897.08 368.743 383.573 560.491 520.283
7899.83 413.93 403.668 338.527 280.795
7902.57 428.332 422.642 -56.6324 -47.7446
7905.32 425.663 403.483 -425.129 -251.356
7908.06 356.453 399.274 -272.306 -131.438
7910.81 415.705 395.281 303.121 310.311
7913.55 413.686 400.139 900.118 739.485
7916.3 371.026 398.28 1015.22 958.349
7919.04 410.129 383.09 959.713 915.451
7921.79 368.114 392.822 771.425 767.216
7924.53 400.224 374.74 570.508 633.973
7927.28 355.881 389.673 559.985 582.76
7930.02 412.913 381.6 617.788 619.609
7932.76 376.006 406.809 681.056 623.372
7935.51 431.506 389.232 571.273 545.729
7938.25 360.183 396.825 384.857 434.819
7940.99 398.787 383.368 348.326 355.94
7943.73 391.134 376.479 334.636 388.308
7946.48 339.516 383.66 481.961 471.711
7949.22 420.33 379.313 598.534 488.178
7951.96 378.094 393.129 384.039 334.699
7954.7 380.963 372.965 21.5247 83.0048
7957.44 359.837 382.954 -156.549 25.0831
7960.18 408.063 362.656 210.274 201.093
7962.92 320.068 375.678 549.554 574.744
7965.67 398.904 362.412 964.404 759.579
7968.41 368.264 372.883 764.778 705.52
7971.15 351.48 359.216 387.378 504.724
7973.89 357.903 354.846 362.016 400.742
7976.63 355.156 367.666 452.831 462.906
7979.36 389.94 384.466 573.873 455.744
7982.1 408.302 383.481 340.528 285.172
7984.84 352.2 366.763 -58.8861 74.0523
7987.58 339.786 350.083 -59.4853 90.4412
7990.32 358.262 369.505 389.695 388.72
7993.06 410.466 371.222 835.951 738.59
7995.8 344.938 361.653 990.125 861.149
7998.53 329.556 327.258 757.371 759.619
8001.27 307.282 337.457 531.362 532.612
8004.01 375.533 341.56 309.104 363.56
8006.74 341.864 352.087 250.213 274.433
8009.48 338.864 284.649 263.981 242.54
8012.22 173.218 272.762 213.426 262.187
8014.95 306.204 276.153 309.153 195.41
8017.69 349.038 329.678 63.6516 164.523
8020.43 333.792 347.217 120.766 203.246
8023.16 358.823 332.164 425.32 436.53
8025.9 303.879 334.488 763.504 660.588
8028.63 340.762 310.681 792.941 715.661
8031.37 287.403 334.975 590.538 647.068
8034.1 376.76 332.255 557.726 528.71
8036.83 332.603 336.786 437.867 447.371
8039.57 300.996 319.141 346.52 356.19
8042.3 323.823 318.883 284.183 311.198
8045.04 331.83 325.626 302.89 313.209
8047.77 321.224 319.505 352.553 311.388
8050.5 305.461 318.65 278.722 302.658
8053.23 329.264 312.783 276.698 273.036
8055.97 303.623 306.49 263.688 279.075
8058.7 286.583 287.095 296.839 337.476
8061.43 271.08 289.665 451.901 431.139
8064.16 311.331 303.435 544.678 487.571
8066.89 327.893 309.279 466.134 484.614
8069.63 288.613 313.673 443.029 435.578
8072.36 324.513 302.012 397.571 396.647
8075.09 292.911 307.338 349.342 368.678
8077.82 304.591 298.392 359.12 348.693
8080.55 297.674 290.22 337.617 328.682
8083.28 268.396 287.724 289.31 312.159
8086.01 297.103 276.445 309.549 309.903
8088.74 263.836 271.941 330.85 324.152
8091.47 254.885 252.079 332.056 338.012
8094.2 237.517 253.182 351.129 343.928
8096.92 267.143 251.441 348.598 357.514
8099.65 249.662 242.521 372.813 384.974
8102.38 210.758 231.953 433.512 409.873
8105.11 235.438 234.704 423.294 403.613
8107.84 257.918 242.384 354.033 393.233
8110.56 233.797 253.039 402.371 367.262
8113.29 267.403 236.289 345.381 361.349
8116.02 207.669 230.853 336.296 327.43
8118.75 217.486 214.867 300.612 329.143
8121.47 219.447 219.507 350.522 318.424
8124.2 221.587 223.443 304.138 338.189
8126.92 229.294 220.748 359.906 317.579
8129.65 211.363 216.369 288.693 302.987
8132.38 208.451 215.581 260.362 284.978
8135.1 226.93 224.996 305.879 297.983
8137.83 239.608 233.485 327.708 337.59
8140.55 233.915 238.237 379.182 344.535
8143.28 241.188 226.206 326.715 328.483
8146 203.516 232.026 279.553 327.972
8148.72 251.375 226.184 377.648 333.375
8151.45 223.661 236.134 342.923 358.76
8154.17 233.367 227.042 355.708 332.728
8156.89 224.098 223.394 299.553 330.675
8159.62 212.716 214.256 336.765 309.153
8162.34 205.955 205.672 291.143 302.346
8165.06 198.346 186.542 279.131 281.47
8167.78 155.326 175.518 274.135 272.84
8170.51 172.883 183.207 265.253 275.826
8173.23 221.412 206.4 288.089 277.762
8175.95 224.903 221.778 279.945 286.939
8178.67 219.019 218.939 292.782 282.253
8181.39 212.893 215.597 274.032 271.465
8184.11 214.879 212.79 247.58 264.622
8186.83 210.597 212.151 272.255 277.709
8189.55 210.977 206.175 313.294 284.626
8192.27 196.952 203.653 268.33 298.002
8194.99 203.031 204.749 312.381 289.839
8197.71 214.263 210.082 288.808 289.46
8200.43 212.952 201.329 267.192 277.988
8203.15 176.771 204.739 277.965 259.56
8205.87 224.495 212.391 233.523 275.849
8208.59 235.909 221.773 316.06 289.346
8211.3 204.915 211.362 318.454 291.932
8214.02 193.262 202.58 241.28 284.425
8216.74 209.562 210.358 293.541 266.939
8219.46 228.249 214.747 265.996 274.572
8222.17 206.431 216.27 264.179 279.662
8224.89 214.129 201.331 308.81 288.325
8227.61 183.433 198.32 291.986 283.021
8230.32 197.397 195.648 248.265 276.925
8233.04 206.112 209.114 290.523 274.501
8235.76 223.832 210.175 284.717 273.277
8238.47 200.58 212.466 244.59 260.909
8241.19 212.987 217.064 253.418 269.506
8243.9 237.624 204.588 310.509 281.208
8246.62 163.154 212.178 279.697 293.338
8249.33 235.758 211.324 289.807 291.112
8252.04 235.059 225.057 303.832 312.144
8254.76 204.354 225.348 342.792 318.967
8257.47 236.631 219.965 310.277 312.363
8260.19 218.91 219.107 284.02 298.734
8262.9 201.78 206.912 301.904 280.215
8265.61 200.044 210.763 254.722 262.375
8268.32 230.466 216.612 230.499 204.894
8271.04 219.328 217.972 129.461 115.587
8273.75 204.122 215.139 -13.1995 35.5175
8276.46 221.967 220.038 -9.70926 4.51351
8279.17 234.024 229.782 36.4493 41.9986
8281.88 233.356 231.406 99.2558 128.292
8284.59 226.838 201.674 249.17 202.466
8287.3 144.828 182.854 258.974 263.904
8290.01 176.895 172.371 283.567 251.869
8292.73 195.39 198.183 213.067 239.991
8295.44 222.264 215.709 223.34 299.486
8298.14 229.472 221.905 462.053 405.629
8300.85 213.978 217.761 531.495 484.789
8303.56 209.832 209.298 460.82 425.223
8306.27 204.082 203.495 283.356 338.188
8308.98 196.569 192.229 270.389 281.536
8311.69 176.035 191.859 290.863 302.544
8314.4 202.974 194.2 346.382 313.066
8317.11 203.591 200.893 301.952 318.56
8319.81 196.115 207.715 307.346 295.184
8322.52 223.439 215.962 276.253 281.899
8325.23 228.333 223.685 262.099 258.926
8327.93 219.283 221.168 238.425 247.391
8330.64 215.888 193.948 241.649 183.285
8333.35 146.674 176.868 69.7818 55.4735
8336.05 168.044 162.906 -145.01 -144.563
8338.76 174 167.959 -358.461 -211.239
8341.46 161.834 206.061 -130.245 -78.567
8344.17 282.35 218.25 253.006 224.302
8346.87 210.566 223.141 550.146 473.169
8349.58 176.508 174.221 616.356 537.095
8352.28 135.59 152.159 444.784 501.228
8354.99 144.378 158.647 442.545 409.32
8357.69 195.971 162.851 340.63 333.207
8360.39 148.203 184.101 216.445 266.488
8363.1 208.129 179.508 242.388 237.194
8365.8 182.192 199.444 252.75 274.627
8368.5 208.012 190.138 328.743 292.974
8371.2 180.209 193.97 297.429 292.447
8373.91 193.688 190.894 251.168 238.123
8376.61 198.785 196.443 165.772 189.638
8379.31 196.856 199.282 151.975 178.333
8382.01 202.206 196.457 217.251 232.758
8384.71 190.309 178.299 329.049 279.098
8387.41 142.382 177.876 290.993 283.279
8390.11 200.936 178.116 229.796 188.674
8392.81 191.032 205.842 45.2328 128.538
8395.51 225.558 228.451 110.587 78.0381
8398.21 268.762 227.663 78.2948 200.72
8400.91 188.669 219.498 413.277 353.713
8403.61 201.062 190.546 569.568 460.658
8406.31 181.908 184.463 399.128 384.619
8409.01 170.42 186.734 185.162 242.595
8411.71 207.873 201.375 143.496 194.128
8414.41 225.833 212.175 253.727 252.496
8417.1 202.818 208.768 360.264 313.942
8419.8 197.652 189.679 327.836 263.779
8422.5 168.567 190.34 103.236 186.158
8425.19 204.801 212.723 127.402 163.75
8427.89 264.801 216.297 260.612 214.382
8430.59 179.288 199.012 255.133 243.928
8433.28 152.948 173.567 216.039 233.461
8435.98 188.464 174.657 229.212 194.123
8438.68 182.558 191.024 137.12 196.658
8441.37 202.05 190.244 223.643 174.303
8444.07 186.123 199.136 162.146 204.807
8446.76 209.236 206.101 228.633 186.378
8449.45 222.945 215.956 168.356 225.987
8452.15 215.686 219.983 280.971 227.661
8454.84 221.317 194.332 233.656 222.125
8457.54 145.994 179.791 151.747 185.768
8460.23 172.061 181.858 171.901 162.64
8462.92 227.519 215.672 164.27 182.696
8465.62 247.435 219.882 211.916 193.887
8468.31 184.692 211.182 205.474 227.942
8471 201.42 197.652 266.437 249.361
8473.69 206.845 203.799 276.171 257.065
8476.38 203.134 200.812 228.586 239.291
8479.07 192.458 196.886 213.117 227.217
8481.77 195.067 186.8 239.949 227.181
8484.46 172.877 185.176 228.477 231.751
8487.15 187.583 182.084 226.826 220.734
8489.84 185.793 200.067 206.898 229.785
8492.53 226.824 189.727 255.631 228.727
8495.22 156.564 187.032 223.651 232.212
8497.91 177.707 183.859 217.353 229.937
8500.59 217.305 197.633 248.806 239.567
8503.28 197.887 206.425 252.542 253.963
8505.97 204.084 193.489 260.541 227.798
8508.66 178.494 199.881 170.31 210.816
8511.35 217.065 206.255 201.597 198.063
8514.04 223.205 213.491 222.281 212.102
8516.72 200.203 204.04 212.429 225.536
8519.41 188.713 203.606 241.898 222.597
8522.1 221.901 202.936 213.463 235.588
8524.78 198.194 208.101 251.404 233.784
8527.47 204.208 203.149 236.485 242.989
8530.16 207.044 199.097 241.078 231.906
8532.84 186.04 196.692 218.154 242.708
8535.53 196.991 203.996 268.891 250.825
8538.21 228.957 212.086 265.431 249.79
8540.9 210.31 222.436 215.047 244.834
8543.58 228.04 213.539 254.023 231.644
8546.27 202.266 201.217 225.862 231.103
8548.95 173.344 210.989 213.425 202.044
8551.63 257.357 214.787 166.846 186.964
8554.32 213.66 235.799 180.619 202.755
8557 236.379 212.696 260.8 196.428
8559.68 188.047 205.793 147.866 194.303
8562.36 192.953 194.213 174.244 177.019
8565.05 201.64 212.764 208.946 192.401
8567.73 243.7 220.946 194.014 198.969
8570.41 217.499 213.412 193.946 188.716
8573.09 179.039 205.806 178.188 182.991
8575.77 220.882 220.338 176.84 190.839
8578.45 261.095 240.416 217.489 200.325
8581.13 239.27 246.745 206.647 211.491
8583.81 239.869 244.768 210.336 216.747
8586.49 255.165 251.993 233.257 223.938
8589.17 260.945 248.336 228.221 239.519
8591.85 228.898 223.359 257.077 233.893
8594.53 180.233 219.771 216.38 236.677
8597.21 250.181 224.04 236.573 236
8599.89 241.706 238.903 255.046 229.167
8602.57 224.822 235.967 195.882 210.915
8605.24 241.375 230.512 181.818 205.896
8607.92 225.338 238.822 239.988 255.535
8610.6 249.752 248.413 344.798 302.642
8613.28 270.149 252.955 323.138 330.527
8615.95 238.963 255.608 323.645 333.285
8618.63 257.711 238.575 353.07 354.37
8621.31 219.05 242.937 386.394 359.917
8623.98 252.05 223.289 340.286 333.865
8626.66 198.768 226.997 274.914 296.317
8629.33 230.171 220.967 273.75 254.286
8632.01 233.962 229.656 214.195 226.112
8634.68 224.836 243.601 190.39 186
8637.36 272.006 239.76 153.415 180.458
8640.03 222.437 256.634 197.57 188.012
8642.7 275.459 254.353 213.052 233.732
8645.38 265.162 276.252 290.572 272.684
8648.05 288.136 271.149 314.427 315.631
8650.72 260.15 264.653 341.893 313.797
8653.39 245.673 241.825 285.07 306.827
8656.07 219.651 236.224 293.519 275.482
8658.74 243.348 251.775 247.858 238.534
8661.41 292.326 271.341 174.224 222.267
8664.08 278.349 269.011 244.718 204.449
8666.75 236.357 248.281 194.406 213.706
8669.42 230.138 242.921 201.995 189.593
8672.09 262.267 240.664 172.378 182.109
8674.76 229.586 240.688 171.954 181.274
8677.43 230.21 231.173 199.491 196.273
8680.1 233.723 238.472 217.373 196.841
8682.77 251.482 245.596 173.658 202.09
8685.44 251.582 245.186 215.24 201.612
8688.11 232.494 247.751 215.94 227.169
8690.78 259.178 257.83 250.327 238.55
8693.45 281.817 264.075 249.384 257.668
8696.11 251.23 266.221 273.292 271.576
8698.78 265.616 263.904 292.052 274.668
8701.45 274.867 257.492 258.661 268.198
8704.12 231.995 249.971 253.882 253.997
8706.78 243.051 242.085 249.447 233.556
8709.45 251.209 252.424 197.338 243.475
8712.11 263.014 259.279 283.641 229.321
8714.78 263.615 263.108 206.986 238.353
8717.45 262.695 263.823 224.433 230.193
8720.11 265.16 254.183 259.161 239.663
8722.77 234.695 249.61 235.393 255.116
8725.44 248.974 246.874 270.795 242.918
8728.1 256.953 245.821 222.565 237.447
8730.77 231.535 245.843 218.982 222.765
8733.43 249.041 247.193 226.748 226.183
8736.09 261.004 249.098 232.817 226.362
8738.76 237.248 244.585 219.521 245.789
8741.42 235.504 245.708 285.029 253.052
8744.08 264.372 250.348 254.606 270.907
8746.74 251.168 264.464 273.086 271.759
8749.41 277.85 252.131 287.585 280.945
8752.07 227.373 261.256 282.165 391.158
8754.73 278.546 237.435 603.723 645.631
8757.39 206.387 246.584 1051 967.785
8760.05 254.818 252.057 1248.63 1236.01
8762.71 294.967 286.66 1408.4 1232.26
8765.37 310.196 285.685 1039.76 960.85
8768.03 251.892 277.872 434.39 527.447
8770.69 271.526 234.409 108.195 120.259
8773.35 179.807 240.548 -181.809 58.6993
8776 270.31 241.337 249.712 143.469
8778.66 273.894 263.504 362.503 177.777
8781.32 246.307 240.937 -78.8836 -206.344
8783.98 202.61 232.071 -902.652 -584.164
8786.64 247.296 231.279 -770.957 -686.319
8789.29 243.931 242.07 -385.347 -406.391
8791.95 234.983 238.284 -62.8681 -136.118
8794.61 235.939 236.938 39.8623 -38.7187
8797.26 239.892 246.498 -93.1501 -67.4581
8799.92 263.662 247.129 -149.086 -94.7558
8802.57 237.833 254.122 -42.0309 -35.6539
8805.23 260.871 250.017 84.1555 66.7247
8807.88 251.349 269.325 158.049 180.714
8810.54 295.755 268.618 299.938 235.132
8813.19 258.75 254.208 247.41 258.844
8815.85 208.118 243.69 229.185 280.299
8818.5 264.203 236.688 364.301 522.473
8821.15 237.743 257.707 973.932 1305.75
8823.81 271.175 220.753 2579.02 2217.21
8826.46 153.341 220.279 3098.69 2689.58
8829.11 236.321 224.849 2391.03 2004.9
8831.76 284.886 245.531 524.972 694.534
8834.41 215.385 252.147 -832.397 -522.496
8837.07 256.169 242.933 -1260.06 -1107.92
8839.72 257.246 240.788 -1231.29 -1320.84
8842.37 208.949 238.467 -1471.17 -1263.42
8845.02 249.206 228.464 -1087.82 -1040.45
8847.67 227.237 244.824 -562.362 -576.29
8850.32 258.03 248.976 -78.6916 -191.64
8852.97 261.661 243.189 66.134 -14.8637
8855.62 209.877 232.63 -32.0336 -8.57398
8858.27 226.351 222.259 -59.8223 -14.0935
8860.92 230.549 231.211 49.5753 155.699
8863.56 236.733 242.254 477.345 453.768
8866.21 259.481 239.402 834.385 700.35
8868.86 221.993 242.039 789.321 676.072
8871.51 244.643 216.815 404.51 344.801
8874.15 183.809 215.514 -159.426 -19.1564
8876.8 218.091 195.285 -302.552 -177.631
8879.45 183.956 192.725 -70.9151 240.904
8882.09 176.129 194.478 1096.18 998.628
8884.74 223.349 183.238 1970.62 1648.98
8887.38 150.236 171.536 1880.15 1571.29
8890.03 141.022 139.256 863.109 639.677
8892.67 126.511 137.137 -824.223 -423.945
8895.32 143.878 151.625 -1310.72 -1070.6
8897.96 184.485 175.609 -1076.86 -900.388
8900.61 198.463 197.451 -313.584 -361.968
8903.25 209.404 190.967 304.539 146.488
8905.89 165.034 180.16 448.51 242.229
8908.54 166.041 169.075 -26.3612 34.5203
8911.18 176.151 172.892 -318.588 -120.259
8913.82 176.483 166.779 -15.827 335.352
8916.46 147.702 172.514 1340.47 1175.76
8919.1 193.355 167.85 2202.62 1853.87
8921.74 162.494 175.94 2018.5 1602.78
8924.39 171.971 177.682 587.225 498.405
8927.03 198.581 175.798 -1110.51 -731.821
8929.67 156.842 170.072 -1672.17 -1441.71
8932.31 154.793 168.238 -1542.45 -1466.45
8934.95 193.08 169.476 -1184.71 -1158.55
8937.59 160.555 172.565 -748.476 -627.123
8940.22 164.059 178.016 51.8202 -50.7814
8942.86 209.435 193.31 544.311 425.707
8945.5 206.437 184.004 680.99 519.87
8948.14 136.141 158.916 334.309 319.17
8950.78 134.171 147.648 -57.7881 220.396
8953.41 172.633 147.027 384.668 533.304
8956.05 134.276 161.298 1273.03 1099.09
8958.69 176.986 161.359 1639.56 1336.89
8961.32 172.815 163.196 1098.07 850.419
8963.96 139.788 153.636 -186.377 -31.8667
8966.6 148.304 141.04 -1007.29 -790.669
8969.23 135.029 147.097 -1178.34 -1058.63
8971.87 157.959 142.799 -990.249 -977.239
8974.5 135.409 159.166 -763.132 -768.063
8977.14 184.129 155.856 -550.809 -546.428
8979.77 148.03 165.52 -325.341 -305.477
8982.4 164.402 157.264 -40.2812 -4.51152
8985.04 159.359 159.568 352.088 302.307
8987.67 154.944 141.349 595.114 517.787
8990.3 109.743 135.552 606.16 520.004
8992.94 141.968 130.75 358.738 389.723
8995.57 140.538 131.647 204.272 359.76
8998.2 112.435 128.89 516.27 524.736
9000.83 133.698 132.308 853.667 735.528
9003.46 150.792 133.124 836.646 678.885
9006.09 114.882 145.84 346.342 285.335
9008.72 171.845 144.691 -326.983 -198.024
9011.35 147.347 158.776 -613.432 -506.48
9013.98 157.134 139.505 -579.026 -556.166
9016.61 114.032 125.048 -476.04 -468.003
9019.24 103.978 117.252 -348.941 -359.471
9021.87 133.744 130.08 -253.431 -223.92
9024.5 152.516 139.101 -69.3876 -103.881
9027.13 131.044 149.072 11.1745 11.1227
9029.76 163.656 146.748 91.5811 91.7447
9032.38 145.544 152.616 172.479 205.654
9035.01 148.647 149.083 352.901 302.862
9037.64 153.057 151.211 383.208 379.837
9040.26 151.929 148.393 403.402 361.073
9042.89 140.193 137.166 296.609 343.49
9045.52 119.376 143.145 330.46 374.808
9048.14 169.867 137.363 497.354 472.335
9050.77 122.845 141.28 589.191 494.077
9053.39 131.128 130.298 395.684 348.394
9056.02 136.921 138.5 60.3056 89.0443
9058.64 147.45 142.024 -188.857 -115.317
9061.26 141.701 146.985 -217.401 -189.82
9063.89 151.802 133.415 -163.202 -188.063
9066.51 106.742 109.35 -183.588 -176.185
9069.13 69.5064 58.7495 -181.764 -121.784
