wavelength spectrum_sum 3smoothed_sum spectrum_optimal 3smoothed_optimal
3503.68 143.374 111.228 116.748 88.7021
3506.61 190.309 197.232 149.358 162.909
3509.53 258.012 245.655 222.622 205.207
3512.46 288.646 279.973 243.643 234.172
3515.38 293.263 291.395 236.252 237.71
3518.31 292.278 300.361 233.235 243.965
3521.23 315.543 295.975 262.409 240.848
3524.16 280.103 293.653 226.9 242.343
3527.08 285.315 286.811 237.721 238.501
3530.01 295.016 293.574 250.883 250.044
3532.93 300.392 297.606 261.527 257.228
3535.86 297.41 293.045 259.275 262.581
3538.78 281.332 301.898 266.941 275.871
3541.71 326.95 306.162 301.397 286.488
3544.63 310.205 312.78 291.124 294.872
3547.56 301.184 297.924 292.095 276.956
3550.48 282.383 311.725 247.648 293.916
3553.41 351.609 319.38 342.005 298.496
3556.33 324.149 337.894 305.836 313.923
3559.26 337.923 337.416 293.927 300.432
3562.18 350.175 351.983 301.532 308.047
3565.11 367.851 364.601 328.681 317.334
3568.03 375.777 369.574 321.788 321.404
3570.96 365.093 366.616 313.742 316.068
3573.88 358.979 370.39 312.672 316.028
3576.81 387.096 374.778 321.669 316.576
3579.73 378.259 384.71 315.386 322.011
3582.66 388.776 388.507 328.978 329.132
3585.58 398.486 386.077 343.033 328.415
3588.5 370.969 371.608 313.233 316.942
3591.43 345.369 365.934 294.559 316.906
3594.35 381.463 355.036 342.925 308.232
3597.28 338.275 377.38 287.211 327.295
3600.2 412.403 382.381 351.75 329.418
3603.13 396.465 405.61 349.294 349.957
3606.05 407.962 411.263 348.827 357.759
3608.97 429.362 419.887 375.155 362.87
3611.9 422.338 432.79 364.629 377.684
3614.82 446.671 435.655 393.267 378.587
3617.75 437.956 432.543 377.866 375.479
3620.67 413.003 430.216 355.305 370.684
3623.59 439.689 415.765 378.88 363.519
3626.52 394.604 430.019 356.372 382.217
3629.44 455.762 431.887 411.398 388.687
3632.36 445.293 459.622 398.291 411.466
3635.29 477.809 441.487 424.708 400.374
3638.21 401.358 436.579 378.124 390.835
3641.13 430.569 434.896 369.674 388.081
3644.06 472.762 437.03 416.444 380.135
3646.98 407.76 429.359 354.287 374.661
3649.91 407.555 389.707 353.253 348.805
3652.83 353.807 395.78 338.874 363.319
3655.75 425.979 402.889 397.83 373.002
3658.68 428.881 412.137 382.3 372.136
3661.6 381.55 405.507 336.278 358.08
3664.52 406.091 378.712 355.661 335.776
3667.45 348.494 384.409 315.389 337.52
3670.37 398.642 360.575 341.508 321.74
3673.29 334.588 364.601 308.322 322.066
3676.21 360.574 350.81 316.367 313.073
3679.14 357.268 364.221 314.53 314.526
3682.06 374.82 364.389 312.679 304.76
3684.98 361.08 354.028 287.07 289.893
3687.91 326.184 321.894 269.931 270.503
3690.83 278.419 299.714 254.506 264.904
3693.75 294.54 282.064 270.273 256.352
3696.67 273.234 290.296 244.275 259.114
3699.6 303.114 287.514 262.794 247.558
3702.52 286.193 285.374 235.606 248.059
3705.44 266.815 273.984 245.778 238.153
3708.36 268.943 269.432 233.076 234.561
3711.29 272.537 273.751 224.831 237.637
3714.21 279.772 268.598 255.005 233.359
3717.13 253.485 271.01 220.242 238.884
3720.05 279.772 255.096 241.405 230.855
3722.98 232.032 255.765 230.919 233.258
3725.9 255.492 249.675 227.45 231.145
3728.82 261.5 253.522 235.065 229.528
3731.74 243.573 250.619 226.071 226.002
3734.67 246.785 244.028 216.869 223.166
3737.59 241.726 248.258 226.559 224.536
3740.51 256.265 260.266 230.18 229.206
3743.43 282.809 251.735 230.88 224.077
3746.35 216.131 242.768 211.171 220.88
3749.28 229.365 216.427 220.589 213.043
3752.2 203.786 220.799 207.37 212.548
3755.12 229.246 213.93 209.686 198.839
3758.04 208.758 203.067 179.461 184.221
3760.96 171.196 196.849 163.517 184.679
3763.88 210.593 206.626 211.058 206.685
3766.81 238.09 218.895 245.481 233.853
3769.73 208.002 214.822 245.019 233.774
3772.65 198.373 208.405 210.822 231.036
3775.57 218.84 200.954 237.266 222.247
3778.49 185.648 212.269 218.654 231.59
3781.41 232.32 220.373 238.85 233.478
3784.34 243.15 247.483 242.929 243.957
3787.26 266.98 264.191 250.091 252.871
3790.18 282.444 257.03 265.595 252.922
3793.1 221.667 253.855 243.079 252.824
3796.02 257.454 234.864 249.797 242.257
3798.94 225.472 245.05 233.894 251.122
3801.86 252.224 256.065 269.675 265.831
3804.78 290.501 286.874 293.925 298.292
3807.7 317.898 297.957 331.277 307.417
3810.63 285.473 305.688 297.048 317.921
3813.55 313.691 302.019 325.438 320.191
3816.47 306.891 318.062 338.087 335.017
3819.39 333.604 316.82 341.525 331.13
3822.31 309.964 321.577 313.777 326.425
3825.23 321.165 323.132 323.972 327.776
3828.15 338.267 337.258 345.581 332.115
3831.07 352.343 355.095 326.792 340.33
3833.99 374.675 382.209 348.617 363.137
3836.91 419.608 389.98 414.001 375.081
3839.83 375.658 391.215 362.625 379.67
3842.75 378.378 393.122 362.384 384.413
3845.67 425.331 401.723 428.232 392.892
3848.59 401.46 398.186 388.062 393.128
3851.51 367.768 394.651 363.091 390.859
3854.43 414.726 389.175 421.423 393.693
3857.35 385.032 400.323 396.566 406.834
3860.27 401.21 397.202 402.514 401.636
3863.19 405.364 409.784 405.827 407.075
3866.12 422.778 422.052 412.883 416.044
3869.04 438.013 441.282 429.42 436.598
3871.96 463.056 445.592 467.49 438.873
3874.87 435.707 455.891 419.708 447.767
3877.79 468.908 469.306 456.102 455.008
3880.71 503.304 510.593 489.213 504.073
3883.63 559.568 560.757 566.905 564.408
3886.55 619.4 580.385 637.106 603.89
3889.47 562.188 596.726 607.66 613.544
3892.39 608.59 594.559 595.866 603.078
3895.31 612.898 629.417 605.707 633.568
3898.23 666.764 643.864 699.13 658.079
3901.15 651.93 668.266 669.4 696.754
3904.07 686.105 668.264 721.73 725.151
3906.99 666.758 700.939 784.323 780.846
3909.91 749.955 742.6 836.484 850.547
3912.83 811.086 782.67 930.834 875.598
3915.75 786.969 819.701 859.475 897.671
3918.67 861.049 849.544 902.705 895.37
3921.59 900.613 881.796 923.93 913.319
3924.51 883.725 887.511 913.323 898.419
3927.43 878.197 886.686 858.003 883.808
3930.34 898.138 904.019 880.097 878.548
3933.26 935.721 952.179 897.546 919.262
3936.18 1022.68 994.72 980.143 958.706
3939.1 1025.76 1046.19 998.43 1028.9
3942.02 1090.12 1068.72 1108.12 1088.09
3944.94 1090.28 1054.9 1157.72 1089.97
3947.86 984.298 1072.99 1004.07 1102.9
3950.78 1144.4 1104.25 1146.9 1111.95
3953.69 1184.06 1142.87 1184.89 1147.71
3956.61 1100.14 1149.02 1111.35 1136.83
3959.53 1162.87 1139.89 1114.23 1111.91
3962.45 1156.67 1176.94 1110.14 1126.27
3965.37 1211.28 1209.51 1154.43 1158.61
3968.29 1260.57 1274.35 1211.26 1218.9
3971.21 1351.21 1281.64 1291.01 1237.27
3974.12 1233.13 1279.16 1209.54 1247.58
3977.04 1253.14 1248.91 1242.19 1243.28
3979.96 1260.48 1278.67 1278.11 1284.7
3982.88 1322.39 1318.48 1333.8 1330.25
3985.8 1372.58 1346.29 1378.82 1370.24
3988.71 1343.9 1358.68 1398.09 1398.59
3991.63 1359.57 1336.4 1418.86 1399.01
3994.55 1305.73 1331.31 1380.07 1394.19
3997.47 1328.63 1335.38 1383.64 1399.58
4000.39 1371.76 1352.96 1435.02 1405.86
4003.3 1358.49 1372.8 1398.93 1425.89
4006.22 1388.14 1355.72 1443.72 1419
4009.14 1320.53 1381.03 1414.36 1436.27
4012.06 1434.4 1370.38 1450.72 1419.38
4014.97 1356.2 1374.65 1393.07 1416.24
4017.89 1333.34 1357.69 1404.92 1408.6
4020.81 1383.54 1351.19 1427.81 1400.58
4023.73 1336.7 1355.11 1369.01 1401.87
4026.64 1345.1 1307.62 1408.8 1356.17
4029.56 1241.04 1323.39 1290.69 1386.12
4032.48 1384.03 1333.16 1458.87 1394.56
4035.4 1374.42 1341.22 1434.13 1410.23
4038.31 1265.21 1314.58 1337.7 1372.09
4041.23 1304.1 1295.14 1344.43 1349.57
4044.15 1316.12 1292.2 1366.58 1350.22
4047.06 1256.39 1237.66 1339.66 1321.31
4049.98 1140.47 1222.52 1257.69 1312.73
4052.9 1270.69 1222.89 1340.84 1320.44
4055.81 1257.5 1264.17 1362.77 1348.19
4058.73 1264.3 1256.46 1340.96 1338.5
4061.65 1247.59 1242.8 1311.76 1317.02
4064.56 1216.49 1247.1 1298.33 1332.63
4067.48 1277.23 1243.05 1387.82 1326.04
4070.4 1235.44 1255.82 1291.98 1355.23
4073.31 1254.79 1270.54 1385.89 1353.55
4076.23 1321.4 1287.05 1382.79 1373.22
4079.15 1284.97 1297.39 1350.96 1360.46
4082.06 1285.79 1285.97 1347.63 1352.77
4084.98 1287.16 1267.53 1359.73 1342.37
4087.9 1229.63 1285.89 1319.74 1358.57
4090.81 1340.88 1309.65 1396.25 1379.25
4093.73 1358.45 1371.27 1421.78 1434.39
4096.64 1414.47 1405.59 1485.14 1453.78
4099.56 1443.84 1442.61 1454.43 1495.06
4102.48 1469.52 1487.68 1545.62 1529.4
4105.39 1549.69 1505.8 1588.15 1566.5
4108.31 1498.19 1536.97 1565.73 1597.75
4111.22 1563.04 1524.27 1639.37 1618.52
4114.14 1511.59 1566.05 1650.47 1658.11
4117.06 1623.52 1581.31 1684.5 1676.82
4119.97 1608.82 1626.05 1695.49 1700.29
4122.89 1645.83 1629.68 1720.87 1719.53
4125.8 1634.38 1643.53 1742.24 1741.12
4128.72 1650.39 1696.02 1760.24 1801.31
4131.63 1803.3 1737.1 1901.44 1841.2
4134.55 1757.6 1777.99 1861.91 1882.19
4137.46 1773.07 1766.66 1883.2 1884.69
4140.38 1769.31 1805.01 1908.96 1919.67
4143.29 1872.64 1843.67 1966.83 1956.89
4146.21 1889.07 1864 1994.87 1984.72
4149.13 1830.28 1854.79 1992.44 1973.67
4152.04 1845.01 1872.69 1933.68 1998.02
4154.96 1942.78 1925.42 2067.95 2043.57
4157.87 1988.46 1946.89 2129.08 2086.51
4160.79 1909.44 1913.93 2062.51 2088.29
4163.7 1843.9 1908.16 2073.29 2092.33
4166.61 1971.14 1945.08 2141.19 2113.98
4169.53 2020.21 1989.18 2127.45 2154.16
4172.44 1976.17 1998.87 2193.84 2159.42
4175.36 2000.21 1990.69 2156.98 2160.01
4178.27 1995.7 1988.14 2129.21 2130.9
4181.19 1968.51 1985.78 2106.52 2126.22
4184.1 1993.15 1982.47 2142.93 2125.27
4187.02 1985.74 1986.89 2126.37 2129.85
4189.93 1981.79 1938.36 2120.26 2100.02
4192.85 1847.56 1902.09 2053.43 2079.11
4195.76 1876.92 1884.59 2063.63 2067.75
4198.67 1929.28 1893.64 2086.17 2079.21
4201.59 1874.71 1916.29 2087.82 2090.94
4204.5 1944.87 1908.55 2098.82 2100.49
4207.42 1906.07 1902.88 2114.83 2074.95
4210.33 1857.7 1915.88 2011.21 2084.58
4213.24 1983.86 1894.76 2127.71 2044.64
4216.16 1842.72 1898.08 1995 2042.12
4219.07 1867.65 1877.74 2003.67 2016.52
4221.99 1922.84 1850.33 2050.9 2005.59
4224.9 1760.51 1844.77 1962.2 1997.52
4227.81 1850.97 1864.8 1979.46 2020.79
4230.73 1982.92 1896.61 2120.7 2036.93
4233.64 1855.94 1902.41 2010.64 2034.71
4236.55 1868.36 1845.44 1972.8 1976.02
4239.47 1812.02 1803.3 1944.61 1925.74
4242.38 1729.51 1786.06 1859.81 1955.88
4245.29 1816.65 1809.98 2063.22 1988.78
4248.21 1883.77 1836.63 2043.32 2050.28
4251.12 1809.47 1874.69 2044.29 2056.04
4254.03 1930.84 1853.74 2080.5 2034.21
4256.95 1820.9 1853.3 1977.84 2016.99
4259.86 1808.16 1816.94 1992.62 1980.79
4262.77 1821.77 1843.27 1971.9 2018.41
4265.69 1899.89 1841.21 2090.71 2032.79
4268.6 1801.96 1858.11 2035.74 2048.8
4271.51 1872.49 1840.73 2019.95 2035.9
4274.42 1847.75 1831.59 2052.01 2006.03
4277.34 1774.52 1775.55 1946.13 1981.24
4280.25 1704.37 1734.86 1945.56 1928.43
4283.16 1725.7 1741.59 1893.59 1928.68
4286.07 1794.7 1750.72 1946.9 1935.22
4288.99 1731.76 1751.29 1965.17 1933.03
4291.9 1727.42 1715.97 1887.01 1897.99
4294.81 1688.73 1688.05 1841.8 1839.86
4297.72 1648.01 1668.99 1790.76 1791.89
4300.64 1670.22 1646.19 1743.12 1764.33
4303.55 1620.35 1637.79 1759.12 1740.23
4306.46 1622.78 1614.14 1718.44 1724.41
4309.37 1599.29 1622.64 1695.69 1714.2
4312.29 1645.85 1616.34 1728.48 1710.6
4315.2 1603.87 1607.21 1707.63 1711.29
4318.11 1571.91 1570.42 1697.77 1690.51
4321.02 1535.48 1531.85 1666.12 1649.06
4323.93 1488.15 1518.85 1583.29 1640.6
4326.84 1532.92 1467.76 1672.4 1603.58
4329.76 1382.21 1469.94 1555.05 1605.66
4332.67 1494.68 1403.59 1589.54 1546.22
4335.58 1333.88 1407.03 1494.06 1551.83
4338.49 1392.54 1391.71 1571.88 1541.73
4341.4 1448.72 1404.95 1559.26 1548.73
4344.31 1373.61 1421.73 1515.06 1554.9
4347.22 1442.85 1394.08 1590.38 1527
4350.14 1365.77 1389.07 1475.56 1518.09
4353.05 1358.6 1345.14 1488.32 1472.26
4355.96 1311.06 1287.84 1452.88 1445.79
4358.87 1193.85 1258.1 1396.15 1411.06
4361.78 1269.4 1219.87 1384.14 1377.19
4364.69 1196.36 1256.23 1351.28 1400.46
4367.6 1302.94 1237.63 1465.96 1385.44
4370.51 1213.59 1263.06 1339.08 1398.15
4373.42 1272.66 1251.32 1389.4 1379.87
4376.33 1267.73 1255.73 1411.14 1383.64
4379.25 1226.79 1232.64 1350.38 1357.1
4382.16 1203.4 1196.44 1309.78 1337.97
4385.07 1159.13 1214.18 1353.76 1345.01
4387.98 1280.01 1260.49 1371.49 1369.42
4390.89 1342.34 1306.9 1383 1397.66
4393.8 1298.36 1313.32 1438.47 1401.75
4396.71 1299.27 1278.2 1383.78 1379.75
4399.62 1236.97 1287.28 1316.99 1396.68
4402.53 1325.59 1305.84 1489.27 1422.71
4405.44 1354.97 1364.5 1461.86 1501.88
4408.35 1412.95 1384.71 1554.52 1506
4411.26 1386.22 1381.64 1501.63 1514.16
4414.17 1345.76 1386.25 1486.33 1520.63
4417.08 1426.77 1402.2 1573.95 1544.01
4419.99 1434.06 1424 1571.75 1570.48
4422.9 1411.17 1444.43 1565.74 1602.54
4425.81 1488.06 1477.11 1670.14 1644.24
4428.72 1532.09 1507.98 1696.83 1667.88
4431.63 1503.79 1494.38 1636.68 1686.89
4434.54 1447.26 1506.1 1727.17 1711.68
4437.45 1567.27 1550.55 1771.19 1771.67
4440.35 1637.12 1608.34 1816.65 1801.68
4443.26 1620.62 1637.24 1817.21 1813.92
4446.17 1653.99 1651.16 1807.91 1832.34
4449.08 1678.86 1676.75 1871.91 1847.42
4451.99 1697.4 1704.53 1862.43 1880.8
4454.9 1737.32 1723.85 1908.07 1901.88
4457.81 1736.84 1738.93 1935.14 1912.82
4460.72 1742.64 1741.61 1895.25 1920.03
4463.63 1745.37 1738.92 1929.7 1912.89
4466.54 1728.74 1722.41 1913.73 1897.26
4469.45 1693.11 1698.55 1848.35 1870.96
4472.35 1673.8 1720.79 1850.8 1909.01
4475.26 1795.48 1680.17 2027.89 1912.59
4478.17 1571.24 1690.79 1859.07 1929.65
4481.08 1705.66 1673.1 1901.99 1887.06
4483.99 1742.4 1689.19 1900.11 1894.16
4486.9 1619.52 1682.84 1880.37 1884.71
4489.8 1686.59 1632.2 1873.66 1885.22
4492.71 1590.48 1656.76 1901.63 1887.2
4495.62 1693.21 1645.73 1886.31 1868.05
4498.53 1653.49 1659.51 1816.21 1845.98
4501.44 1631.82 1600.05 1835.41 1813.4
4504.35 1514.85 1589.04 1788.58 1813.21
4507.25 1620.46 1599.44 1815.64 1829.78
4510.16 1663 1666.64 1885.11 1874.07
4513.07 1716.46 1684.14 1921.47 1895.27
4515.98 1672.96 1696.94 1879.23 1903.51
4518.88 1701.41 1667.41 1909.84 1901.58
4521.79 1627.87 1631.18 1915.69 1895.26
4524.7 1564.28 1648.21 1860.26 1923.59
4527.61 1752.48 1709.55 1994.84 1960.39
4530.51 1811.89 1776.38 2026.09 1992.86
4533.42 1764.77 1772.8 1957.64 1994.91
4536.33 1741.73 1772.83 2000.99 2004.91
4539.24 1811.98 1803.68 2056.09 2052.95
4542.14 1857.33 1852.24 2101.78 2093.84
4545.05 1887.41 1890.96 2123.65 2130.4
4547.96 1928.15 1901.14 2165.76 2124.54
4550.86 1887.86 1914.49 2084.2 2130.68
4553.77 1927.45 1935.67 2142.07 2142.6
4556.68 1991.7 2000.63 2201.54 2217.2
4559.59 2082.75 2050.4 2308 2291.87
4562.49 2076.75 2046.51 2366.06 2315.7
4565.4 1980.03 2028.84 2273.04 2305.71
4568.31 2029.72 1990.49 2278.01 2294.31
4571.21 1961.73 2035.86 2331.86 2334.74
4574.12 2116.13 2066.61 2394.34 2371.41
4577.02 2121.98 2109.49 2388.04 2377.42
4579.93 2090.38 2113.16 2349.89 2384.38
4582.84 2127.11 2120.55 2415.2 2390.72
4585.74 2144.17 2148.85 2407.06 2408.55
4588.65 2175.28 2150.23 2403.38 2413.28
4591.56 2131.26 2130.09 2429.4 2419.08
4594.46 2083.72 2153.4 2424.46 2454.6
4597.37 2245.23 2187.86 2509.94 2469.52
4600.27 2234.63 2243.79 2474.15 2510.89
4603.18 2251.5 2229.43 2548.57 2488.77
4606.09 2202.15 2225.05 2443.6 2510.01
4608.99 2221.51 2188.06 2537.86 2469.02
4611.9 2140.51 2202.79 2425.59 2484.11
4614.8 2246.34 2185.65 2488.86 2446.27
4617.71 2170.1 2199.58 2424.35 2460.64
4620.61 2182.3 2166.88 2468.73 2491.11
4623.52 2148.25 2175.51 2580.27 2509.42
4626.42 2195.99 2194.23 2479.25 2536.92
4629.33 2238.46 2251.61 2551.23 2543.36
4632.23 2320.38 2237.32 2599.61 2538.52
4635.14 2153.13 2239.74 2464.72 2533.38
4638.04 2245.73 2171.79 2535.8 2502.41
4640.95 2116.53 2165.47 2506.7 2521.5
4643.85 2134.17 2135.81 2521.99 2495.16
4646.76 2156.73 2177.44 2456.79 2532.87
4649.66 2241.4 2205.99 2619.83 2540.95
4652.57 2219.85 2227.61 2546.23 2559.73
4655.47 2221.58 2214.44 2513.13 2557.88
4658.38 2201.89 2193.58 2614.3 2520.37
4661.28 2157.27 2219.36 2433.69 2558.02
4664.19 2298.92 2239.84 2626.07 2533.62
4667.09 2263.33 2257.85 2541.09 2559.18
4669.99 2211.3 2203.82 2510.38 2522.69
4672.9 2136.84 2198.79 2516.59 2534.71
4675.8 2248.24 2220.83 2577.17 2557.63
4678.71 2277.4 2248.2 2579.14 2602.55
4681.61 2218.95 2227.33 2651.33 2607.09
4684.52 2185.65 2238.52 2590.81 2617.44
4687.42 2310.96 2247.38 2610.17 2601.58
4690.32 2245.52 2250.93 2603.76 2577.28
4693.23 2196.3 2240.08 2517.91 2570.91
4696.13 2278.43 2254.81 2591.05 2575.63
4699.03 2289.69 2243.99 2617.92 2543.05
4701.94 2163.84 2228.69 2420.19 2518
4704.84 2232.54 2210.09 2515.9 2487.59
4707.74 2233.89 2193.09 2526.68 2481.22
4710.65 2112.84 2169.9 2401.09 2452.08
4713.55 2162.98 2138.97 2428.46 2427.59
4716.45 2141.08 2114.01 2453.22 2411.04
4719.36 2037.96 2086.41 2351.43 2405.93
4722.26 2080.19 2064.52 2413.15 2376.88
4725.16 2075.41 2013.19 2366.05 2349.27
4728.07 1883.96 1997.2 2268.6 2315.33
4730.97 2032.23 1963.82 2311.33 2299.18
4733.87 1975.27 2007.08 2317.6 2303.79
4736.77 2013.75 1983.48 2282.43 2281.42
4739.68 1961.42 1973.63 2244.23 2268.3
4742.58 1945.7 1970.16 2278.24 2270.3
4745.48 2003.36 1962.4 2288.42 2259.66
4748.38 1938.14 1979.11 2212.32 2281.02
4751.29 1995.84 1958.06 2342.33 2253.51
4754.19 1940.21 1897.46 2205.89 2234.07
4757.09 1756.33 1842.02 2153.99 2203.16
4759.99 1829.53 1813.21 2249.6 2177.95
4762.89 1853.78 1854.73 2130.26 2165.28
4765.8 1880.89 1834.94 2115.97 2137.03
4768.7 1770.16 1818.93 2164.86 2133.58
4771.6 1805.75 1842.19 2119.91 2161.72
4774.5 1950.66 1900.94 2200.38 2181.66
4777.4 1946.42 1920.13 2224.68 2167.28
4780.31 1863.32 1887.95 2076.77 2171.37
4783.21 1854.12 1875.66 2212.66 2164.09
4786.11 1909.55 1863.76 2202.83 2183.66
4789.01 1827.61 1852.35 2135.47 2173.32
4791.91 1819.9 1842.49 2181.66 2163.4
4794.81 1879.96 1854.86 2173.07 2174.38
4797.71 1864.7 1879.38 2168.39 2170.58
4800.62 1893.47 1880 2170.27 2164.51
4803.52 1881.82 1883.34 2154.86 2161.97
4806.42 1874.72 1824.58 2160.77 2133.27
4809.32 1717.21 1820.87 2084.17 2127.03
4812.22 1870.68 1779.74 2136.16 2078.16
4815.12 1751.32 1820.58 2014.16 2098.72
4818.02 1839.74 1790.79 2145.84 2081.1
4820.92 1781.31 1792.84 2083.28 2081.87
4823.82 1757.47 1763.97 2016.49 2045.7
4826.72 1753.14 1746.11 2037.33 2023.65
4829.62 1727.72 1714.56 2017.14 2040.34
4832.52 1662.81 1701.32 2066.54 2037.33
4835.42 1713.41 1731.5 2028.3 2074.31
4838.32 1818.27 1772.58 2128.09 2089.87
4841.22 1786.07 1779.14 2113.23 2079.08
4844.12 1733.08 1735.09 1995.94 2044.73
4847.02 1686.12 1714.33 2025.02 2020.59
4849.92 1723.79 1722.64 2040.81 2048.71
4852.82 1758 1737.08 2080.31 2054.27
4855.72 1729.44 1751.51 2041.69 2074.01
4858.62 1767.09 1744.44 2100.04 2062.47
4861.52 1736.78 1753.83 2045.68 2058.91
4864.42 1757.63 1762.58 2031 2039.13
4867.32 1793.32 1746.58 2040.71 2038.42
4870.22 1688.78 1739.07 2043.55 2042.29
4873.12 1735.1 1714.19 2042.61 2021.8
4876.02 1718.7 1715.58 1979.25 2012.91
4878.92 1692.95 1696.71 2016.87 1987.65
4881.82 1678.47 1721.19 1966.83 2003.5
4884.72 1792.15 1744.23 2026.81 2011.62
4887.61 1762.08 1754.89 2041.24 2012.55
4890.51 1710.44 1725.64 1969.59 1986.47
4893.41 1704.4 1696.34 1948.59 1971.72
4896.31 1674.17 1660.23 1996.98 1933.65
4899.21 1602.14 1583.17 1855.39 1865.63
4902.11 1473.2 1549.82 1744.51 1824.14
4905.01 1574.13 1416.73 1872.51 1651.85
4907.9 1202.86 1518.11 1338.52 1773.36
4910.8 1777.33 1571.99 2109.06 1855.77
4913.7 1735.8 1770.06 2119.74 2093.54
4916.6 1797.05 1665.93 2051.82 1956.8
4919.5 1464.96 1577.88 1698.84 1831
4922.4 1471.64 1445.86 1742.34 1702.16
4925.29 1400.98 1382.78 1665.29 1669.53
4928.19 1275.71 1364 1600.96 1638.42
4931.09 1415.29 1334.35 1649 1590.55
4933.99 1312.06 1335.96 1521.67 1557.26
4936.88 1280.54 1298.52 1501.11 1518.64
4939.78 1302.97 1266.39 1533.15 1507.15
4942.68 1215.65 1264.06 1487.18 1508.16
4945.58 1273.56 1259.52 1504.16 1512.12
4948.47 1289.34 1257.89 1545.02 1535.08
4951.37 1210.78 1285.29 1556.06 1563.42
4954.27 1355.75 1289.06 1589.17 1571.13
4957.17 1300.66 1327.57 1568.16 1576.36
4960.06 1326.29 1324.98 1571.75 1571.51
4962.96 1348 1308.27 1574.63 1555.45
4965.86 1250.51 1321.87 1519.96 1566.24
4968.75 1367.09 1328.46 1604.12 1580.79
4971.65 1367.77 1370.82 1618.29 1620.1
4974.55 1377.6 1358.44 1637.88 1616.76
4977.44 1329.95 1366.12 1594.11 1638.14
4980.34 1390.82 1304.19 1682.44 1607.67
4983.24 1191.79 1330.44 1546.47 1624.1
4986.13 1408.71 1334.83 1643.4 1624.14
4989.03 1403.97 1435.24 1682.55 1689.82
4991.92 1493.05 1458.41 1743.52 1713.42
4994.82 1478.21 1508.43 1714.18 1763.15
4997.72 1554.04 1496.79 1831.77 1754.61
5000.61 1458.11 1502 1717.88 1768.98
5003.51 1493.84 1482.63 1757.28 1750.49
5006.4 1495.92 1533.48 1776.3 1826.48
5009.3 1610.66 1573.35 1945.87 1871.39
5012.2 1613.46 1664.37 1892 1996.01
5015.09 1768.99 1993.74 2150.17 2410.39
5017.99 2598.76 2015.93 3188.98 2446.48
5020.88 1680.03 1986.57 2000.27 2366.76
5023.78 1680.91 1648.05 1911.03 1941.4
5026.67 1583.22 1667.89 1912.91 1965.72
5029.57 1739.53 1664.88 2073.21 1992.5
5032.46 1671.9 1661.08 1991.39 2013.56
5035.36 1571.81 1658.52 1976.07 2005.04
5038.25 1731.85 1645.6 2047.65 1983.45
5041.15 1633.13 1634.97 1926.63 1975.62
5044.04 1539.93 1569.62 1952.58 1952.68
5046.94 1535.79 1585.17 1978.82 1983.64
5049.83 1679.78 1653.62 2019.53 2037.63
5052.73 1745.28 1649.26 2114.54 2024.95
5055.62 1522.71 1659.25 1940.78 2023.8
5058.51 1709.76 1626.43 2016.09 1975.88
5061.41 1646.82 1684.86 1970.76 2005.64
5064.3 1698.02 1685.07 2030.08 2009.58
5067.2 1710.36 1713.36 2027.9 2039.34
5070.09 1731.71 1720.49 2060.03 2044.88
5072.98 1719.39 1735.87 2046.7 2076.07
5075.88 1756.52 1735.44 2121.49 2079
5078.77 1730.39 1745.14 2068.8 2086.63
5081.67 1748.5 1717.07 2069.59 2091.09
5084.56 1672.31 1723.63 2134.87 2090.19
5087.45 1750.08 1742.07 2066.11 2107.63
5090.35 1803.82 1807.94 2121.92 2136.99
5093.24 1869.92 1845.34 2222.95 2187.88
5096.13 1862.29 1849.08 2218.76 2187.47
5099.03 1815.03 1826.76 2120.69 2152.6
5101.92 1802.97 1814.16 2118.33 2128.29
5104.81 1824.48 1827.38 2145.85 2165.7
5107.71 1854.68 1831.93 2232.9 2173.66
5110.6 1816.64 1808.88 2142.22 2158.29
5113.49 1755.32 1793.94 2099.75 2144.74
5116.38 1809.85 1749.79 2192.26 2145.39
5119.28 1684.19 1767.93 2144.16 2157.76
5122.17 1809.75 1764.53 2136.85 2138.68
5125.06 1799.65 1800.92 2135.02 2131.66
5127.95 1793.37 1811.02 2123.11 2154.7
5130.85 1840.03 1800.49 2205.97 2183.9
5133.74 1768.08 1799.93 2222.63 2245.28
5136.63 1791.69 1767.21 2307.24 2248.06
5139.52 1741.86 1816.46 2214.33 2277.8
5142.41 1915.82 1806.81 2311.85 2261.82
5145.31 1762.75 1888.51 2259.27 2303.67
5148.2 1986.97 1933.12 2339.88 2338.8
5151.09 2049.63 2001.67 2417.26 2359.94
5153.98 1968.4 1997.06 2322.69 2371.14
5156.87 1973.15 1951.98 2373.46 2374.91
5159.76 1914.39 1940.65 2428.59 2383.93
5162.66 1934.41 1891.62 2349.75 2371.57
5165.55 1826.06 1917.24 2336.37 2354.23
5168.44 1991.26 1906.08 2376.57 2331.02
5171.33 1900.94 1976.73 2280.12 2356.8
5174.22 2038 1928.02 2413.72 2347.65
5177.11 1845.11 1891.79 2349.11 2377.07
5180 1792.25 1811.58 2368.37 2401.19
5182.89 1797.38 1833.61 2486.08 2453.47
5185.78 1911.19 1863.95 2505.95 2482.39
5188.67 1883.29 1884.5 2455.12 2457.23
5191.56 1859.03 1870.65 2410.61 2431.21
5194.45 1869.64 1824.61 2427.91 2444.74
5197.34 1745.17 1786.01 2495.71 2483.34
5200.24 1743.21 1818.86 2526.4 2545.95
5203.13 1968.21 1879.1 2615.73 2557.69
5206.02 1925.87 1913.15 2530.94 2529.82
5208.91 1845.36 1855.91 2442.79 2501.95
5211.8 1796.49 1822.59 2532.13 2457.68
5214.68 1825.92 1853.01 2398.14 2493.34
5217.57 1936.62 1866.66 2549.75 2459.7
5220.46 1837.44 1886.15 2431.2 2489.54
5223.35 1884.38 1884.34 2487.66 2485.98
5226.24 1931.18 1918.14 2539.09 2535.39
5229.13 1938.85 1939.6 2579.42 2546.48
5232.02 1948.78 1919.71 2520.91 2507.53
5234.91 1871.5 1872.37 2422.25 2487.74
5237.8 1796.82 1844.51 2520.04 2454.55
5240.69 1865.21 1831.17 2421.35 2442.59
5243.58 1831.47 1847.81 2386.38 2411.76
5246.47 1846.75 1822.32 2427.55 2443.79
5249.36 1788.74 1840.57 2517.43 2462.25
5252.24 1886.24 1829.52 2441.78 2454.82
5255.13 1813.6 1832.52 2405.25 2407.17
5258.02 1797.72 1838.77 2374.5 2412.08
5260.91 1905.01 1827.04 2456.49 2390.25
5263.8 1778.4 1875.23 2339.78 2440.91
5266.69 1942.28 1847.43 2526.46 2406.76
5269.57 1821.61 1866.38 2354.04 2389.47
5272.46 1835.26 1887.14 2287.92 2362.3
5275.35 2004.56 1901.44 2444.93 2339.95
5278.24 1864.49 1914.92 2287.01 2330.35
5281.13 1875.73 1875.56 2259.1 2278.29
5284.01 1886.46 1834.86 2288.77 2262.89
5286.9 1742.38 1863.85 2240.82 2303.66
5289.79 1962.69 1879.22 2381.41 2313.97
5292.68 1932.59 1914.58 2319.68 2318.31
5295.56 1848.47 1847.94 2253.84 2291.96
5298.45 1762.75 1751.79 2302.38 2241.62
5301.34 1644.16 1758.64 2168.64 2266.98
5304.23 1869.03 1771.54 2329.92 2253.98
5307.11 1801.45 1799.73 2263.39 2272.31
5310 1728.73 1762.1 2223.64 2250.84
5312.89 1756.11 1746.57 2265.5 2250.43
5315.77 1754.86 1731.34 2262.14 2246.37
5318.66 1683.03 1702.66 2211.48 2237.54
5321.55 1670.09 1683.66 2238.99 2213.88
5324.43 1697.87 1662.75 2191.17 2191.19
5327.32 1620.28 1657.63 2143.4 2174.93
5330.21 1654.75 1612.3 2190.21 2134.17
5333.09 1561.89 1585.94 2068.91 2101.83
5335.98 1541.2 1544.43 2046.37 2051.71
5338.86 1530.22 1537.71 2039.86 2038.45
5341.75 1541.71 1500.7 2029.12 2049.14
5344.64 1430.17 1477.77 2078.44 2010.73
5347.52 1461.43 1484.74 1924.63 2012.69
5350.41 1562.61 1503.61 2035 1975.79
5353.29 1486.8 1502.18 1967.74 1967.34
5356.18 1457.14 1441.68 1899.28 1896.31
5359.06 1381.09 1417.5 1821.91 1861.19
5361.95 1414.28 1378.26 1862.37 1806.01
5364.83 1339.42 1367.49 1733.75 1774.26
5367.72 1348.77 1348.25 1726.68 1750.16
5370.6 1356.55 1369.9 1790.05 1770.94
5373.49 1404.38 1376.26 1796.09 1773.06
5376.37 1367.85 1394.26 1733.03 1776.62
5379.26 1410.55 1372.01 1800.74 1760.8
5382.14 1337.63 1373.59 1748.62 1785.29
5385.03 1372.58 1375.97 1806.52 1800.42
5387.91 1417.7 1398.79 1846.12 1833.4
5390.8 1406.1 1398.09 1847.57 1804.19
5393.68 1370.47 1377.02 1718.86 1786.79
5396.56 1354.48 1364.68 1793.92 1756.77
5399.45 1369.1 1376.85 1757.53 1778.47
5402.33 1406.98 1366.17 1783.96 1796.07
5405.22 1322.44 1375.71 1846.71 1827.31
5408.1 1397.7 1340.05 1851.24 1823.79
5410.98 1300 1327.27 1773.42 1828.96
5413.87 1284.1 1327.29 1862.22 1825.85
5416.75 1397.77 1377.06 1841.91 1874.52
5419.63 1449.31 1440.03 1919.43 1899.34
5422.52 1473.01 1444.16 1936.67 1913.36
5425.4 1410.15 1443.31 1883.97 1910.47
5428.28 1446.77 1415.41 1910.76 1943.78
5431.17 1389.32 1406.66 2036.61 1984.44
5434.05 1383.88 1431.16 2005.94 2023.27
5436.93 1520.27 1419.65 2027.26 1994.59
5439.82 1354.81 1444.47 1950.57 1977.99
5442.7 1458.34 1407.77 1956.12 1975.57
5445.58 1410.16 1446.72 2020.01 1973.32
5448.46 1471.67 1471.42 1943.82 2004.6
5451.35 1532.43 1510.54 2049.98 2023.97
5454.23 1527.52 1559.06 2078.1 2091.59
5457.11 1617.22 1568.15 2146.7 2092.62
5459.99 1559.7 1578.53 2053.07 2087.26
5462.87 1558.67 1516.78 2062.03 2051.54
5465.76 1431.98 1498.78 2039.54 2042.28
5468.64 1505.7 1516.55 2025.28 2061.92
5471.52 1611.97 1549.45 2120.93 2078.52
5474.4 1530.68 1561.42 2089.35 2083.25
5477.28 1541.6 1577.87 2039.47 2101.33
5480.16 1661.33 1569.96 2175.17 2080.43
5483.05 1506.94 1580.15 2026.64 2088.89
5485.93 1572.18 1527.74 2064.87 2080.3
5488.81 1504.09 1529.24 2149.39 2075.71
5491.69 1511.47 1506.34 2012.88 2051.65
5494.57 1503.46 1479.05 1992.67 2031.71
5497.45 1422.23 1498.3 2089.57 2051.26
5500.33 1569.21 1492.43 2071.53 2051.32
5503.21 1485.86 1507.1 1992.86 2009.25
5506.09 1466.23 1481.23 1963.35 1972.98
5508.97 1491.58 1465.34 1962.73 1942.61
5511.85 1438.19 1478.31 1901.76 1969.9
5514.73 1505.15 1406.66 2045.22 1949.85
5517.61 1276.63 1389.97 1902.57 1946.7
5520.49 1388.15 1368 1892.3 1896.29
5523.37 1439.24 1418.64 1894 1887.46
5526.25 1428.54 1404.5 1876.09 1855
5529.13 1345.71 1390.41 1794.92 1837.42
5532.01 1396.99 1319.15 1841.25 1808.98
5534.89 1214.75 1307.1 1790.77 1805.93
5537.77 1309.56 1293.87 1785.76 1804.86
5540.65 1357.29 1335.23 1838.05 1804.98
5543.53 1338.84 1292.93 1791.14 1800.29
5546.41 1182.67 1288.51 1771.69 1788.07
5549.29 1344.01 1280.84 1801.37 1783.5
5552.17 1315.84 1330.44 1777.43 1792.8
5555.05 1331.47 1321.17 1799.6 1777.68
5557.93 1316.2 1296.91 1756.02 1751.83
5560.81 1243.05 1229.2 1699.87 1709.69
5563.68 1128.37 1251.57 1673.17 1769.32
5566.56 1383.28 1237.89 1934.92 2015.35
5569.44 1202.03 1215.86 2437.95 2375.59
5572.32 1062.29 1258.56 2753.89 2663.95
5575.2 1511.35 1364.26 2800.01 2591.67
5578.08 1519.13 1300.49 2221.12 2130.63
5580.95 870.986 1257.86 1370.76 1596.62
5583.83 1383.45 1234.5 1197.98 1343.15
5586.71 1449.07 1347.55 1460.72 1455.51
5589.59 1210.14 1335.93 1707.82 1708.52
5592.46 1348.58 1366.98 1957.03 1831.77
5595.34 1542.23 1506.54 1830.45 1922
5598.22 1628.81 1564.76 1978.52 1907.8
5601.1 1523.23 1597.63 1914.43 1988.33
5603.97 1640.85 1603.5 2072.04 2038.69
5606.85 1646.42 1634.65 2129.61 2119.7
5609.73 1616.69 1627.69 2157.45 2134.7
5612.6 1619.97 1623.26 2117.04 2138.96
5615.48 1633.13 1644.99 2142.4 2158.28
5618.36 1681.88 1667.44 2215.41 2193.74
5621.23 1687.31 1615.65 2223.41 2194.46
5624.11 1477.77 1650.68 2144.57 2225.79
5626.99 1786.96 1688.17 2309.39 2263.75
5629.86 1799.77 1786.91 2337.3 2333.87
5632.74 1774.02 1783.58 2354.9 2340.52
5635.62 1776.94 1786.25 2329.34 2349.77
5638.49 1807.78 1776.42 2365.07 2339.17
5641.37 1744.54 1774.64 2323.1 2346.76
5644.24 1771.61 1792.82 2352.1 2362.37
5647.12 1862.32 1793.17 2411.91 2362.13
5649.99 1745.58 1768.97 2322.37 2388.17
5652.87 1699.01 1718.99 2430.24 2348.11
5655.74 1712.39 1753.02 2291.72 2391.89
5658.62 1847.67 1800.17 2453.72 2387.99
5661.5 1840.45 1792.9 2418.54 2370.97
5664.37 1690.6 1749.39 2240.64 2378.23
5667.24 1717.12 1730.21 2475.51 2353.81
5670.12 1782.89 1729.19 2345.29 2347.6
5672.99 1687.55 1747.86 2222 2306.98
5675.87 1773.13 1740.85 2353.65 2307.33
5678.74 1761.85 1775.18 2346.33 2361.69
5681.62 1790.56 1780.91 2385.1 2366.69
5684.49 1790.32 1809.06 2368.64 2383.99
5687.37 1846.31 1786.66 2398.22 2333.87
5690.24 1723.33 1781.23 2234.76 2326.09
5693.11 1774.04 1790.26 2345.3 2366.91
5695.99 1873.41 1812.63 2520.67 2413.12
5698.86 1790.42 1797.57 2373.38 2385.86
5701.74 1728.86 1752.18 2263.54 2307.31
5704.61 1737.27 1737.37 2285.02 2289.02
5707.48 1745.99 1773.85 2318.5 2336.79
5710.36 1838.29 1813.56 2406.84 2384.93
5713.23 1856.42 1839.45 2429.46 2435.34
5716.1 1823.63 1827.06 2469.74 2421.29
5718.98 1801.15 1782.14 2364.67 2409.65
5721.85 1721.65 1740.46 2394.54 2401.96
5724.72 1698.58 1746.14 2446.67 2411.49
5727.59 1818.18 1759.24 2393.26 2393.23
5730.47 1760.97 1773.35 2339.76 2406.85
5733.34 1740.92 1768.05 2487.52 2404.12
5736.21 1802.27 1777.89 2385.09 2475.18
5739.08 1790.48 1805.58 2552.94 2449.44
5741.96 1823.99 1807.79 2410.29 2446.18
5744.83 1808.9 1856.7 2375.31 2426.1
5747.7 1937.2 1862.73 2492.71 2421.16
5750.57 1842.08 1865.88 2395.46 2424.41
5753.44 1818.36 1839.3 2385.06 2424.29
5756.31 1857.47 1861.31 2492.37 2454.99
5759.19 1908.1 1876.3 2487.55 2477.85
5762.06 1863.34 1872.41 2453.62 2452.19
5764.93 1845.8 1861.9 2415.41 2443.84
5767.8 1876.57 1852.02 2462.48 2422.7
5770.67 1833.7 1771.91 2390.22 2385.18
5773.54 1605.46 1729.03 2302.84 2346.25
5776.41 1747.93 1728.71 2345.7 2339.83
5779.28 1832.72 1787.9 2370.96 2413.84
5782.15 1783.05 1795.48 2524.87 2408.4
5785.03 1770.68 1795.72 2329.38 2423.31
5787.9 1833.45 1805.15 2415.69 2371.13
5790.77 1811.32 1747.23 2368.32 2352.29
5793.64 1596.91 1730.32 2272.85 2330.84
5796.51 1782.74 1736.82 2351.36 2347.53
5799.38 1830.82 1790.09 2418.38 2356.73
5802.25 1756.71 1780.56 2300.44 2355.5
5805.12 1754.15 1785.69 2347.68 2353.57
5807.99 1846.22 1776.59 2412.58 2327.35
5810.86 1729.39 1698.2 2221.8 2272.15
5813.72 1518.99 1669.69 2182.07 2246.76
5816.59 1760.7 1661.48 2336.42 2248.96
5819.46 1704.74 1719.55 2228.41 2273.56
5822.33 1693.2 1640.98 2255.85 2219.13
5825.2 1525 1626.85 2173.12 2215.39
5828.07 1662.34 1617.73 2217.2 2203.93
5830.94 1665.83 1620.22 2221.46 2212.32
5833.81 1532.47 1611.08 2198.3 2196.6
5836.68 1634.93 1609.13 2170.04 2202.03
5839.54 1659.98 1633.28 2237.74 2170.25
5842.41 1604.94 1632.18 2102.98 2155.11
5845.28 1631.61 1608.08 2124.62 2113.88
5848.15 1587.68 1578.34 2114.05 2089.3
5851.02 1515.73 1549.48 2029.21 2080.21
5853.88 1545.04 1534.76 2097.37 2056.89
5856.75 1543.52 1576.13 2044.1 2121.4
5859.62 1639.83 1596.23 2222.73 2159.84
5862.49 1605.32 1583.89 2212.69 2185.75
5865.36 1506.53 1576.67 2121.85 2169.52
5868.22 1618.16 1556.65 2174.03 2112.23
5871.09 1545.27 1571.47 2040.83 2068.51
5873.96 1550.98 1564.19 1990.68 2029
5876.82 1596.31 1536.05 2055.49 2063.94
5879.69 1460.86 1553.04 2145.66 2195.49
5882.56 1601.94 1502.45 2385.33 2284.01
5885.42 1444.55 1543.32 2321.04 2409.08
5888.29 1583.46 1399.42 2520.86 2330.8
5891.16 1170.25 1408.93 2150.5 2204.58
5894.02 1473.08 1392.96 1942.36 1964.25
5896.89 1535.55 1508.09 1799.89 1824.93
5899.76 1515.65 1522.4 1732.53 1776.83
5902.62 1516.02 1526.42 1798.08 1790.92
5905.49 1547.58 1528.45 1842.15 1854.89
5908.35 1521.76 1504.85 1924.44 1952.08
5911.22 1445.22 1513.44 2089.66 2100.75
5914.08 1573.35 1545.08 2288.14 2153.11
5916.95 1616.67 1589.86 2081.52 2139.8
5919.82 1579.58 1614.13 2049.74 2081.98
5922.68 1646.13 1579.49 2114.68 2139.62
5925.55 1512.75 1601.11 2254.43 2191.27
5928.41 1644.44 1563.25 2204.69 2246.54
5931.27 1532.55 1604.09 2280.51 2206.16
5934.14 1635.29 1563.39 2133.29 2193.68
5937 1522.33 1536.8 2167.25 2137.92
5939.87 1452.79 1554.29 2113.22 2137.32
5942.73 1687.75 1612.39 2131.48 2152.01
5945.6 1696.63 1676.53 2211.34 2188.69
5948.46 1645.21 1637.14 2223.26 2251.58
5951.33 1569.57 1599.45 2320.16 2264.52
5954.19 1583.57 1640.09 2250.15 2277.27
5957.05 1767.12 1723.54 2261.5 2268.33
5959.92 1819.94 1764.65 2293.33 2252.04
5962.78 1706.9 1749.69 2201.29 2220.61
5965.64 1722.23 1720.28 2167.21 2219.5
5968.51 1731.73 1740.7 2289.99 2273.99
5971.37 1768.15 1703.46 2364.75 2331.32
5974.23 1610.51 1713.12 2339.22 2325.28
5977.1 1760.71 1719.47 2271.87 2318.93
5979.96 1787.18 1790.25 2345.7 2319.85
5982.82 1822.86 1731.63 2341.98 2299.86
5985.68 1584.84 1713.71 2211.91 2277.9
5988.55 1733.42 1707.67 2279.8 2275.29
5991.41 1804.76 1779.95 2334.16 2322.32
5994.27 1801.68 1799.2 2353.02 2346.72
5997.13 1791.16 1767.89 2353 2323.22
6000 1710.84 1696 2263.63 2297.91
6002.86 1586.01 1693.5 2277.09 2286.8
6005.72 1783.65 1712.82 2319.69 2289.2
6008.58 1768.82 1791.09 2270.81 2296.06
6011.44 1820.81 1787.09 2297.67 2293.06
6014.3 1771.65 1793.39 2310.69 2293.76
6017.16 1787.72 1771.47 2272.91 2279.99
6020.03 1755.06 1716.39 2256.37 2285.85
6022.89 1606.39 1713.22 2328.29 2291.67
6025.75 1778.23 1705.53 2290.37 2282.02
6028.61 1731.97 1711.85 2227.39 2265.96
6031.47 1625.34 1700.22 2280.12 2278.62
6034.33 1743.35 1661.95 2328.34 2295.86
6037.19 1617.17 1704.4 2279.11 2287.29
6040.05 1752.69 1673.93 2254.42 2232.72
6042.91 1651.92 1697.46 2164.64 2213.77
6045.77 1687.78 1658.4 2222.25 2177.71
6048.63 1635.51 1697.02 2146.24 2208.77
6051.49 1767.76 1702.39 2257.84 2195.37
6054.35 1703.91 1742.59 2182.05 2232.9
6057.21 1756.11 1694.15 2258.82 2200.49
6060.07 1622.42 1696 2160.59 2211.4
6062.93 1709.49 1678.11 2214.79 2193.66
6065.79 1702.43 1672.89 2205.6 2175.63
6068.65 1606.75 1612.71 2106.48 2164.67
6071.51 1528.96 1602.65 2181.92 2154.36
6074.37 1672.23 1611.91 2174.69 2177.86
6077.22 1634.54 1653.39 2176.98 2166.43
6080.08 1653.39 1635.97 2147.63 2145.73
6082.94 1619.98 1569.02 2112.58 2101.54
6085.8 1433.69 1526.75 2044.42 2046.83
6088.66 1526.58 1519.88 1983.49 2011.68
6091.52 1599.37 1582.23 2007.14 2036.05
6094.37 1620.75 1555.75 2117.53 2003.38
6097.23 1447.13 1524.47 1885.48 2007.63
6100.09 1505.54 1467.27 2019.88 1937.97
6102.95 1449.13 1457.91 1908.56 1923.07
6105.8 1419.07 1363.19 1840.77 1842.38
6108.66 1221.38 1316.36 1777.81 1786.39
6111.52 1308.62 1237.77 1740.59 1737.08
6114.38 1183.33 1286.1 1692.84 1738.24
6117.23 1366.37 1278.45 1781.3 1715.27
6120.09 1285.66 1283.06 1671.67 1672.96
6122.95 1197.16 1233.78 1565.9 1614.15
6125.8 1218.5 1212.97 1604.89 1596.19
6128.66 1223.26 1153.14 1617.79 1585.16
6131.52 1017.65 1095.56 1532.79 1587.08
6134.37 1045.78 1039.56 1610.67 1587.21
6137.23 1055.24 1062.98 1618.17 1563.29
6140.08 1087.92 1087.93 1461.04 1524.02
6142.94 1120.62 1028.62 1492.86 1434.41
6145.8 877.332 1018.2 1349.34 1409.3
6148.65 1056.63 962.502 1385.7 1338.92
6151.51 953.54 1002.25 1281.72 1323.15
6154.36 996.571 975.476 1302.02 1283.24
6157.22 976.317 992.957 1265.99 1299.18
6160.07 1005.98 961.256 1329.53 1277.64
6162.93 901.468 953.151 1237.41 1290.89
6165.78 952.004 912.073 1305.73 1255.49
6168.64 882.748 932.805 1223.35 1263.25
6171.49 963.663 918.379 1260.69 1230.55
6174.35 908.727 899.287 1207.62 1172.45
6177.2 825.473 861.081 1049.03 1128.05
6180.06 849.042 855.01 1127.5 1111.3
6182.91 890.517 820.107 1157.39 1146.27
6185.76 720.763 795.173 1153.93 1129.91
6188.62 774.24 755.249 1078.41 1093.7
6191.47 770.744 773.683 1048.75 1064.11
6194.32 776.064 756.113 1065.16 1052.65
6197.18 721.533 751.922 1044.03 1068.25
6200.03 758.169 740.32 1095.55 1060.02
6202.88 741.258 749.711 1040.47 1056.42
6205.74 749.706 748.282 1033.23 1033.05
6208.59 753.884 745.964 1025.46 1018.17
6211.44 734.301 737.188 995.824 1003.34
6214.3 723.381 728.394 988.723 997.956
6217.15 727.5 658.205 1009.32 979.128
6220 523.733 618.093 939.342 986.972
6222.85 603.046 595.388 1012.25 956.927
6225.71 659.384 596.014 919.187 986.242
6228.56 525.613 623.083 1027.28 1014.32
6231.41 684.251 633.542 1096.48 1063.15
6234.26 690.762 696.817 1065.68 1056.79
6237.11 715.437 629.073 1008.2 990.394
6239.97 481.021 636.214 897.301 921.085
6242.82 712.185 671.443 857.757 906.015
6245.67 821.125 763.494 962.986 930.911
6248.52 757.173 742.552 971.99 976.877
6251.37 649.358 635.61 995.655 1026.89
6254.22 500.3 557.518 1113.01 1075.73
6257.07 522.895 516.844 1118.52 1099.45
6259.92 527.337 602.387 1066.82 1090.74
6262.77 756.93 667.883 1086.87 1051.42
6265.62 719.381 689.635 1000.57 1046.91
6268.47 592.595 640.705 1053.3 1034.82
6271.32 610.14 642.568 1050.59 1036.93
6274.17 724.97 685.637 1006.91 1042.73
6277.02 721.801 755.146 1070.7 1100.59
6279.87 818.667 775.686 1224.15 1182.41
6282.72 786.59 786.506 1252.39 1224.47
6285.57 754.26 794.328 1196.86 1252.55
6288.42 842.135 828.247 1308.4 1539.65
6291.27 888.346 697.08 2113.69 2181.58
6294.12 360.759 721.495 3122.66 2908.1
6296.97 915.379 448.876 3487.95 3071.44
6299.82 70.4912 349.464 2603.72 2290.72
6302.67 62.5213 367.941 780.481 1111.53
6305.51 970.811 539.26 -49.601 237.603
6308.36 584.447 838.938 -18.071 109.445
6311.21 961.557 862.284 396.008 385.191
6314.06 1040.85 1010.44 777.634 705.878
6316.91 1028.92 1017.46 943.991 948.522
6319.75 982.601 1044.84 1123.94 1161.61
6322.6 1122.99 1045.19 1416.89 1333.76
6325.45 1029.99 1014.89 1460.44 1459.16
6328.3 891.68 952.603 1500.14 1488.43
6331.14 936.141 992.185 1504.71 1522.36
6333.99 1148.73 1079.93 1562.23 1537.05
6336.84 1154.91 1115.17 1544.2 1560.17
6339.69 1041.88 1120.91 1574.06 1572.84
6342.53 1165.95 1135.62 1600.27 1619.71
6345.38 1199.02 1120.48 1684.8 1650.83
6348.23 996.466 1153.8 1667.42 1714.9
6351.07 1265.91 1126.42 1792.49 1779.88
6353.92 1116.88 1228.42 1879.74 1995.69
6356.76 1302.46 1205.27 2314.84 2177.62
6359.61 1196.45 1245.24 2338.28 2256.72
6362.46 1236.81 1264.53 2117.03 2064.92
6365.3 1360.32 1297.3 1739.44 1725.49
6368.15 1294.75 1303.1 1319.99 1448.19
6370.99 1254.22 1298.15 1285.13 1391.85
6373.84 1345.48 1259.06 1570.44 1514.45
6376.68 1177.48 1292.87 1687.78 1656
6379.53 1355.65 1304.92 1709.79 1730.54
6382.37 1381.61 1349.9 1794.05 1787.83
6385.22 1312.45 1389.86 1859.65 1863.93
6388.06 1475.51 1377.56 1938.08 1879.96
6390.91 1344.71 1419.96 1842.16 1891.35
6393.75 1439.65 1408.67 1893.8 1893.79
6396.59 1441.66 1431.73 1945.41 1919.38
6399.44 1413.89 1415.02 1918.93 1956.87
6402.28 1389.51 1408.57 2006.27 1962.09
6405.13 1422.3 1415.92 1961.08 1984.23
6407.97 1435.95 1451.15 1985.36 1980.73
6410.81 1495.2 1434.57 1995.77 1995.56
6413.66 1372.56 1451.73 2005.56 2004.7
6416.5 1487.45 1439.75 2012.78 2007.52
6419.34 1459.25 1456.14 2004.22 1986.59
6422.19 1421.71 1443.1 1942.76 1978.17
6425.03 1448.33 1457.89 1987.52 1979.14
6427.87 1503.64 1492.9 2007.15 2014.96
6430.71 1526.71 1501.2 2050.22 2016.56
6433.56 1473.25 1502.37 1992.32 2019.64
6436.4 1507.14 1482.58 2016.39 1993.23
6439.24 1467.36 1513.43 1970.99 2030.72
6442.08 1565.8 1502.67 2104.78 2031.5
6444.92 1474.85 1487.36 2018.72 2030.44
6447.77 1421.43 1472.68 1967.81 2022.23
6450.61 1521.77 1505.03 2080.15 2059.96
6453.45 1571.9 1527.94 2131.94 2094.04
6456.29 1490.13 1456.54 2070.04 2091.49
6459.13 1307.6 1404.9 2072.48 2058.93
6461.97 1416.97 1398.83 2034.28 2068.32
6464.81 1471.93 1425.61 2098.19 2045.02
6467.65 1387.94 1429.94 2002.59 2001.01
6470.49 1429.95 1444.01 1902.26 1964.18
6473.33 1514.14 1504.39 1987.71 1966.45
6476.17 1569.09 1535.75 2009.4 1992.39
6479.01 1524.04 1541.73 1980.07 1988.11
6481.85 1532.06 1480.01 1974.87 1964.79
6484.69 1383.93 1462.95 1939.45 1969.01
6487.53 1472.87 1451.79 1992.72 2001.98
6490.37 1498.57 1415.2 2073.77 2058.33
6493.21 1274.16 1433.99 2108.5 2120.62
6496.05 1529.23 1455.42 2179.58 2130.89
6498.89 1562.87 1528.04 2104.58 2098.69
6501.73 1492.02 1504.89 2011.91 2016.05
6504.57 1459.77 1478.48 1931.66 1959.88
6507.41 1483.64 1476.18 1936.07 1931.81
6510.25 1485.13 1453.63 1927.71 1938.87
6513.08 1392.12 1450.79 1952.82 1963.74
6515.92 1475.12 1465.13 2010.69 2007.49
6518.76 1528.14 1500.9 2058.95 2024.7
6521.6 1499.42 1497.6 2004.46 2023.92
6524.44 1465.25 1485.93 2008.36 2009.27
6527.27 1493.12 1471.09 2015 2009.5
6530.11 1454.88 1516.37 2005.16 2028.09
6532.95 1601.09 1523.4 2064.12 1999.76
6535.79 1514.22 1500.84 1930 1931.93
6538.62 1387.22 1470.12 1801.69 1896.81
6541.46 1508.92 1438.68 1958.75 1895.37
6544.3 1419.89 1465.22 1925.66 1955.91
6547.13 1466.85 1415.22 1983.32 1981.55
6549.97 1358.9 1351.93 2035.66 1986.32
6552.81 1230.02 1328.18 1939.98 1959.16
6555.64 1395.61 1330.87 1901.83 1880.01
6558.48 1366.97 1384.79 1798.22 1843.5
6561.31 1391.8 1403.52 1830.44 1826.07
6564.15 1451.81 1417.91 1849.56 1833.48
6566.99 1410.14 1387.11 1820.45 1788.54
6569.82 1299.37 1346.57 1695.61 1769.28
6572.66 1330.21 1342.42 1791.78 1765.38
6575.49 1397.7 1378.07 1808.76 1811.47
6578.33 1406.32 1411.41 1833.88 1809.19
6581.16 1430.22 1360.91 1784.94 1799.83
6584 1246.2 1355.94 1780.66 1781.34
6586.83 1391.4 1333.22 1778.41 1779.12
6589.67 1362.06 1379.83 1778.28 1783.12
6592.5 1386.02 1312.04 1792.66 1764.01
6595.33 1188.04 1283.86 1721.07 1747.46
6598.17 1277.53 1274.82 1728.64 1759.25
6601 1358.89 1353.08 1828.04 1801.8
6603.84 1422.84 1365.63 1848.7 1796.12
6606.67 1315.15 1372.86 1711.61 1765.45
6609.5 1380.6 1334.2 1736.05 1716.85
6612.34 1306.83 1332.11 1702.89 1701.78
6615.17 1308.89 1310.21 1666.41 1704.6
6618 1314.91 1293.42 1744.5 1701.63
6620.83 1256.47 1262.01 1693.98 1726.97
6623.67 1214.66 1200.08 1742.43 1697.96
6626.5 1129.11 1217.19 1657.47 1718.93
6629.33 1307.8 1270.39 1756.9 1733.24
6632.16 1374.28 1344.54 1785.36 1769.51
6635 1351.55 1332.95 1766.28 1740.45
6637.83 1273.02 1332.35 1669.72 1729.45
6640.66 1372.47 1340.66 1752.33 1735.66
6643.49 1376.48 1348.39 1784.91 1742.09
6646.32 1296.22 1312.97 1689.03 1726.67
6649.15 1266.21 1269.34 1706.06 1678.15
6651.98 1245.6 1263.08 1639.36 1667.04
6654.82 1277.44 1237.5 1655.68 1630.85
6657.65 1189.46 1237.82 1597.5 1642.12
6660.48 1246.57 1240.2 1673.17 1665.4
6663.31 1284.58 1263.43 1725.53 1679.64
6666.14 1259.16 1276 1640.21 1667.4
6668.97 1284.25 1242.66 1636.45 1608.93
6671.8 1184.57 1245.64 1550.12 1605.51
6674.63 1268.1 1265.2 1629.96 1622.4
6677.46 1342.94 1296.61 1687.12 1663.44
6680.29 1278.79 1277.11 1673.22 1665.82
6683.12 1209.59 1231.64 1637.1 1660.27
6685.95 1206.54 1193.58 1670.49 1637.25
6688.78 1164.61 1179.12 1604.16 1635.62
6691.6 1166.22 1213.46 1632.21 1641.26
6694.43 1309.54 1263.03 1687.42 1676.03
6697.26 1313.34 1236.92 1708.44 1666.57
6700.09 1087.87 1199.47 1603.85 1667.13
6702.92 1197.2 1166.24 1689.1 1625.58
6705.75 1213.66 1227.1 1583.8 1647.36
6708.57 1270.43 1213.04 1669.19 1618.14
6711.4 1155.04 1217.66 1601.44 1644.73
6714.23 1227.5 1184.49 1663.55 1600.58
6717.06 1170.93 1192.5 1536.74 1581.9
6719.89 1179.08 1209.36 1545.42 1582.73
6722.71 1278.09 1209.28 1666.02 1578.56
6725.54 1170.67 1235.16 1524.25 1604.99
6728.37 1256.73 1205.9 1624.7 1576.17
6731.19 1190.31 1228.98 1579.56 1597.33
6734.02 1239.89 1217.82 1587.73 1592.39
6736.85 1223.26 1227.56 1609.88 1600.9
6739.67 1219.52 1209.24 1605.09 1572.84
6742.5 1184.96 1182.63 1503.55 1579.83
6745.33 1143.41 1147.22 1630.85 1575.1
6748.15 1113.3 1137.27 1590.9 1572.18
6750.98 1155.09 1164.62 1494.79 1556.41
6753.8 1225.47 1197.7 1583.55 1556.54
6756.63 1212.55 1169.57 1591.29 1584.77
6759.45 1070.69 1158.34 1579.46 1565.98
6762.28 1191.78 1154.88 1527.18 1553.65
6765.1 1202.16 1193.74 1554.31 1555.36
6767.93 1187.26 1203.54 1584.6 1571.38
6770.75 1221.2 1211.25 1575.22 1576.95
6773.58 1225.28 1231.53 1571.02 1578.94
6776.4 1248.12 1210.71 1590.59 1551.14
6779.23 1158.74 1195.81 1491.81 1531.7
6782.05 1180.58 1185.28 1512.7 1512.99
6784.87 1216.52 1201.91 1534.46 1535.67
6787.7 1208.65 1198.96 1559.85 1534.46
6790.52 1171.73 1184.86 1509.06 1518.11
6793.34 1174.21 1163.43 1485.43 1486.06
6796.17 1144.35 1155.53 1463.69 1483.32
6798.99 1148.03 1116.46 1500.83 1483.94
6801.81 1057 1104.74 1487.28 1469.5
6804.64 1109.19 1063.97 1420.39 1451.65
6807.46 1025.71 1094.48 1447.28 1441.66
6810.28 1148.53 1102.43 1457.3 1445.91
6813.1 1133.06 1126.85 1433.14 1428.16
6815.92 1098.95 1145.93 1394.05 1454.57
6818.75 1205.77 1166.53 1536.53 1516.25
6821.57 1194.86 1182.48 1618.17 1570.62
6824.39 1146.79 1074.95 1557.17 1585.07
6827.21 883.192 1053.56 1579.87 1531.08
6830.03 1130.7 1034.88 1456.2 1485.4
6832.85 1090.74 1088.76 1420.14 1382.89
6835.67 1044.85 1092.11 1272.34 1351.77
6838.49 1140.73 1115.37 1362.82 1346.53
6841.32 1160.53 1139.01 1404.42 1341.21
6844.14 1115.76 1131.19 1256.37 1334.92
6846.96 1117.28 1143.31 1343.97 1334.88
6849.78 1196.88 1131.34 1404.29 1338.85
6852.6 1079.85 1112.08 1268.29 1338.46
6855.42 1059.5 1011.11 1342.81 1342.27
6858.24 893.969 1021.19 1415.7 1376.25
6861.06 1110.11 989.117 1370.24 1333.39
6863.87 963.271 1014.41 1214.21 1243.1
6866.69 969.851 870.371 1144.86 1131.01
6869.51 677.992 788.41 1033.97 1085.4
6872.33 717.386 750.232 1077.38 1050.99
6875.15 855.318 824.133 1041.63 1070.37
6877.97 899.695 920.17 1092.1 1106.78
6880.79 1005.5 938.728 1186.61 1126.28
6883.6 910.993 904.497 1100.14 1140
6886.42 797.002 884.704 1133.25 1125.01
6889.24 946.116 884.156 1141.63 1132.97
6892.06 909.349 928.873 1124.03 1129.15
6894.88 931.154 916.948 1121.77 1156.65
6897.69 910.342 941.656 1224.14 1180.22
6900.51 983.471 914.246 1194.76 1212.39
6903.33 848.924 933.212 1218.27 1203.7
6906.14 967.241 907.124 1198.08 1170.44
6908.96 905.208 925.892 1094.96 1142.14
6911.78 905.226 911.576 1133.39 1203.97
6914.59 924.294 937.498 1383.56 1249.62
6917.41 982.975 916.688 1231.89 1285.42
6920.23 842.796 904.192 1240.8 1266.69
6923.04 886.803 865.276 1327.37 1273.4
6925.86 866.229 909.037 1252.02 1268.05
6928.67 974.078 955.045 1224.76 1260.64
6931.49 1024.83 973.508 1305.16 1272.13
6934.3 921.619 999.524 1286.49 1311.96
6937.12 1052.13 977.645 1344.23 1289.76
6939.93 959.192 1010.84 1238.58 1288.85
6942.75 1021.19 956.559 1283.75 1277.33
6945.56 889.291 951.371 1309.67 1259.57
6948.38 943.629 952.698 1185.28 1230.32
6951.19 1025.17 945.517 1196 1202.69
6954 867.749 956.956 1226.78 1265.45
6956.82 977.946 948.068 1373.55 1280.95
6959.63 998.509 989.752 1242.51 1293.93
6962.45 992.8 958.873 1265.72 1260.75
6965.26 885.311 960.456 1274.03 1268.47
6968.07 1003.26 973.771 1265.66 1259.04
6970.88 1032.75 1002.35 1237.44 1248.51
6973.7 971.043 997.892 1242.42 1223.52
6976.51 989.886 978.788 1190.71 1211.77
6979.32 975.434 932.849 1202.19 1192.74
6982.13 833.227 899.907 1185.33 1208.73
6984.95 891.06 928.413 1238.68 1225.76
6987.76 1060.95 952.595 1253.29 1215.38
6990.57 905.772 990.493 1154.17 1211.12
6993.38 1004.75 962.371 1225.89 1201.61
6996.19 976.586 981.931 1224.76 1198.5
6999 964.453 971.764 1144.84 1187.44
7001.82 974.253 922.693 1192.73 1168.69
7004.63 829.373 927.292 1168.48 1174.47
7007.44 978.25 937.342 1162.21 1191.53
7010.25 1004.4 982.77 1243.89 1191.06
7013.06 965.657 994.111 1167.08 1208.98
7015.87 1012.27 964.595 1215.98 1173.32
7018.68 915.855 958.2 1136.91 1182.05
7021.49 946.472 940.82 1193.26 1166.36
7024.3 960.133 956.468 1168.91 1179.79
7027.11 962.797 930.561 1177.21 1171.43
7029.92 868.754 900.782 1168.18 1176.68
7032.73 870.796 896.559 1184.64 1167.76
7035.54 950.128 932.214 1150.46 1174.47
7038.34 975.719 945.612 1188.31 1140.77
7041.15 910.988 927.04 1083.52 1130.33
7043.96 894.413 895.581 1119.14 1139.49
7046.77 881.341 872.324 1215.8 1148.59
7049.58 841.217 887.649 1110.83 1167.01
7052.39 940.389 852.44 1174.4 1117.42
7055.19 775.713 845.904 1067.03 1111.62
7058 821.609 845.753 1093.43 1098.43
7060.81 939.936 903.496 1134.84 1132.52
7063.62 948.944 931.037 1169.28 1130.33
7066.42 904.231 950.101 1086.87 1135.52
7069.23 997.128 931.656 1150.4 1093.82
7072.04 893.609 943.583 1044.17 1095.72
7074.84 940.013 914.639 1092.57 1056.83
7077.65 910.294 901.72 1033.73 1023.7
7080.46 854.854 871.471 944.784 1012.53
7083.26 849.264 886.645 1059.06 1023.78
7086.07 955.817 891.978 1067.51 1037
7088.87 870.853 897.874 984.433 999.501
7091.68 866.953 848.534 946.564 968.722
7094.48 807.796 855.097 975.169 996.449
7097.29 890.541 829.32 1067.61 1000.74
7100.09 789.623 826.88 959.449 994.202
7102.9 800.476 835.846 955.544 972.73
7105.7 917.44 825.789 1003.2 967.958
7108.51 759.452 859.575 945.132 992.259
7111.31 901.834 847.039 1028.45 979.236
7114.12 879.832 886.044 964.128 978.504
7116.92 876.466 862.55 942.934 962.116
7119.72 831.353 881.969 979.285 996.008
7122.53 938.087 773.655 1065.81 933.744
7125.33 551.526 777.709 756.142 912.471
7128.13 843.512 729.931 915.465 858.335
7130.94 794.755 842.57 903.398 939.936
7133.74 889.441 832.786 1000.94 982.755
7136.54 814.163 858.231 1043.92 1010.34
7139.34 871.088 836.237 986.142 1012.87
7142.15 823.46 848.409 1008.53 1000.85
7144.95 850.68 851.111 1007.86 1000.22
7147.75 879.192 883.943 984.267 1019.51
7150.55 921.957 874.531 1066.41 1010.46
7153.35 822.443 857.258 980.705 1011
7156.16 827.372 839.203 985.879 993.977
7158.96 867.794 828.566 1015.35 1013.23
7161.76 790.533 845.024 1038.47 1026.44
7164.56 876.744 815.694 1025.52 1004.85
7167.36 779.805 806.244 950.555 997.798
7170.16 762.184 799.283 1017.32 1008.17
7172.96 855.86 784.583 1056.65 1017.8
7175.76 735.705 790.173 979.44 994.053
7178.56 778.955 784.843 946.072 987.461
7181.36 839.87 794.498 1036.87 973.062
7184.16 764.668 799.012 936.243 997.007
7186.96 792.498 768.959 1017.91 971.45
7189.76 749.712 780.441 960.201 1006.14
7192.56 799.114 789.76 1040.31 1009.8
7195.36 820.455 761.455 1028.9 995.093
7198.15 664.796 751.796 916.07 974.381
7200.95 770.137 713.982 978.174 945.088
7203.75 707.012 732.528 941.02 957.213
7206.55 720.435 732.293 952.446 964.725
7209.35 769.431 747.764 1000.71 979.854
7212.14 753.426 753.642 986.406 984.357
7214.94 738.07 759.575 965.955 983.138
7217.74 787.228 772.799 997.054 1001.81
7220.54 793.099 792.182 1042.43 1000.79
7223.33 796.218 777.037 962.878 971.057
7226.13 741.794 759.253 907.868 931.789
7228.93 739.747 740.246 924.622 859.773
7231.72 739.198 725.636 746.829 809.48
7234.52 697.965 733.023 756.988 765.044
7237.32 761.908 732.071 791.314 846.616
7240.11 736.339 762.939 991.545 967.738
7242.91 790.569 746.445 1120.36 1064.88
7245.7 712.425 712.84 1082.74 1093.35
7248.5 635.526 673.807 1076.96 1080.3
7251.29 673.471 686.541 1081.19 1051.89
7254.09 750.625 719.821 997.512 1020.37
7256.88 735.368 733.744 982.391 961.243
7259.68 715.239 710.515 903.825 913.544
7262.47 680.939 697.057 854.417 830.746
7265.27 694.993 695.914 733.998 742.586
7268.06 711.809 715.474 639.343 698.47
7270.85 739.62 761.413 722.069 793.677
7273.65 832.811 775.24 1019.62 931.434
7276.44 753.289 740.998 1052.61 1053.31
7279.23 636.895 670.502 1087.7 1034.5
7282.03 621.322 658.921 963.189 1050.85
7284.82 718.546 654.049 1101.65 992.075
7287.61 622.277 682.913 911.382 983.883
7290.41 707.916 682.283 938.614 907.024
7293.2 716.656 726.172 871.076 894.041
7295.99 753.946 737.849 872.433 901.893
7298.78 742.944 725.232 962.17 898.263
7301.57 678.806 708.162 860.185 891.081
7304.36 702.736 705.625 850.888 805.42
7307.16 735.332 706.711 705.188 731.834
7309.95 682.065 710.254 639.428 768.729
7312.74 713.365 701.111 961.57 881.986
7315.53 707.903 685.472 1044.96 992.386
7318.32 635.149 667.789 970.629 965.155
7321.11 660.316 657.288 879.877 896.369
7323.9 676.398 675.989 838.601 864.224
7326.69 691.251 694.635 874.193 833.082
7329.48 716.255 707.84 786.451 773.157
7332.27 716.014 731.69 658.826 710.787
7335.06 762.801 721.51 687.082 744.199
7337.85 685.717 747.76 886.687 944.836
7340.64 794.761 719.084 1260.74 1086.76
7343.43 676.773 700.16 1112.86 1105.19
7346.21 628.945 663.305 941.967 971.196
7349 684.198 638.298 858.756 841.82
7351.79 601.751 646.853 724.736 805.084
7354.58 654.609 658.149 831.761 799.847
7357.37 718.088 684.948 843.044 774.443
7360.16 682.148 693.098 648.524 698.592
7362.94 679.057 675.664 604.209 695.824
7365.73 665.787 677.566 834.74 820.742
7368.52 687.854 713.735 1023.28 1000.51
7371.3 787.565 682.465 1143.52 1023.87
7374.09 571.976 645.852 904.808 964.403
7376.88 578.015 607.406 844.882 847.626
7379.66 672.227 634.116 793.188 785.709
7382.45 652.106 668.468 719.057 756.377
7385.24 681.07 650.01 756.885 742.204
7388.02 616.853 634.976 750.67 727.151
7390.81 607.003 611.478 673.896 702.048
7393.59 610.579 614.041 681.577 685.225
7396.38 624.542 648.076 700.202 778.528
7399.16 709.109 664.765 953.804 885.966
7401.95 660.646 666.097 1003.89 963.239
7404.73 628.535 632.622 932.022 953.505
7407.52 608.683 629.739 924.601 895.555
7410.3 651.997 645.213 830.041 869.454
7413.08 674.959 654.397 853.72 827.731
7415.87 636.235 634.542 799.432 792.83
7418.65 592.432 601.35 725.339 728.484
7421.44 575.382 611.349 660.68 701.704
7424.22 666.233 618.279 719.093 700.466
7427 613.221 642.256 721.625 718.095
7429.78 647.316 634.967 713.567 717.179
7432.57 644.364 633.007 716.344 747.073
7435.35 607.341 623.041 811.307 800.155
7438.13 617.418 599.592 872.814 836.702
7440.91 574.016 600.983 825.986 823.748
7443.7 611.516 572.518 772.443 779.004
7446.48 532.02 568.769 738.583 740.634
7449.26 562.771 566.478 710.876 716.182
7452.04 604.644 589.157 699.086 698.387
7454.82 600.055 605.695 685.201 685.158
7457.6 612.384 604.069 671.186 663.756
7460.38 599.768 604.436 634.882 647.044
7463.16 601.155 589.188 635.065 635.559
7465.94 566.641 584.693 636.729 664.578
7468.72 586.284 578.889 721.941 681.341
7471.5 583.742 569.303 685.352 663.401
7474.28 537.882 555.034 582.911 639.368
7477.06 543.479 565.694 649.84 700.67
7479.84 615.721 562.827 869.259 773.854
7482.62 529.281 570.547 802.464 817.082
7485.4 566.64 549.35 779.522 776.402
7488.18 552.129 540.841 747.221 727.409
7490.95 503.755 527.835 655.482 700.699
7493.73 527.62 533.419 699.395 696.682
7496.51 568.88 539.316 735.168 703.632
7499.29 521.446 548.55 676.333 692.558
7502.07 555.324 536.844 666.173 657.741
7504.84 533.761 549.971 630.717 641.19
7507.62 560.827 536.112 626.681 599.547
7510.4 513.747 536.533 541.244 526.131
7513.17 535.026 522.055 410.467 417.235
7515.95 517.391 537.128 299.994 382.386
7518.73 558.968 522.545 436.698 446.888
7521.5 491.276 521.281 603.973 633.458
7524.28 513.6 495.719 859.703 769.408
7527.06 482.28 496.107 844.549 830.623
7529.83 492.441 497.263 787.616 798.606
7532.61 517.068 529.322 763.652 769.772
7535.38 578.456 540.677 758.048 727.595
7538.16 526.507 525.197 661.084 676.498
7540.93 470.629 515.644 610.362 637.172
7543.71 549.796 511.081 640.069 603.837
7546.48 512.817 515.142 561.08 574.773
7549.25 482.814 504.194 523.171 565.278
7552.03 516.95 479.522 611.583 553.608
7554.8 438.802 478.113 526.071 568.758
7557.57 478.587 464.914 568.62 522.753
7560.35 477.354 463.284 473.568 461.619
7563.12 433.91 441.987 342.669 400.656
7565.89 414.697 440.157 385.732 434.131
7568.67 471.863 456.306 573.993 571.026
7571.44 482.357 456.059 753.354 667.791
7574.21 413.957 459.547 676.026 698.418
7576.98 482.328 435.471 665.874 613.298
7579.75 410.128 454.763 497.994 581.934
7582.53 471.832 431.038 581.934 550.228
7585.3 411.155 437.033 570.756 574.327
7588.07 428.111 401.962 570.291 520.241
7590.84 366.619 358.732 419.674 452.05
7593.61 281.466 298.615 366.183 401.406
7596.38 247.758 240.549 418.36 375.005
7599.15 192.423 192.765 340.471 329.154
7601.92 138.113 155.181 228.632 241.997
7604.69 135.007 143.157 156.887 173.36
7607.46 156.35 165.17 134.562 143.464
7610.23 204.154 206.32 138.942 170.26
7613 258.457 252.162 237.275 221.96
7615.77 293.875 279.587 289.665 280.452
7618.54 286.43 288.246 314.417 312.186
7621.31 284.431 272.563 332.478 317.692
7624.08 246.828 263.188 306.181 337.95
7626.84 258.304 253.012 375.192 340.55
7629.61 253.904 266.027 340.278 372.976
7632.38 285.875 261.309 403.46 354.107
7635.15 244.149 265.39 318.582 337.56
7637.91 266.145 248.418 290.636 305.589
7640.68 234.961 261.287 307.548 293.272
7643.45 282.753 281.545 281.631 307.224
7646.22 326.919 318.261 332.492 318.857
7648.98 345.11 327.584 342.447 343.325
7651.75 310.723 327.076 355.037 335.788
7654.51 325.396 329.459 309.88 353.633
7657.28 352.257 363.39 395.982 407.445
7660.05 412.518 383.732 516.472 483.337
7662.81 386.421 413.866 537.558 531.562
7665.58 442.658 412.376 540.657 528.784
7668.34 408.048 412.346 508.137 514.178
7671.11 386.33 403.263 493.741 482.248
7673.87 415.411 400.917 444.865 446.029
7676.64 401.01 402.356 399.482 412.28
7679.4 390.646 406.447 392.494 411.901
7682.16 427.686 406.452 443.728 436.352
7684.93 401.025 413.732 472.835 460.939
7687.69 412.486 411.757 466.254 474.095
7690.45 421.761 421.939 483.195 495.682
7693.22 431.569 424.497 537.598 515.604
7695.98 420.162 427.718 526.019 504.286
7698.74 431.423 431.969 449.242 396.596
7701.5 444.323 443.81 214.527 180.17
7704.27 455.685 442.821 -123.26 -66.3893
7707.03 428.455 434.209 -290.435 -103.698
7709.79 418.488 450.659 102.602 174.813
7712.55 505.033 452.699 712.273 609.07
7715.31 434.576 470.839 1012.34 932.454
7718.08 472.909 436.317 1072.75 978.012
7720.84 401.467 435.656 848.948 902.368
7723.6 432.592 431.807 785.404 794.416
7726.36 461.364 465.674 748.898 709.925
7729.12 503.065 454.585 595.474 623.537
7731.88 399.327 432.015 526.24 536.269
7734.64 393.653 422.015 487.092 457.352
7737.4 473.064 431.877 358.723 258.25
7740.16 428.915 462.746 -71.0646 68.7234
7742.92 486.258 475.507 -81.4878 27.3604
7745.67 511.349 480.588 234.634 259.734
7748.43 444.157 492.372 626.057 603.639
7751.19 521.611 466.411 950.226 803.421
7753.95 433.466 449.784 833.98 844.955
7756.71 394.276 412.402 750.659 799.006
7759.47 409.463 419.177 812.379 747.428
7762.22 453.792 436.219 679.247 662.9
7764.98 445.402 449.324 497.073 551.679
7767.74 448.779 468.149 478.716 465.328
7770.5 510.268 468.379 420.195 438.57
7773.25 446.091 476.819 416.799 465.335
7776.01 474.099 482.038 559.012 526.498
7778.76 525.925 505.403 603.683 553.089
7781.52 516.187 514.827 496.573 427.317
7784.28 502.368 487.332 181.695 265.233
7787.03 443.44 494.258 117.43 250.087
7789.79 536.966 479.489 451.135 453.184
7792.54 458.061 524.628 790.986 738.565
7795.3 578.858 501.902 973.574 800.25
7798.05 468.788 492.593 636.189 677.381
7800.81 430.132 448.352 422.381 488.623
7803.56 446.137 458.189 407.3 461.78
7806.32 498.297 475.19 555.658 460.342
7809.07 481.137 476.339 418.069 376.991
7811.82 449.584 470.726 157.244 212.842
7814.58 481.456 480.448 63.212 225.586
7817.33 510.303 503.73 456.301 445.36
7820.08 519.43 502.537 816.567 770.518
7822.84 477.878 496.841 1038.69 921.721
7825.59 493.214 465.591 909.91 848.116
7828.34 425.681 438.926 595.752 634.153
7831.09 397.883 431.199 396.797 445.681
7833.84 470.032 441.336 344.493 379.344
7836.6 456.093 473.352 396.743 379.138
7839.35 493.931 479.86 396.179 330.83
7842.1 489.554 469.049 199.57 155.984
7844.85 423.661 459.917 -127.798 33.1203
7847.6 466.535 476.823 27.5891 107.457
7850.35 540.273 525.031 422.58 437.435
7853.1 568.285 501.4 862.134 721.441
7855.85 395.64 476.667 879.608 822.166
7858.6 466.076 439.631 724.755 723.077
7861.35 457.176 457.621 564.868 582.857
7864.1 449.61 473.08 458.947 538.955
7866.85 512.453 468.772 593.049 562.438
7869.6 444.253 476.574 635.32 625.779
7872.35 473.016 451.613 648.967 610.306
7875.09 437.569 463.396 546.633 555.95
7877.84 479.603 458.607 472.251 493.758
7880.59 458.647 491.733 462.39 481.693
7883.34 536.948 495.022 510.438 522.76
7886.09 489.471 496.225 595.45 600.186
7888.83 462.256 481.002 694.668 707.446
7891.58 491.278 462.948 832.218 729.488
7894.33 435.308 449.5 661.579 684.694
7897.07 421.912 451.272 560.284 520.08
7899.82 496.595 470.714 338.378 280.677
7902.57 493.634 498.543 -56.6299 -47.742
7905.31 505.4 476.013 -424.974 -251.278
7908.06 429.007 464.113 -272.229 -131.407
7910.8 457.933 484.354 302.982 310.164
7913.55 566.121 487.157 899.739 739.19
7916.29 437.416 483.869 1014.85 957.965
7919.04 448.069 432.61 959.308 915.097
7921.78 412.345 434.762 771.135 766.895
7924.53 443.874 422.524 570.242 633.718
7927.27 411.353 433.368 559.778 582.519
7930.01 444.878 438.962 617.539 619.363
7932.76 460.657 459.979 680.771 623.12
7935.5 474.403 449.734 571.051 545.503
7938.24 414.142 446.679 384.688 434.64
7940.99 451.492 443.312 348.183 355.784
7943.73 464.301 435.019 334.482 388.139
7946.47 389.265 445.808 481.754 471.504
7949.21 483.859 437.357 598.275 487.963
7951.96 438.948 455.101 383.858 334.543
7954.7 442.494 435.039 21.496 82.9611
7957.44 423.676 454.281 -156.471 25.0742
7960.18 496.672 443.758 210.197 201.016
7962.92 410.926 460.11 549.322 574.511
7965.66 472.731 438.128 964.014 759.284
7968.4 430.727 430.79 764.516 705.247
7971.14 388.912 417.949 387.21 504.515
7973.88 434.208 416.024 361.819 400.536
7976.62 424.953 433.522 452.578 462.682
7979.36 441.406 449.866 573.649 455.526
7982.1 483.238 438.778 340.35 285.053
7984.84 391.69 423.085 -58.8387 74.0124
7987.58 394.327 415.815 -59.4739 90.397
7990.32 461.429 441.512 389.504 388.528
7993.06 468.781 429.525 835.555 738.283
7995.79 358.366 403.789 989.791 860.805
7998.53 384.22 364.23 757.068 759.334
8001.27 350.104 384.314 531.143 532.398
8004.01 418.618 391.96 308.981 363.421
8006.74 407.157 409.69 250.137 274.323
8009.48 403.295 349.988 263.851 242.442
8012.22 239.511 336.072 213.338 262.07
8014.95 365.411 341.912 309.022 195.327
8017.69 420.815 392.318 63.621 164.452
8020.43 390.73 404.105 120.713 203.147
8023.16 400.771 386.621 425.107 436.348
8025.9 368.362 389.911 763.224 660.314
8028.63 400.601 356.757 792.61 715.375
8031.37 301.309 377.14 590.291 646.793
8034.1 429.51 372.469 557.478 528.483
8036.84 386.588 388.022 437.68 447.177
8039.57 347.966 373.405 346.373 356.042
8042.31 385.662 371.821 284.073 311.073
8045.04 381.836 381.864 302.772 313.081
8047.77 378.093 366.224 352.398 311.255
8050.51 338.742 366.401 278.596 302.525
8053.24 382.367 356.962 276.582 272.922
8055.97 349.778 358.043 263.59 278.967
8058.7 341.984 338.761 296.73 337.355
8061.44 324.522 326.505 451.746 430.964
8064.17 313.01 324.229 544.417 487.361
8066.9 335.154 317.397 465.92 484.404
8069.63 304.027 325.998 442.876 435.403
8072.36 338.813 315.114 397.411 396.499
8075.1 302.504 321.996 349.208 368.532
8077.83 324.671 311.828 358.976 348.555
8080.56 308.311 300.994 337.481 328.539
8083.29 270.002 298.239 289.159 312.02
8086.02 316.404 285.452 309.419 309.782
8088.75 269.95 302.206 330.768 324.042
8091.48 320.263 300.179 331.939 337.9
8094.21 310.324 329.782 350.992 343.794
8096.94 358.759 327.579 348.452 357.37
8099.66 313.654 316.27 372.666 384.822
8102.39 276.398 296.488 433.347 409.72
8105.12 299.412 294.187 423.147 403.468
8107.85 306.75 305.851 353.911 393.1
8110.58 311.389 309.746 402.244 367.14
8113.31 311.097 294.213 345.265 361.222
8116.03 260.151 283.07 336.157 327.303
8118.76 277.962 271.256 300.488 329.007
8121.49 275.654 276.928 350.377 318.302
8124.21 277.168 279.688 304.042 338.068
8126.94 286.243 280.541 359.783 317.465
8129.67 278.212 275.713 288.571 302.87
8132.39 262.685 273.685 260.255 284.862
8135.12 280.158 280.08 305.76 297.866
8137.84 297.397 294.738 327.584 337.465
8140.57 306.66 304.769 379.052 344.412
8143.29 310.249 290.569 326.601 328.363
8146.02 254.798 292.778 279.437 327.849
8148.74 313.286 288.586 377.509 333.244
8151.47 297.674 305.42 342.787 358.624
8154.19 305.3 294.163 355.577 332.602
8156.92 279.515 287.123 299.441 330.552
8159.64 276.555 273.863 336.637 309.034
8162.36 265.518 270.989 291.024 302.228
8165.09 270.896 261.065 279.025 281.361
8167.81 246.78 250.579 274.036 272.739
8170.53 234.062 254.921 265.155 275.714
8173.25 283.922 256.521 287.952 277.656
8175.97 251.58 269.627 279.862 286.834
8178.7 273.379 264.405 292.689 282.157
8181.42 268.256 269.244 273.921 271.358
8184.14 266.095 269.409 247.465 264.511
8186.86 273.875 269.293 272.148 277.603
8189.58 267.907 258.352 313.197 284.524
8192.3 233.272 253.952 268.228 297.901
8195.02 260.676 256.866 312.277 289.73
8197.74 276.649 266.573 288.684 289.346
8200.46 262.394 251.434 267.077 277.872
8203.18 215.259 246.543 277.854 259.449
8205.9 261.976 261.904 233.416 275.73
8208.62 308.477 275.327 315.921 289.223
8211.34 255.526 264.761 318.333 291.815
8214.06 230.28 252.55 241.191 284.312
8216.77 271.845 257.714 293.411 266.837
8219.49 271.016 264.876 265.908 274.472
8222.21 251.766 258.149 264.096 279.57
8224.93 251.666 243.422 308.705 288.242
8227.64 226.833 239.139 291.923 282.938
8230.36 238.918 238.352 248.185 276.845
8233.08 249.304 259.532 290.428 274.401
8235.79 290.375 264.192 284.59 273.165
8238.51 252.896 264.021 244.477 260.792
8241.23 248.793 266.05 253.31 269.385
8243.94 296.463 261.731 310.367 281.089
8246.66 239.938 274.829 279.59 293.224
8249.37 288.087 269.239 289.715 291
8252.09 279.69 277.045 303.694 312.026
8254.8 263.359 283.287 342.669 318.833
8257.52 306.813 273.177 310.137 312.251
8260.23 249.359 272.548 283.946 298.624
8262.94 261.472 259.614 301.79 280.119
8265.66 268.01 267.691 254.622 262.28
8268.37 273.59 272.498 230.427 204.815
8271.08 275.893 270.091 129.395 115.544
8273.8 260.79 270.716 -13.1896 35.5031
8276.51 275.464 284.454 -9.69635 4.51402
8279.22 317.107 287.811 36.4279 41.9773
8281.93 270.861 279.384 99.2003 128.239
8284.65 250.184 240.447 249.09 202.385
8287.36 200.296 230.663 258.864 263.812
8290.07 241.509 225.055 283.484 251.78
8292.78 233.36 236.943 212.991 239.924
8295.49 235.96 259.617 223.298 299.383
8298.2 309.531 273.109 461.86 405.477
8300.91 273.836 277.931 531.274 484.601
8303.62 250.424 258.765 460.668 425.057
8306.33 252.036 248.485 283.229 338.061
8309.04 242.994 243.872 270.287 281.418
8311.75 236.587 236.619 290.738 302.426
8314.46 230.277 238.314 346.252 312.94
8317.17 248.079 244.439 301.831 318.443
8319.88 254.961 255.752 307.245 295.082
8322.58 264.216 269.447 276.17 281.805
8325.29 289.164 272.844 261.999 258.84
8328 265.152 286.115 238.35 247.298
8330.71 304.03 250.077 241.547 183.22
8333.41 181.051 226.87 69.765 55.4551
8336.12 195.529 214.147 -144.946 -144.501
8338.83 265.862 236.52 -358.322 -211.151
8341.53 248.169 284.403 -130.186 -78.5306
8344.24 339.178 291.628 252.916 224.183
8346.94 287.539 273.907 549.819 472.956
8349.65 195.005 210.757 616.134 536.844
8352.35 149.729 174.161 444.578 501.028
8355.06 177.749 196.341 442.373 409.156
8357.76 261.543 201.605 340.518 333.091
8360.47 165.524 228.443 216.382 266.398
8363.17 258.263 217.761 242.293 237.116
8365.88 229.495 246.929 252.672 274.536
8368.58 253.029 238.21 328.642 292.883
8371.28 232.104 241.252 297.334 292.345
8373.99 238.624 239.05 251.058 238.045
8376.69 246.424 242.334 165.742 189.574
8379.39 241.956 243.715 151.921 178.26
8382.09 242.765 252.841 217.117 232.654
8384.8 273.803 224.929 328.924 278.978
8387.5 158.218 218.859 290.894 283.176
8390.2 224.555 217.627 229.711 188.603
8392.9 270.108 266.215 45.205 128.486
8395.6 303.98 302.322 110.544 78.0017
8398.3 332.878 289.004 78.2563 200.631
8401 230.153 255.82 413.092 353.566
8403.7 204.429 210.927 569.35 460.476
8406.4 198.2 201.773 398.986 384.471
8409.1 202.689 213.497 185.079 242.507
8411.8 239.604 245.584 143.456 194.059
8414.5 294.46 276.949 253.643 252.412
8417.2 296.784 282.845 360.138 313.839
8419.9 257.29 252.222 327.737 263.688
8422.6 202.593 239.861 103.19 186.09
8425.29 259.701 269.847 127.343 163.7
8427.99 347.248 269.305 260.566 214.332
8430.69 200.967 239.389 255.087 243.867
8433.39 169.953 188.98 215.947 233.385
8436.08 196.018 199.21 229.121 194.026
8438.78 231.657 226.469 137.011 196.562
8441.48 251.73 234.066 223.555 174.215
8444.17 218.81 252.814 162.078 204.725
8446.87 287.902 255.083 228.543 186.296
8449.56 258.538 272.428 168.265 225.89
8452.26 270.846 270.934 280.862 227.569
8454.95 283.418 242.792 233.579 222.043
8457.65 174.11 220.157 151.687 185.71
8460.34 202.942 223.591 171.863 162.581
8463.04 293.72 258.503 164.192 182.624
8465.73 278.845 257.551 211.816 193.796
8468.42 200.089 233.529 205.38 227.841
8471.12 221.653 232.384 266.327 249.254
8473.81 275.41 247.306 276.055 256.961
8476.5 244.854 244.776 228.502 239.197
8479.2 214.064 225.983 213.033 227.127
8481.89 219.031 222.312 239.847 227.094
8484.58 233.841 224.841 228.403 231.662
8487.27 221.651 226.099 226.738 220.654
8489.96 222.806 246.081 206.82 229.706
8492.65 293.785 234.775 255.559 228.647
8495.35 187.733 239.102 223.563 232.125
8498.04 235.789 227.094 217.252 229.849
8500.73 257.76 242.751 248.733 239.481
8503.42 234.703 260.715 252.46 253.874
8506.11 289.683 245.522 260.431 227.704
8508.8 212.179 251.032 170.223 210.717
8511.48 251.234 236.421 201.498 197.974
8514.17 245.848 246.149 222.201 212.02
8516.86 241.363 231.711 212.362 225.46
8519.55 207.922 240.221 241.818 222.521
8522.24 271.378 243.618 213.382 235.512
8524.93 251.556 255.916 251.336 233.707
8527.61 244.813 247.021 236.403 242.908
8530.3 244.694 241.184 240.984 231.815
8532.99 234.044 245.275 218.058 242.614
8535.67 257.087 257.692 268.799 250.734
8538.36 281.944 258.171 265.345 249.708
8541.05 235.48 263.323 214.979 244.75
8543.73 272.544 252.792 253.926 231.555
8546.42 250.352 244.384 225.759 231.017
8549.1 210.256 254.433 213.365 201.976
8551.79 302.69 250.017 166.803 186.919
8554.47 237.105 282.625 180.589 202.706
8557.16 308.079 254.558 260.726 196.369
8559.84 218.491 254.079 147.793 194.23
8562.53 235.667 238.886 174.172 176.942
8565.21 262.501 259.365 208.861 192.333
8567.89 279.926 268.782 193.967 198.899
8570.58 263.92 259.537 193.871 188.651
8573.26 234.765 249.507 178.116 182.926
8575.94 249.834 268.894 176.791 190.779
8578.62 322.082 289.903 217.429 200.265
8581.3 297.793 303.704 206.574 211.421
8583.99 291.238 299.021 210.259 216.676
8586.67 308.031 302.996 233.195 223.86
8589.35 309.718 297.29 228.125 239.439
8592.03 274.121 267.837 256.996 233.814
8594.71 219.674 266.324 216.322 236.605
8597.39 305.177 267.634 236.498 235.921
8600.07 278.052 283.064 254.945 229.081
8602.75 265.963 274.707 195.801 210.832
8605.43 280.107 272.345 181.752 205.822
8608.11 270.966 289.056 239.913 255.447
8610.79 316.095 302.724 344.676 302.535
8613.47 321.111 305.503 323.017 330.404
8616.14 279.303 311.009 323.518 333.153
8618.82 332.613 295.966 352.925 354.237
8621.5 275.981 306.214 386.269 359.782
8624.18 310.05 287.268 340.154 333.734
8626.85 275.773 298.694 274.779 296.184
8629.53 310.258 281.554 273.62 254.175
8632.21 258.63 278.119 214.128 226.018
8634.88 265.468 279.891 190.307 185.928
8637.56 315.576 281.768 153.351 180.387
8640.23 264.261 301.809 197.502 187.949
8642.91 325.589 305.54 212.993 233.661
8645.58 326.769 326.205 290.489 272.6
8648.26 326.256 319.893 314.317 315.526
8650.93 306.653 308.454 341.771 313.684
8653.61 292.452 287.731 284.962 306.722
8656.28 264.088 272.797 293.433 275.39
8658.95 261.851 284.939 247.776 238.443
8661.63 328.878 317.964 174.119 222.168
8664.3 363.163 326.934 244.61 204.353
8666.97 288.761 309.501 194.332 213.63
8669.65 276.578 302.985 201.95 189.53
8672.32 343.616 311.287 172.309 182.05
8674.99 313.666 320.649 171.891 181.197
8677.66 304.664 298.213 199.391 196.197
8680.33 276.309 291.089 217.309 196.757
8683 292.295 293.54 173.57 202.017
8685.67 312.017 294.226 215.172 201.535
8688.34 278.364 298.744 215.865 227.091
8691.01 305.849 305.781 250.235 238.463
8693.68 333.13 317.443 249.288 257.576
8696.35 313.35 320.415 273.205 271.487
8699.02 314.764 314.38 291.968 274.58
8701.69 315.027 303.701 258.566 268.104
8704.36 281.313 297.756 253.778 253.902
8707.03 296.929 296.114 249.362 233.467
8709.7 310.101 301.194 197.262 243.397
8712.36 296.553 303.146 283.568 229.254
8715.03 302.784 297.037 206.933 238.283
8717.7 291.774 303.54 224.348 230.115
8720.37 316.061 288.315 259.065 239.571
8723.03 257.11 291.853 235.3 255.031
8725.7 302.387 289.781 270.727 242.836
8728.36 309.846 294.772 222.482 237.373
8731.03 272.084 295.073 218.909 222.689
8733.7 303.291 299.211 226.677 226.104
8736.36 322.26 308.444 232.726 226.278
8739.03 299.781 306.09 219.431 245.701
8741.69 296.229 301.638 284.945 252.962
8744.35 308.904 299.945 254.512 270.817
8747.02 294.701 313.012 272.994 271.665
8749.68 335.43 306.831 287.489 280.845
8752.34 290.361 325.863 282.051 391.019
8755.01 351.799 285.667 603.517 645.384
8757.67 214.84 304.506 1050.59 967.414
8760.33 346.878 296.104 1248.14 1235.51
8762.99 326.593 342.155 1407.81 1231.77
8765.66 352.993 334.042 1039.35 960.436
8768.32 322.54 314.882 434.151 527.247
8770.98 269.112 271.367 108.239 120.22
8773.64 222.448 278.441 -181.73 58.716
8776.3 343.763 292.613 249.639 143.435
8778.96 311.627 292.119 362.397 177.73
8781.62 220.966 245.158 -78.8442 -206.23
8784.28 202.883 228.548 -902.243 -583.896
8786.94 261.795 254.792 -770.6 -686.003
8789.6 299.699 273.855 -385.166 -406.205
8792.26 260.073 277.78 -62.8489 -136.061
8794.92 273.568 265.241 39.8301 -38.7153
8797.57 262.084 285.236 -93.127 -67.4344
8800.23 320.056 294.688 -149.006 -94.7075
8802.89 301.923 305.994 -41.989 -35.6166
8805.55 296.003 298.486 84.1457 66.7138
8808.2 297.533 312.565 157.985 180.661
8810.86 344.16 311.387 299.851 235.046
8813.52 292.468 302.613 247.301 258.755
8816.17 271.211 291.177 229.112 280.198
8818.83 309.853 280.748 364.182 522.284
8821.48 261.179 296.39 973.557 1305.26
8824.14 318.139 270.529 2578.03 2216.31
8826.79 232.269 278.157 3097.35 2688.44
8829.45 284.063 293.129 2389.94 2004
8832.1 363.054 309.617 524.709 694.211
8834.76 281.734 304.977 -832.019 -522.289
8837.41 270.144 288.766 -1259.56 -1107.44
8840.06 314.421 259.269 -1230.75 -1320.3
8842.72 193.242 259.917 -1470.58 -1262.89
8845.37 272.088 240.227 -1087.34 -1040.01
8848.02 255.35 262.526 -562.104 -576.014
8850.67 260.14 270.047 -78.603 -191.522
8853.32 294.65 272.419 66.1428 -14.8225
8855.98 262.466 269.714 -32.0074 -8.54907
8858.63 252.025 255.447 -59.7826 -14.0753
8861.28 251.849 258.202 49.5641 155.646
8863.93 270.73 276.575 477.156 453.593
8866.58 307.147 280.082 834.059 700.061
8869.23 262.37 288.266 788.969 675.788
8871.88 295.282 256.658 404.336 344.655
8874.53 212.323 270.798 -159.341 -19.1457
8877.18 304.788 257.87 -302.432 -177.535
8879.82 256.5 280.296 -70.832 240.838
8882.47 279.598 260.268 1095.78 998.245
8885.12 244.705 229.769 1969.79 1648.31
8887.77 165.004 213.803 1879.37 1570.6
8890.42 231.699 195.491 862.648 639.37
8893.06 189.77 218.443 -823.913 -423.812
8895.71 233.86 225.979 -1310.17 -1070.16
8898.36 254.306 255.296 -1076.4 -900.006
8901 277.721 276.535 -313.453 -361.786
8903.65 297.578 277.405 304.49 146.456
8906.29 256.918 259.48 448.331 242.162
8908.94 223.943 237.773 -26.3349 34.503
8911.58 232.459 227.525 -318.487 -120.196
8914.23 226.173 238.271 -15.7671 335.255
8916.87 256.181 264.823 1340.02 1175.33
8919.52 312.113 252.891 2201.74 1853.14
8922.16 190.38 244.898 2017.66 1602.11
8924.8 232.202 195.817 586.935 498.16
8927.45 164.869 184.573 -1110.11 -731.551
8930.09 156.648 171.83 -1671.48 -1441.12
8932.73 193.974 200.918 -1541.78 -1465.82
8935.37 252.131 214.561 -1184.22 -1158.05
8938.02 197.579 221.504 -748.147 -626.857
8940.66 214.802 219.946 51.7927 -50.7506
8943.3 247.457 231.659 544.103 425.536
8945.94 232.717 223.997 680.711 519.652
8948.58 191.817 191.127 334.142 319.037
8951.22 148.848 198.827 -57.7424 220.31
8953.86 255.818 197.494 384.529 533.105
8956.5 187.817 237.799 1272.53 1098.64
8959.14 269.762 218.796 1638.86 1336.32
8961.78 198.808 216.434 1097.56 850.018
8964.42 180.73 186.159 -186.372 -31.9023
8967.06 178.937 183.369 -1006.9 -790.368
8969.69 190.44 183.446 -1177.84 -1058.18
8972.33 180.962 183.703 -989.813 -976.814
8974.97 179.706 188.541 -762.793 -767.729
8977.61 204.955 185.736 -550.58 -546.184
8980.24 172.547 191.125 -325.18 -305.337
8982.88 195.874 193.202 -40.2492 -4.49785
8985.51 211.186 203.928 351.936 302.18
8988.15 204.724 188.26 594.854 517.563
8990.79 148.87 164.083 605.9 519.781
8993.42 138.653 158.366 358.588 389.562
8996.06 187.575 165.646 204.198 359.617
8998.69 170.711 173.744 516.064 524.508
9001.32 162.945 170.119 853.262 735.221
9003.96 176.7 146.953 836.337 678.604
9006.59 101.214 156.793 346.215 285.231
9009.23 192.465 153.288 -326.857 -197.941
9011.86 166.186 184.76 -613.179 -506.268
9014.49 195.627 170.787 -578.766 -555.921
9017.12 150.548 160.591 -475.817 -467.786
9019.75 135.598 148.259 -348.776 -359.306
9022.39 158.633 164.312 -253.325 -223.808
9025.02 198.706 176.719 -69.3243 -103.823
9027.65 172.817 191.656 11.1806 11.1384
9030.28 203.446 184.155 91.559 91.7136
9032.91 176.201 190.256 172.401 205.579
9035.54 191.12 193.726 352.775 302.746
9038.17 213.856 194.985 383.062 379.688
9040.8 179.979 188.592 403.228 360.939
9043.43 171.941 172.899 296.526 343.359
9046.06 166.776 182.639 330.322 374.671
9048.68 209.201 180.389 497.164 472.147
9051.31 165.191 183.061 588.955 493.89
9053.94 174.791 167.576 395.551 348.268
9056.57 162.747 173.822 60.2992 89.0218
9059.19 183.929 169.026 -188.785 -115.256
9061.82 160.401 178.971 -217.283 -189.726
9064.45 192.583 163.968 -163.11 -187.969
9067.07 138.919 141.228 -183.514 -176.098
9069.7 92.1809 77.0333 -181.669 -121.728
