wavelength spec_sum spec_optimal
3528.85 12.9996 11.894
3531.76 14.447 12.7307
3534.67 15.2383 9.50876
3537.58 11.736 16.04
3540.49 15.8049 3.68052
3543.41 10.7048 16.1231
3546.32 6.73867 14.9373
3549.23 1.30682 10.718
3552.14 14.5022 15.5316
3555.05 26.3065 23.4859
3557.96 7.71525 17.3086
3560.87 15.8377 15.3187
3563.78 14.5858 17.6533
3566.69 21.8639 14.8021
3569.6 18.5496 14.237
3572.51 24.3911 23.1823
3575.42 22.202 9.25451
3578.33 17.2562 14.059
3581.24 14.5912 16
3584.15 15.0414 13.6713
3587.06 17.473 17.9911
3589.97 22.1499 17.0429
3592.88 14.9692 18.788
3595.79 19.9602 17.181
3598.7 17.053 17.1402
3601.61 17.3132 23.3073
3604.52 26.4792 22.4357
3607.43 20.1815 17.3711
3610.35 32.7677 20.3348
3613.26 15.5116 13.2743
3616.17 24.4381 17.9016
3619.08 20.3461 22.0201
3621.99 28.2713 15.8438
3624.9 21.5706 20.4276
3627.81 16.0904 11.7861
3630.72 14.3002 11.4708
3633.63 18.8457 19.2134
3636.54 16.7827 14.2136
3639.45 11.8428 15.6296
3642.36 20.2357 19.0977
3645.27 15.9488 6.38723
3648.18 22.8259 16.0669
3651.09 20.0422 14.6008
3654 14.9179 12.099
3656.91 17.0984 13.0822
3659.83 11.9735 9.42078
3662.74 24.367 22.307
3665.65 23.9291 19.1746
3668.56 17.4502 17.0386
3671.47 16.9554 17.2186
3674.38 10.835 10.3562
3677.29 21.8697 11.9402
3680.2 22.5761 11.5878
3683.11 18.9507 13.5823
3686.02 23.0713 17.2347
3688.93 25.1052 18.1306
3691.84 17.1352 13.3992
3694.75 27.3986 12.6639
3697.66 26.5417 18.3452
3700.57 22.0514 8.75788
3703.49 22.9991 20.7496
3706.4 27.6567 18.551
3709.31 24.4911 14.9
3712.22 21.4414 10.2996
3715.13 28.3278 19.0023
3718.04 19.1728 9.08955
3720.95 25.7482 16.7755
3723.86 16.832 14.6404
3726.77 15.8125 15.3084
3729.68 17.4439 12.7111
3732.59 17.6585 16.4747
3735.5 21.0338 11.5737
3738.41 19.6293 14.6113
3741.32 15.9402 9.9803
3744.23 23.943 18.9509
3747.15 10.5794 11.7173
3750.06 24.1583 21.2877
3752.97 21.9936 20.5058
3755.88 22.7175 13.0965
3758.79 23.2871 21.7894
3761.7 32.9288 26.2092
3764.61 32.7431 18.0088
3767.52 13.2519 14.7565
3770.43 23.6264 17.4873
3773.34 25.8213 23.0798
3776.25 30.8009 22.0626
3779.16 22.1315 21.8916
3782.07 36.0236 24.3094
3784.98 27.912 29.6576
3787.9 25.375 25.1967
3790.81 22.4417 21.1468
3793.72 25.7162 23.2137
3796.63 22.2469 20.4118
3799.54 23.9879 17.0303
3802.45 15.6916 14.1115
3805.36 19.268 19.7577
3808.27 23.5838 17.7569
3811.18 16.5263 15.3444
3814.09 20.4934 15.2073
3817 20.3878 21.7864
3819.91 23.8233 22.4622
3822.82 26.6653 22.7992
3825.73 27.5961 19.926
3828.64 26.2109 17.3981
3831.55 26.2435 23.5401
3834.47 26.4361 19.9676
3837.38 25.6937 21.4373
3840.29 35.7145 28.3257
3843.2 32.2625 25.0858
3846.11 28.3 25.3938
3849.02 18.0758 18.5433
3851.93 28.8563 22.5225
3854.84 23.8567 18.42
3857.75 26.3788 22.0073
3860.66 26.6194 19.4749
3863.57 28.1394 21.1091
3866.48 19.3886 20.2577
3869.39 27.4389 22.4308
3872.3 24.9501 19.3158
3875.21 22.0894 21.0627
3878.12 27.8208 17.3529
3881.03 16.7352 18.3398
3883.95 25.186 19.4599
3886.86 30.5112 23.7354
3889.77 21.6161 15.755
3892.68 21.655 16.942
3895.59 21.8419 15.4268
3898.5 20.6075 19.1628
3901.41 18.422 14.5242
3904.32 26.2443 19.4066
3907.23 23.8006 19.9568
3910.14 28.0975 28.1334
3913.05 25.9272 22.5902
3915.96 35.579 31.5456
3918.87 31.272 28.9001
3921.78 32.8196 26.0282
3924.69 29.7482 26.1209
3927.6 25.3405 19.7773
3930.51 26.0214 22.9651
3933.42 25.7998 21.3552
3936.33 24.0694 18.7419
3939.24 26.9025 21.7842
3942.15 21.9477 17.665
3945.06 23.2081 18.8199
3947.97 25.7845 22.9629
3950.88 29.7248 25.7991
3953.79 30.5146 27.8969
3956.7 23.014 20.3994
3959.61 26.8158 22.5159
3962.53 28.2853 24.7938
3965.44 22.2357 20.5574
3968.35 27.957 22.2253
3971.26 35.6462 25.9194
3974.17 25.4102 23.4721
3977.08 28.9468 24.1052
3979.99 29.9053 24.7349
3982.9 20.9162 20.2823
3985.81 26.0336 19.8343
3988.72 19.0858 17.4605
3991.63 23.2754 18.9183
3994.54 23.0783 21.7421
3997.45 31.243 22.5406
4000.36 23.3601 20.5109
4003.27 28.4708 21.8642
4006.18 23.4567 22.7714
4009.09 26.6733 21.0428
4012 31.2971 26.494
4014.91 31.0334 26.9641
4017.82 25.5668 21.2295
4020.73 28.3358 22.3985
4023.64 27.932 22.2482
4026.55 20.6863 17.0074
4029.46 21.7471 18.3427
4032.37 23.4364 19.4406
4035.28 27.0079 21.2798
4038.19 31.8194 27.0978
4041.1 26.4399 21.2345
4044.01 31.9425 28.6211
4046.92 31.6456 24.4608
4049.83 27.8852 26.8992
4052.74 27.8695 28.8393
4055.65 39.5827 32.3335
4058.55 31.4762 26.6342
4061.46 31.8091 29.0978
4064.37 35.5639 27.3353
4067.28 36.9678 28.8063
4070.19 34.5812 28.6554
4073.1 35.5261 29.9764
4076.01 37.4262 33.6845
4078.92 32.6318 29.0851
4081.83 41.0711 32.7735
4084.74 36.922 33.0825
4087.65 32.8577 34.9205
4090.56 34.7267 30.2817
4093.47 34.2149 30.6774
4096.38 40.9034 31.9812
4099.29 40.724 32.4342
4102.2 34.5185 26.8658
4105.11 39.3305 34.4247
4108.02 32.6226 29.2656
4110.93 43.8843 32.2096
4113.84 34.475 33.7285
4116.75 36.4475 29.8251
4119.65 39.9727 30.8937
4122.56 29.8565 25.5677
4125.47 38.8564 32.8856
4128.38 34.3823 27.7129
4131.29 42.773 33.329
4134.2 31.8492 25.3757
4137.11 42.2067 34.7147
4140.02 36.3836 35.4767
4142.93 31.784 30.3403
4145.84 39.5908 33.7833
4148.75 37.2989 31.0374
4151.66 37.9499 31.0439
4154.57 35.1841 30.307
4157.47 39.5243 33.7
4160.38 28.3637 27.2114
4163.29 37.6055 33.2715
4166.2 36.0238 28.1513
4169.11 42.4965 31.8429
4172.02 40.2181 31.5885
4174.93 33.7326 31.6815
4177.84 39.0107 31.6321
4180.75 36.3123 32.5803
4183.65 38.2154 32.5864
4186.56 38.0987 30.5749
4189.47 36.9007 30.8221
4192.38 41.441 32.659
4195.29 39.7409 32.9195
4198.2 35.2317 28.8046
4201.11 35.7847 31.0032
4204.02 39.6386 32.6873
4206.92 41.5726 34.6918
4209.83 37.8457 30.2063
4212.74 35.5002 31.5443
4215.65 41.7876 35.1347
4218.56 33.6167 30.1566
4221.47 35.754 33.1326
4224.38 42.4242 34.2727
4227.28 35.257 28.8181
4230.19 40.1205 30.2893
4233.1 35.5627 30.8391
4236.01 34.7541 32.1068
4238.92 38.5693 31.4285
4241.83 42.2792 34.6393
4244.73 34.8399 32.794
4247.64 38.3727 31.8611
4250.55 41.0848 33.3269
4253.46 37.3894 30.1963
4256.37 37.6407 32.2215
4259.28 37.8756 30.2536
4262.18 40.2434 29.8991
4265.09 39.2441 30.2422
4268 38.7631 34.6386
4270.91 37.806 29.9491
4273.82 33.8649 28.963
4276.72 38.7516 32.6235
4279.63 31.0085 29.8028
4282.54 34.3914 27.738
4285.45 37.1325 36.6686
4288.35 42.401 35.2426
4291.26 38.2516 35.1057
4294.17 37.8271 32.8559
4297.08 38.2639 32.2123
4299.99 37.1491 32.116
4302.89 41.9913 36.4188
4305.8 40.0956 33.0333
4308.71 40.3263 33.9283
4311.62 42.8267 32.9419
4314.52 46.9134 37.2851
4317.43 40.9589 33.6258
4320.34 37.479 33.7569
4323.25 37.4379 32.5684
4326.15 45.72 36.7156
4329.06 31.3363 31.6229
4331.97 41.7545 36.5029
4334.88 39.2807 35.1701
4337.78 39.6426 34.1459
4340.69 40.3658 32.156
4343.6 38.3254 31.2101
4346.51 35.7389 31.1312
4349.41 38.8377 30.6624
4352.32 40.0092 31.5325
4355.23 36.1354 34.0432
4358.13 37.7353 35.5103
4361.04 36.3236 30.0691
4363.95 36.6811 30.9172
4366.85 33.2272 29.5704
4369.76 34.9091 31.8067
4372.67 34.4652 28.9958
4375.58 32.4917 29.6671
4378.48 32.7825 30.1314
4381.39 39.8906 35.7119
4384.3 43.567 34.552
4387.2 35.5717 32.9352
4390.11 35.1958 32.5783
4393.02 41.9521 34.8577
4395.92 41.11 34.885
4398.83 39.2502 32.1359
4401.74 40.1029 32.4408
4404.64 37.0506 33.5685
4407.55 40.0932 35.2022
4410.46 41.5797 35.5499
4413.36 39.4477 33.9293
4416.27 37.0155 29.3838
4419.17 44.2087 35.7363
4422.08 39.348 35.9456
4424.99 41.1629 39.2471
4427.89 39.9845 35.2757
4430.8 41.9927 35.8754
4433.71 42.1328 38.6339
4436.61 40.5566 34.6293
4439.52 45.1761 39.1173
4442.42 42.2477 37.2926
4445.33 40.8945 36.4965
4448.24 36.7041 32.1138
4451.14 39.6747 32.3788
4454.05 39.9664 35.5979
4456.95 40.1021 38.4035
4459.86 42.1122 36.3592
4462.76 37.98 36.8438
4465.67 45.7426 39.432
4468.58 37.8502 30.1897
4471.48 42.8036 36.1982
4474.39 42.419 35.0483
4477.29 43.9666 39.5591
4480.2 43.5033 38.6796
4483.1 41.7358 40.5237
4486.01 40.0063 34.8622
4488.91 44.499 37.097
4491.82 40.683 36.0384
4494.72 45.3632 37.1896
4497.63 40.9874 33.7531
4500.54 48.2874 40.0639
4503.44 40.3622 34.7911
4506.35 45.48 41.9172
4509.25 40.0895 36.1599
4512.16 44.8799 39.0296
4515.06 47.0084 40.8318
4517.97 43.0032 39.7854
4520.87 42.7363 41.99
4523.78 45.0939 37.7433
4526.68 42.6293 40.5505
4529.59 37.7422 33.9669
4532.49 42.4617 39.6444
4535.39 43.5205 41.6337
4538.3 42.604 40.1208
4541.2 41.0299 35.3794
4544.11 43.3692 38.1454
4547.01 43.3029 36.1232
4549.92 43.2317 38.2466
4552.82 47.4807 40.1538
4555.73 44.3509 38.5607
4558.63 48.8188 40.5376
4561.53 48.3356 40.6331
4564.44 48.6662 40.9086
4567.34 43.0872 35.3599
4570.25 45.5602 38.1498
4573.15 49.3296 40.8034
4576.06 50.3188 40.323
4578.96 52.5131 42.162
4581.86 49.2197 43.8665
4584.77 42.1867 34.4902
4587.67 50.4222 41.2444
4590.58 46.3911 36.4443
4593.48 45.3773 36.857
4596.38 40.135 35.6194
4599.29 47.0592 38.5969
4602.19 45.3996 38.5203
4605.09 48.0718 32.7548
4608 50.4617 38.7337
4610.9 43.5785 35.319
4613.8 45.4608 37.4867
4616.71 45.4134 37.0138
4619.61 44.3847 37.8915
4622.51 46.4099 35.5905
4625.42 47.6346 34.7743
4628.32 51.6856 36.1043
4631.22 46.2684 34.232
4634.13 43.9106 33.1387
4637.03 44.3565 36.3553
4639.93 49.3571 36.99
4642.84 52.7666 40.2747
4645.74 46.2379 37.1876
4648.64 47.6666 37.7142
4651.55 43.4557 34.3069
4654.45 51.3938 37.0902
4657.35 45.0903 35.5694
4660.25 43.6498 33.9999
4663.16 48.9998 35.3468
4666.06 46.5299 33.4681
4668.96 47.8317 35.1445
4671.86 47.0751 32.1996
4674.77 51.6531 37.8982
4677.67 46.7203 35.6719
4680.57 46.2942 34.715
4683.47 53.1929 41.4813
4686.37 47.2053 38.9965
4689.28 52.253 37.638
4692.18 52.4246 35.6367
4695.08 46.8991 37.269
4697.98 48.8362 35.1709
4700.89 53.8425 43.2863
4703.79 53.0893 43.1286
4706.69 48.9086 37.8563
4709.59 49.6104 40.7283
4712.49 50.7125 40.4453
4715.39 47.0036 36.9154
4718.3 46.7248 38.4899
4721.2 51.1941 39.1497
4724.1 51.1086 41.9227
4727 46.1278 38.1982
4729.9 45.8379 36.6754
4732.8 43.405 34.3933
4735.7 47.965 36.3253
4738.61 48.1018 36.6027
4741.51 51.0085 41.4985
4744.41 48.2317 38.6188
4747.31 50.8451 37.9805
4750.21 42.6047 40.1344
4753.11 48.9127 35.7593
4756.01 44.3025 35.7989
4758.91 47.1729 39.5803
4761.81 47.3814 39.1207
4764.71 47.0194 36.7557
4767.62 49.2389 37.384
4770.52 45.4696 34.8883
4773.42 43.8477 39.966
4776.32 40.4887 36.1495
4779.22 44.4386 38.473
4782.12 43.6675 36.2797
4785.02 41.5222 36.3889
4787.92 45.3632 38.9568
4790.82 50.5778 40.6348
4793.72 47.426 38.9156
4796.62 44.1772 34.1469
4799.52 49.8081 39.061
4802.42 45.767 37.3882
4805.32 50.8889 41.6611
4808.22 44.4252 39.2142
4811.12 48.2783 39.0106
4814.02 44.9396 37.7003
4816.92 44.6623 39.5273
4819.82 46.8373 39.4203
4822.72 44.1577 38.1301
4825.62 43.7725 38.7209
4828.52 48.2895 42.5346
4831.42 45.2579 40.391
4834.32 49.9669 39.31
4837.21 46.036 37.6753
4840.11 52.2349 41.9774
4843.01 49.8301 40.7673
4845.91 45.7986 42.2878
4848.81 47.9997 40.2027
4851.71 49.3264 41.8108
4854.61 47.9348 41.1331
4857.51 54.5677 45.0173
4860.41 48.4066 40.1565
4863.31 49.7835 41.1069
4866.2 52.8718 44.9925
4869.1 54.2444 41.4764
4872 46.8729 40.7781
4874.9 44.6074 41.6519
4877.8 52.1492 43.8873
4880.7 50.7673 42.0131
4883.6 50.0945 44.2378
4886.49 49.8887 45.1869
4889.39 52.6653 46.793
4892.29 58.3417 48.3407
4895.19 48.8463 42.2487
4898.09 57.0043 50.2609
4900.98 55.064 46.6862
4903.88 52.9246 50.0345
4906.78 47.6744 43.7686
4909.68 51.8481 45.2499
4912.58 51.1667 45.3435
4915.47 49.3193 45.0231
4918.37 52.1622 49.8782
4921.27 48.2688 41.9791
4924.17 48.652 41.2895
4927.06 51.0628 42.23
4929.96 51.4875 42.1532
4932.86 52.2259 45.6306
4935.75 46.5615 42.884
4938.65 44.5127 39.8421
4941.55 45.6888 41.9426
4944.45 43.33 39.5414
4947.34 46.729 41.0158
4950.24 49.4238 41.5354
4953.14 47.5962 41.0746
4956.03 45.2512 41.3933
4958.93 43.0244 37.1741
4961.83 45.2294 38.1446
4964.72 48.5053 42.3494
4967.62 50.6344 43.1992
4970.52 53.1017 45.6234
4973.41 50.5248 41.1296
4976.31 50.3681 42.4997
4979.2 49.5087 43.4805
4982.1 50.2867 44.0796
4985 51.0744 45.5902
4987.89 49.0763 46.0823
4990.79 48.8364 39.9063
4993.68 51.8566 41.1837
4996.58 48.5707 44.2282
4999.48 50.1879 43.461
5002.37 49.9976 46.8004
5005.27 52.3173 44.948
5008.16 54.5025 44.7546
5011.06 45.9096 42.8592
5013.95 50.1614 44.3819
5016.85 53.4107 46.482
5019.74 53.0384 48.4394
5022.64 53.6856 48.6726
5025.53 51.3862 47.0233
5028.43 49.6506 43.6059
5031.32 47.013 43.3307
5034.22 56.7008 48.6817
5037.11 56.2483 48.7133
5040.01 51.1833 44.6034
5042.9 54.0741 47.8763
5045.8 55.8713 49.8829
5048.69 49.5161 48.6413
5051.59 55.8438 51.0043
5054.48 50.1027 45.6242
5057.37 47.5617 47.4253
5060.27 52.6415 46.8053
5063.16 49.583 47.8587
5066.06 51.9425 50.9173
5068.95 53.5654 47.9411
5071.85 55.3968 48.4514
5074.74 49.8357 47.1482
5077.63 53.5796 49.5212
5080.53 54.3208 47.3387
5083.42 54.5631 49.6998
5086.31 53.0439 48.4132
5089.21 53.8272 48.9318
5092.1 48.8743 48.7879
5094.99 55.4366 48.95
5097.89 53.4173 50.1054
5100.78 53.4949 47.5522
5103.67 50.0577 48.2251
5106.57 49.4878 50.9888
5109.46 48.1754 48.6739
5112.35 48.5805 49.2303
5115.25 54.9783 50.1243
5118.14 45.4659 45.3256
5121.03 50.9259 48.8267
5123.92 50.3805 51.3378
5126.82 52.347 48.6077
5129.71 50.769 46.2001
5132.6 53.7425 49.7818
5135.49 55.3851 52.6262
5138.39 56.6499 46.8107
5141.28 54.3434 51.4964
5144.17 55.6163 50.4282
5147.06 52.1331 49.9495
5149.95 54.1164 52.0178
5152.85 55.1567 50.7638
5155.74 56.5449 52.2472
5158.63 51.4886 51.7994
5161.52 52.6596 47.9843
5164.41 53.4372 49.013
5167.3 56.1242 51.1958
5170.19 50.5066 46.8675
5173.09 53.8378 52.7914
5175.98 51.2875 52.0705
5178.87 51.4822 50.6944
5181.76 54.5757 52.6266
5184.65 56.4514 54.2609
5187.54 58.5497 54.7322
5190.43 53.467 53.6361
5193.32 59.4141 56.752
5196.21 51.1474 52.0274
5199.1 56.554 53.6738
5201.99 55.6618 53.8972
5204.88 50.2324 51.0645
5207.78 52.7323 53.44
5210.67 56.9912 51.9847
5213.56 57.9433 54.7943
5216.45 54.2518 54.3014
5219.34 58.0733 54.3265
5222.23 51.2264 48.8153
5225.12 53.8959 50.8004
5228.01 54.7265 53.858
5230.9 57.7831 51.7168
5233.78 54.7188 51.0392
5236.67 54.0786 53.1156
5239.56 57.316 54.0196
5242.45 54.6075 53.5229
5245.34 55.5503 53.4816
5248.23 51.9766 51.2457
5251.12 53.6223 50.1109
5254.01 54.2091 48.9475
5256.9 53.1602 50.7732
5259.79 50.0532 53.8942
5262.68 57.9279 54.3061
5265.57 55.6542 53.4282
5268.45 53.1949 50.9018
5271.34 51.2291 51.5883
5274.23 59.0453 55.46
5277.12 51.9979 51.268
5280.01 56.6794 55.1885
5282.9 57.2535 53.4844
5285.78 57.3275 54.4279
5288.67 54.8451 53.6082
5291.56 55.2841 52.9751
5294.45 52.5893 53.4629
5297.34 54.3985 58.3247
5300.22 55.1295 59.0184
5303.11 53.4198 55.4301
5306 57.633 55.5132
5308.89 55.5167 56.7264
5311.77 58.473 58.2364
5314.66 58.2188 56.6776
5317.55 58.6806 56.884
5320.43 58.4433 59.0228
5323.32 60.3523 58.3762
5326.21 58.9469 58.8317
5329.1 61.0485 59.3873
5331.98 50.3249 51.5939
5334.87 56.7703 61.3999
5337.76 59.1586 56.9175
5340.64 55.9927 53.8133
5343.53 57.7644 55.7881
5346.42 53.4412 55.6889
5349.3 56.5293 55.4287
5352.19 53.1418 55.9044
5355.07 53.3936 53.5038
5357.96 55.7345 58.4756
5360.85 54.6525 61.0183
5363.73 61.9054 60.4632
5366.62 62.4376 58.903
5369.5 59.7592 61.7079
5372.39 64.7503 64.535
5375.27 56.9025 60.854
5378.16 57.9623 55.673
5381.04 60.7308 58.0385
5383.93 59.8697 58.8336
5386.81 59.5618 61.0694
5389.7 61.7836 64.5614
5392.58 65.3306 64.4792
5395.47 63.6698 61.9091
5398.35 66.5639 64.711
5401.24 58.3548 63.4748
5404.12 58.0072 59.2462
5407.01 60.4914 58.3311
5409.89 60.6652 59.9013
5412.78 56.6653 55.9967
5415.66 55.8458 61.9996
5418.54 54.8583 56.6464
5421.43 58.5951 59.6806
5424.31 59.0559 61.1998
5427.2 56.6529 59.7894
5430.08 61.4044 61.9506
5432.96 60.6361 62.4348
5435.85 64.5805 65.1401
5438.73 58.4276 64.7273
5441.61 61.9335 62.3368
5444.5 63.4146 63.2854
5447.38 62.5088 62.2886
5450.26 65.1058 64.3077
5453.15 60.3209 60.9785
5456.03 60.0675 62.9801
5458.91 58.8823 61.9323
5461.8 59.8268 63.0218
5464.68 62.261 63.732
5467.56 62.9279 63.2913
5470.44 60.3163 61.1101
5473.33 64.317 63.1204
5476.21 61.5607 62.4222
5479.09 54.3593 59.1943
5481.97 57.0589 62.2391
5484.85 57.9405 60.8219
5487.74 56.9816 58.4268
5490.62 67.4929 63.6357
5493.5 57.1571 62.0198
5496.38 64.4647 63.5372
5499.26 57.4949 59.928
5502.14 54.8046 62.1443
5505.03 60.7803 61.9087
5507.91 63.5114 63.0095
5510.79 60.9436 68.4527
5513.67 63.6955 61.5868
5516.55 55.2123 60.5927
5519.43 65.2244 65.9342
5522.31 57.8481 64.0304
5525.19 68.1492 66.413
5528.07 61.6259 62.1916
5530.95 57.8456 60.2595
5533.83 58.8663 62.4771
5536.71 58.5619 64.2143
5539.59 57.1462 63.1181
5542.47 59.739 60.9491
5545.35 63.2055 62.4854
5548.23 54.9831 62.451
5551.11 61.2561 61.91
5553.99 60.5886 61.2264
5556.87 56.2649 61.9935
5559.75 62.7444 64.3723
5562.63 63.1119 65.1607
5565.51 64.1603 69.261
5568.39 66.4124 71.145
5571.27 64.7671 73.8172
5574.15 63.8978 64.4325
5577.03 72.6524 65.9777
5579.91 73.1295 75.4793
5582.78 59.6496 67.0967
5585.66 60.1132 65.5811
5588.54 61.2299 64.1949
5591.42 61.256 61.9523
5594.3 53.6829 61.1707
5597.18 64.4369 65.8477
5600.05 61.1131 63.3207
5602.93 64.8597 66.5875
5605.81 66.5182 69.2331
5608.69 61.9679 64.8954
5611.57 63.4222 64.6644
5614.44 57.5765 60.8341
5617.32 60.4806 64.4796
5620.2 55.5529 65.7668
5623.08 66.2711 67.684
5625.95 60.6503 64.6233
5628.83 64.1225 63.9539
5631.71 63.5822 70.3414
5634.58 65.8273 69.3632
5637.46 63.9593 65.2161
5640.34 67.513 66.3106
5643.21 66.2046 66.0228
5646.09 63.0002 64.3015
5648.97 65.6358 66.7484
5651.84 62.6587 65.0555
5654.72 61.7361 64.8104
5657.59 62.7188 65.1318
5660.47 65.5119 64.7698
5663.35 63.524 66.7827
5666.22 59.7121 62.3125
5669.1 62.7258 63.4401
5671.97 60.0093 62.3378
5674.85 60.7427 67.167
5677.72 57.143 62.2536
5680.6 56.9247 64.5542
5683.47 63.8272 63.2321
5686.35 63.5493 62.4285
5689.22 64.2825 67.2214
5692.1 63.1233 67.5455
5694.97 63.1195 63.9523
5697.85 64.7287 67.7448
5700.72 62.7226 67.8089
5703.6 63.4005 66.6081
5706.47 64.3645 66.2187
5709.35 64.1998 67.5495
5712.22 61.4575 63.0147
5715.09 68.3432 70.3619
5717.97 56.9601 64.0129
5720.84 66.159 68.4458
5723.71 62.9696 65.7356
5726.59 61.4872 66.8351
5729.46 62.912 66.8796
5732.33 61.5949 64.2008
5735.21 61.466 67.577
5738.08 66.1101 66.3387
5740.95 65.8684 67.7497
5743.83 61.1504 66.3208
5746.7 61.3486 67.9871
5749.57 59.803 66.7771
5752.44 63.2809 65.7014
5755.32 63.7846 67.225
5758.19 69.0035 69.296
5761.06 64.4508 70.6349
5763.93 61.4302 65.3872
5766.81 65.8775 64.8212
5769.68 67.2653 72.459
5772.55 61.4838 66.5545
5775.42 62.778 67.0492
5778.29 62.8699 69.6297
5781.16 64.3771 64.4464
5784.04 63.4967 64.7221
5786.91 66.3909 69.993
5789.78 64.4636 66.2536
5792.65 65.2405 66.1825
5795.52 66.3264 66.2245
5798.39 60.0666 67.3789
5801.26 66.4343 67.3455
5804.13 59.5522 69.3202
5807 65.2724 65.6666
5809.87 70.6661 72.0208
5812.74 63.4446 69.6306
5815.61 69.4426 74.8831
5818.48 70.7813 70.6879
5821.35 69.7925 73.0974
5824.22 66.9752 68.8473
5827.09 67.5838 70.1217
5829.96 67.6167 69.4846
5832.83 66.7509 71.8657
5835.7 62.3591 71.4562
5838.57 61.99 68.7708
5841.44 64.0226 69.7333
5844.31 65.3212 70.04
5847.18 65.7604 71.0015
5850.05 68.2132 71.241
5852.91 68.9537 69.0006
5855.78 64.5777 67.0736
5858.65 69.3228 73.3628
5861.52 63.4139 76.2815
5864.39 68.8761 71.9646
5867.26 63.2323 67.2963
5870.12 66.3518 69.3891
5872.99 63.8588 68.7768
5875.86 66.3842 72.451
5878.73 63.3487 66.3724
5881.59 67.5334 71.9335
5884.46 66.8164 69.6609
5887.33 74.3301 76.2494
5890.2 70.0637 71.72
5893.06 53.4102 67.3777
5895.93 67.9333 73.6476
5898.8 61.4667 67.0026
5901.66 66.8441 67.2039
5904.53 66.0251 67.6275
5907.4 64.5919 68.7212
5910.26 68.629 70.715
5913.13 65.1646 68.4705
5916 65.3392 71.3147
5918.86 60.985 72.5533
5921.73 69.0374 74.4936
5924.59 73.7006 75.8917
5927.46 72.5094 73.2464
5930.32 65.4449 74.5312
5933.19 64.7122 70.7182
5936.06 65.474 68.6362
5938.92 63.9442 71.1201
5941.79 63.3849 69.7628
5944.65 58.4075 68.4964
5947.52 64.3471 71.5781
5950.38 68.691 73.1574
5953.24 66.0778 68.6782
5956.11 67.263 70.186
5958.97 62.6666 71.4283
5961.84 68.4908 73.69
5964.7 65.6125 74.0875
5967.57 66.7356 71.9076
5970.43 67.0326 70.8053
5973.29 63.17 68.9507
5976.16 58.1222 62.6962
5979.02 55.2045 59.2398
5981.88 54.5613 60.4304
5984.75 54.886 65.3912
5987.61 56.9824 63.1014
5990.47 61.8222 66.4069
5993.34 60.337 64.4482
5996.2 66.0703 68.2807
5999.06 67.5639 69.2448
6001.92 66.7304 73.8572
6004.79 61.9952 71.176
6007.65 65.2994 70.3708
6010.51 65.7702 66.703
6013.37 67.3945 71.0542
6016.23 67.6021 72.9888
6019.1 69.6495 72.3199
6021.96 69.9137 74.6323
6024.82 61.1572 70.3374
6027.68 69.8802 74.1107
6030.54 64.7004 71.368
6033.4 64.8264 70.9127
6036.26 66.0468 71.2406
6039.13 64.7689 71.3269
6041.99 66.5805 71.3995
6044.85 62.8077 69.6765
6047.71 68.9133 72.7328
6050.57 65.5463 72.6435
6053.43 73.928 77.1073
6056.29 68.3813 72.7931
6059.15 66.9086 69.7916
6062.01 64.7368 68.7173
6064.87 66.5503 70.1739
6067.73 62.0709 72.7888
6070.59 62.8456 70.8837
6073.45 66.3984 74.8264
6076.31 66.3761 71.5195
6079.17 68.1236 74.192
6082.03 65.4669 72.9216
6084.88 64.3972 70.5342
6087.74 63.9317 70.1746
6090.6 69.8955 75.1947
6093.46 67.092 70.0503
6096.32 66.7656 74.8647
6099.18 66.5202 70.8632
6102.04 63.9387 70.6244
6104.89 64.0522 73.975
6107.75 64.3517 70.7828
6110.61 68.5631 73.7825
6113.47 61.5583 67.7693
6116.32 67.9636 71.2908
6119.18 68.4075 73.5028
6122.04 67.4792 72.8123
6124.9 66.1335 76.2008
6127.75 69.6999 73.8255
6130.61 66.815 75.3231
6133.47 70.5168 75.5116
6136.32 69.2575 75.408
6139.18 68.6111 72.5957
6142.04 67.5461 73.8405
6144.89 61.9306 73.3915
6147.75 68.4075 75.9599
6150.6 68.39 74.7162
6153.46 67.9498 74.6179
6156.32 63.8763 73.2957
6159.17 70.9616 75.3407
6162.03 64.0563 71.2239
6164.88 68.5582 75.3086
6167.74 69.6446 74.2318
6170.59 67.1183 76.9389
6173.45 69.2009 72.5477
6176.3 63.9141 72.5531
6179.16 67.8749 75.3907
6182.01 71.7307 76.8367
6184.87 69.114 75.0779
6187.72 67.8912 74.4435
6190.58 65.3505 70.0391
6193.43 70.4548 74.8262
6196.28 65.2056 71.1067
6199.14 60.4896 69.9857
6201.99 68.6877 74.4096
6204.84 70.1501 72.5394
6207.7 67.4603 73.6279
6210.55 69.0203 76.7644
6213.4 60.3742 72.5679
6216.26 68.6575 72.392
6219.11 71.468 76.5452
6221.96 70.3515 74.4014
6224.82 59.6542 70.8141
6227.67 68.691 75.4218
6230.52 68.6382 72.2137
6233.37 65.8509 71.3227
6236.22 71.3517 73.4924
6239.08 72.5382 77.3559
6241.93 68.6426 74.9936
6244.78 67.1335 73.4529
6247.63 67.5727 74.0881
6250.48 65.8153 72.1854
6253.33 59.4806 69.0374
6256.19 62.3349 70.6933
6259.04 57.6104 69.7859
6261.89 64.3697 72.561
6264.74 66.9449 72.4092
6267.59 64.6496 70.6578
6270.44 68.4392 73.9361
6273.29 68.8589 73.5407
6276.14 66.0183 73.6999
6278.99 62.7818 72.3341
6281.84 64.9815 71.1142
6284.69 69.9397 73.7006
6287.54 65.2008 68.9567
6290.39 69.8946 75.9989
6293.24 68.1128 71.1786
6296.09 68.7107 73.3625
6298.94 71.9163 73.8802
6301.79 69.8567 74.6399
6304.63 64.0226 72.0459
6307.48 60.8044 67.4954
6310.33 65.0667 70.1943
6313.18 62.9814 71.8135
6316.03 62.069 68.3536
6318.88 68.9846 72.6156
6321.72 67.7704 72.3324
6324.57 68.7402 71.7985
6327.42 70.6179 74.9065
6330.27 60.328 66.5305
6333.11 65.1656 70.8392
6335.96 66.801 73.6242
6338.81 66.6828 73.856
6341.66 60.7518 66.1454
6344.5 67.5776 71.0571
6347.35 67.3431 74.4165
6350.2 65.9539 70.0366
6353.04 67.142 72.6045
6355.89 69.0095 71.1688
6358.74 70.563 76.6393
6361.58 69.7137 77.3272
6364.43 68.1474 74.2656
6367.27 67.791 72.8993
6370.12 60.3661 71.6129
6372.96 70.4128 77.1658
6375.81 65.5561 70.4345
6378.65 68.4542 69.2742
6381.5 71.1571 76.849
6384.34 64.8341 74.4901
6387.19 64.8655 73.7562
6390.03 68.5116 70.9742
6392.88 68.635 73.9404
6395.72 63.6426 74.4848
6398.57 63.1605 73.0881
6401.41 72.7734 76.5617
6404.26 71.0365 75.9939
6407.1 67.9851 76.1862
6409.94 70.9547 75.7414
6412.79 68.1675 76.1737
6415.63 63.4397 70.5373
6418.47 70.1734 77.7367
6421.32 65.5325 74.1832
6424.16 74.4624 81.3447
6427 61.4033 70.9614
6429.84 69.5774 76.3534
6432.69 64.3184 71.2614
6435.53 71.7804 74.0109
6438.37 71.1122 75.9399
6441.21 67.5699 73.5667
6444.06 69.629 73.731
6446.9 62.5363 71.4505
6449.74 69.875 74.2381
6452.58 62.3459 76.0356
6455.42 61.0619 72.5266
6458.26 70.1961 74.8921
6461.1 58.8942 70.3594
6463.95 62.0632 73.4775
6466.79 63.2484 74.469
6469.63 67.4047 74.925
6472.47 70.4332 76.8752
6475.31 71.9481 74.6729
6478.15 70.8559 74.8754
6480.99 73.345 76.8682
6483.83 71.0076 76.4551
6486.67 70.1072 75.4538
6489.51 65.7708 69.9646
6492.35 65.8784 71.1423
6495.19 63.9079 71.3046
6498.02 71.6213 76.0983
6500.86 67.481 75.1508
6503.7 70.4498 75.0582
6506.54 66.2408 72.646
6509.38 66.8437 69.057
6512.22 60.983 68.1524
6515.06 64.9141 68.4249
6517.89 65.0103 71.2134
6520.73 66.5943 73.5775
6523.57 62.1459 72.2361
6526.41 73.4084 77.1411
6529.25 56.9147 70.04
6532.08 69.532 75.4001
6534.92 63.6308 70.1774
6537.76 62.9349 71.4953
6540.59 70.6715 76.3158
6543.43 68.7543 72.8972
6546.27 65.4865 71.6298
6549.1 67.0817 70.2503
6551.94 66.5504 73.257
6554.78 64.6079 70.0262
6557.61 70.0909 75.4666
6560.45 66.6556 72.1267
6563.28 61.3802 72.684
6566.12 69.6798 73.6672
6568.96 67.123 70.6929
6571.79 65.3258 69.761
6574.63 63.7562 75.0644
6577.46 70.9013 75.8421
6580.3 60.329 69.3223
6583.13 67.2111 71.9458
6585.97 71.5497 74.8808
6588.8 59.215 69.9032
6591.63 59.1618 68.0218
6594.47 64.305 70.1574
6597.3 67.2722 73.5554
6600.14 66.4379 69.8391
6602.97 66.8171 72.1527
6605.8 68.9133 74.3428
6608.64 65.8314 71.3214
6611.47 73.0777 76.8303
6614.3 66.4435 70.5174
6617.13 72.4625 80.5817
6619.97 69.3408 75.5227
6622.8 67.3369 74.4146
6625.63 68.3379 76.7735
6628.46 68.2681 73.3962
6631.3 65.2683 75.9431
6634.13 72.3193 76.1187
6636.96 70.186 72.9124
6639.79 74.1622 80.7367
6642.62 71.9978 78.1275
6645.46 75.5598 84.5331
6648.29 77.5718 82.7394
6651.12 75.2802 80.8167
6653.95 80.1323 84.6914
6656.78 100.618 107.042
6659.61 112.147 124.071
6662.44 117.835 128.859
6665.27 114.732 120.651
6668.1 96.299 102.719
6670.93 87.3558 93.3912
6673.76 79.1733 85.4343
6676.59 81.222 85.747
6679.42 84.5245 93.5855
6682.25 86.974 92.9319
6685.08 88.3929 94.302
6687.91 83.8207 89.8779
6690.74 74.1885 81.4378
6693.56 74.1306 79.4787
6696.39 74.0686 79.4136
6699.22 68.5948 77.8168
6702.05 72.0981 75.6723
6704.88 76.232 82.9151
6707.7 68.3151 75.1468
6710.53 70.5568 76.3788
6713.36 74.5546 77.3345
6716.19 71.4373 77.9707
6719.01 72.6194 79.3035
6721.84 72.6987 80.813
6724.67 74.5433 80.0212
6727.5 71.126 77.8168
6730.32 73.5413 78.6222
6733.15 68.4354 74.1272
6735.97 69.1743 72.9079
6738.8 68.1604 75.2316
6741.63 73.3639 77.7801
6744.45 71.4714 75.594
6747.28 64.9865 74.0223
6750.1 69.6172 75.3706
6752.93 66.9751 73.0019
6755.75 74.9272 80.1671
6758.58 70.6763 75.9341
6761.4 69.3068 71.8611
6764.23 74.133 79.4057
6767.05 67.009 72.7672
6769.88 71.5846 78.3913
6772.7 68.6994 75.3015
6775.53 71.7546 75.1491
6778.35 69.2548 72.7427
6781.17 71.1653 74.8889
6784 70.9595 77.5933
6786.82 70.9619 77.7954
6789.64 70.7904 79.758
6792.47 69.075 74.9776
6795.29 72.4886 77.0985
6798.11 73.2066 76.7467
6800.94 75.5914 80.6762
6803.76 68.9096 73.2205
6806.58 68.8356 74.9927
6809.4 71.0493 74.3538
6812.22 71.8914 77.8214
6815.05 72.5118 82.0358
6817.87 82.4616 86.5411
6820.69 76.0536 80.7895
6823.51 76.0888 79.7063
6826.33 74.2199 79.8949
6829.15 77.2448 78.5315
6831.97 59.1127 74.0348
6834.79 79.1945 79.9176
6837.61 76.3721 79.0371
6840.43 68.1586 73.4642
6843.26 65.5985 71.1074
6846.08 66.7926 71.7043
6848.89 66.1523 69.5586
6851.71 71.174 74.4356
6854.53 62.2012 70.5132
6857.35 68.5536 71.1901
6860.17 67.6687 71.5471
6862.99 63.493 68.4958
6865.81 48.9681 59.3528
6868.63 52.4644 59.5737
6871.45 55.9086 57.7702
6874.27 53.9275 57.0187
6877.08 47.6494 56.536
6879.9 62.064 64.4345
6882.72 62.0374 65.3282
6885.54 57.9785 65.8628
6888.35 58.1826 63.9632
6891.17 55.8434 65.7488
6893.99 63.7231 64.1864
6896.81 62.3804 65.5169
6899.62 61.5126 64.0535
6902.44 60.2866 64.119
6905.26 62.3384 67.1926
6908.07 65.9733 68.8117
6910.89 62.3275 70.597
6913.7 67.5671 74.8312
6916.52 64.5237 70.3181
6919.34 65.9615 71.0092
6922.15 56.9427 66.7558
6924.97 67.509 73.7189
6927.78 65.9287 69.2376
6930.6 63.0903 68.1999
6933.41 68.1014 69.8288
6936.23 67.5011 67.1135
6939.04 66.047 70.4328
6941.86 68.8242 69.0071
6944.67 66.3163 71.9062
6947.48 65.1856 68.822
6950.3 61.8282 66.4197
6953.11 65.3797 70.334
6955.92 65.0974 70.391
6958.74 68.8227 72.0284
6961.55 68.7787 72.3526
6964.36 66.9505 72.1681
6967.18 64.4523 72.1033
6969.99 68.2837 70.4033
6972.8 64.1314 72.8311
6975.61 67.8723 74.3342
6978.43 65.303 74.607
6981.24 68.6089 71.9275
6984.05 66.7484 73.3067
6986.86 70.0895 73.133
6989.67 65.3217 71.2034
6992.48 71.5943 74.5812
6995.29 69.0602 72.3581
6998.11 63.2761 72.2302
7000.92 69.6483 74.2348
7003.73 66.6213 70.0234
7006.54 66.7064 69.7489
7009.35 67.5891 71.6004
7012.16 66.5202 73.332
7014.97 71.6709 75.7757
7017.78 65.2119 72.1147
7020.59 67.2147 74.4651
7023.4 67.2947 73.2975
7026.2 65.2049 70.3368
7029.01 71.0284 73.5542
7031.82 66.067 67.6302
7034.63 68.0934 70.9737
7037.44 69.6073 74.5216
7040.25 66.0247 69.6403
7043.06 66.9944 71.4067
7045.86 69.7555 72.9399
7048.67 60.1297 69.0602
7051.48 70.6637 72.0328
7054.29 68.07 70.9477
7057.09 66.4441 71.1447
7059.9 70.8111 72.7264
7062.71 68.3684 69.4979
7065.51 71.9411 76.8027
7068.32 68.6084 71.989
7071.13 68.1276 73.1001
7073.93 65.0758 70.4717
7076.74 68.806 74.6168
7079.55 71.0043 77.8067
7082.35 70.5263 73.241
7085.16 66.3292 73.9264
7087.96 69.2641 72.4231
7090.77 68.4309 73.5506
7093.57 69.967 72.4325
7096.38 67.4989 72.9823
7099.18 70.1849 70.768
7101.99 66.6347 70.0771
7104.79 66.9799 70.0151
7107.59 67.8686 73.3285
7110.4 70.8815 75.4593
7113.2 62.0721 66.2116
7116 68.9261 71.7699
7118.81 69.7259 72.1179
7121.61 71.0046 73.7045
7124.41 67.543 71.4458
7127.22 69.4321 72.4191
7130.02 60.8887 68.4472
7132.82 72.0207 74.3
7135.62 68.7797 72.9323
7138.43 73.6019 73.5832
7141.23 70.3389 75.0185
7144.03 69.4631 72.5914
7146.83 61.0607 69.3691
7149.63 64.413 68.5133
7152.43 71.6962 72.7385
7155.24 76.4656 79.9179
7158.04 66.7019 72.4811
7160.84 75.3338 74.5737
7163.64 63.7663 69.6228
7166.44 65.7095 66.7663
7169.24 63.4122 64.9666
7172.04 62.2591 66.8729
7174.84 59.617 59.9074
7177.64 60.2141 63.0545
7180.44 61.482 62.9129
7183.24 61.3259 63.9077
7186.03 58.575 57.8329
7188.83 61.2483 62.8368
7191.63 57.2277 58.6558
7194.43 58.266 58.9637
7197.23 58.8549 60.563
7200.03 57.0316 60.7681
7202.82 69.3186 69.324
7205.62 60.5005 63.8856
7208.42 59.1975 62.0389
7211.22 70.0216 72.1831
7214.01 65.3679 67.9228
7216.81 68.0159 69.9184
7219.61 65.4715 69.0218
7222.4 64.8417 63.3391
7225.2 64.2369 67.3919
7228 61.9017 64.2135
7230.79 59.6466 61.3855
7233.59 66.0974 63.2652
7236.38 72.7622 65.6805
7239.18 62.5621 57.9041
7241.98 60.4619 58.3894
7244.77 61.9793 59.0981
7247.57 58.571 64.7737
7250.36 53.562 57.0197
7253.16 53.2465 64.5985
7255.95 62.1585 60.608
7258.74 57.2072 57.6346
7261.54 60.2455 62.4359
7264.33 56.3788 60.6977
7267.13 48.826 56.0006
7269.92 54.5214 61.3909
7272.71 52.6532 57.8336
7275.51 59.0105 61.868
7278.3 61.5351 63.9546
7281.09 52.591 63.2549
7283.88 48.3676 66.4003
7286.68 61.7303 63.469
7289.47 61.5172 64.286
7292.26 65.8401 66.6569
7295.05 59.7937 61.249
7297.84 66.6174 64.2074
7300.63 62.7978 60.0395
7303.43 62.2839 62.521
7306.22 59.4094 59.3345
7309.01 60.736 62.4569
7311.8 50.5862 60.0555
7314.59 62.2534 62.2177
7317.38 65.0715 66.6435
7320.17 63.6628 69.2711
7322.96 69.4898 70.9989
7325.75 68.1596 68.4232
7328.54 66.0453 64.5142
7331.33 66.5104 69.3012
7334.12 75.0143 71.1354
7336.91 47.2607 61.0785
7339.7 69.0517 69.3034
7342.48 45.2677 66.9247
7345.27 66.3625 71.0581
7348.06 59.9737 69.9412
7350.85 66.6786 66.2459
7353.64 66.2819 62.2328
7356.42 68.6344 68.031
7359.21 65.6563 67.6691
7362 64.1154 61.0431
7364.79 53.6843 66.8812
7367.57 70.1261 64.7367
7370.36 68.4349 69.2613
7373.15 66.3395 70.3149
7375.93 55.7915 64.6848
7378.72 67.121 68.7803
7381.5 65.3605 66.7815
7384.29 59.7478 65.5656
7387.08 69.2859 65.5315
7389.86 70.7289 65.9973
7392.65 63.0665 64.8216
7395.43 66.4163 64.4681
7398.22 68.3777 66.9898
7401 62.6462 63.5865
7403.78 73.9953 71.6967
7406.57 72.5574 69.5955
7409.35 69.6383 68.1101
7412.14 67.1006 65.2224
7414.92 65.8297 63.7894
7417.7 64.8904 66.3178
7420.49 70.6173 67.5529
7423.27 67.081 64.2615
7426.05 69.7435 67.3546
7428.84 68.6745 64.224
7431.62 73.1215 72.1173
7434.4 69.3241 66.8918
7437.18 71.6853 67.5733
7439.96 78.0439 71.2023
7442.75 70.1975 68.9217
7445.53 68.1883 72.2409
7448.31 72.7531 69.8507
7451.09 76.2163 71.3693
7453.87 66.0754 67.9452
7456.65 75.809 70.0459
7459.43 71.3609 68.6387
7462.21 71.8518 68.3708
7464.99 76.7693 71.9229
7467.77 78.2641 72.7576
7470.55 68.435 62.3053
7473.33 65.1966 69.0325
7476.11 76.3893 72.8673
7478.89 74.5676 68.684
7481.67 76.5255 71.3702
7484.45 59.7888 68.4018
7487.23 70.3658 69.8207
7490 73.5621 73.4863
7492.78 69.7477 65.0041
7495.56 65.6446 67.1296
7498.34 65.6335 65.2631
7501.12 68.8356 68.7116
7503.89 72.0533 67.8261
7506.67 65.6059 66.6972
7509.45 71.2782 71.3176
7512.22 63.327 65.6646
7515 72.4819 67.8874
7517.78 63.5865 66.6319
7520.55 70.4478 67.4892
7523.33 72.5102 64.1676
7526.1 59.8136 64.4092
7528.88 73.6908 72.1004
7531.66 62.5156 66.3146
7534.43 67.5281 66.2803
7537.21 57.3003 59.1186
7539.98 65.4752 63.7055
7542.75 66.0931 62.6218
7545.53 59.5824 62.9907
7548.3 62.8362 62.2527
7551.08 65.6305 61.2715
7553.85 63.0284 59.9996
7556.62 64.8965 61.1683
7559.4 67.0462 61.2707
7562.17 68.6598 67.6903
7564.94 63.5175 63.0509
7567.72 61.0182 64.7493
7570.49 67.6296 61.198
7573.26 66.7314 60.8641
7576.03 63.3478 64.2366
7578.81 61.6534 59.2944
7581.58 64.9897 64.3272
7584.35 64.3869 60.7397
7587.12 61.6581 60.021
7589.89 54.7869 55.0475
7592.66 41.9438 44.1466
7595.43 25.9505 28.5109
7598.2 25.7959 24.0475
7600.97 19.7257 17.3687
7603.74 16.4295 15.7936
7606.51 20.6447 18.8723
7609.28 21.4202 21.618
7612.05 33.2466 29.44
7614.82 42.817 41.5715
7617.59 44.8258 39.8185
7620.36 42.4242 39.5117
7623.13 41.8057 38.6446
7625.9 36.2974 33.1344
7628.67 36.9889 32.1767
7631.43 34.371 34.6657
7634.2 37.2828 33.1601
7636.97 39.4482 36.8846
7639.74 45.1406 41.453
7642.5 40.7487 39.246
7645.27 46.4367 42.6849
7648.04 47.0195 41.9878
7650.81 47.4334 46.5403
7653.57 51.9541 50.8553
7656.34 55.6801 51.6751
7659.1 58.0431 54.0721
7661.87 60.2636 55.6783
7664.64 58.64 52.8691
7667.4 56.3582 57.1945
7670.17 65.2904 60.1597
7672.93 62.4252 56.7829
7675.7 66.0494 59.5863
7678.46 63.2527 56.1949
7681.23 67.9253 59.572
7683.99 62.7337 59.2526
7686.75 61.5629 58.6532
7689.52 74.3181 63.2113
7692.28 60.1895 58.5204
7695.04 62.4932 58.4643
7697.81 66.6359 61.6545
7700.57 64.3918 60.5865
7703.33 59.8248 55.996
7706.1 68.9289 61.7739
7708.86 75.715 62.8767
7711.62 70.3552 57.13
7714.38 75.5687 60.7513
7717.14 68.0242 58.8061
7719.9 59.7796 59.9939
7722.67 65.3409 61.0676
7725.43 63.1548 58.9443
7728.19 65.4102 62.396
7730.95 66.6836 60.186
7733.71 70.3403 62.2587
7736.47 68.3017 61.6883
7739.23 68.2674 60.5029
7741.99 57.3777 61.6982
7744.75 77.5479 59.2201
7747.51 65.5546 57.1086
7750.27 51.0901 59.3858
7753.03 63.815 66.0509
7755.79 70.3837 62.2638
7758.54 51.7216 65.515
7761.3 63.6443 63.2512
7764.06 64.5732 64.0583
7766.82 70.2744 64.1748
7769.58 66.8455 65.9475
7772.33 69.4233 61.2891
7775.09 69.6167 57.8773
7777.85 62.6603 53.7311
7780.6 61.0624 57.7673
7783.36 62.3343 58.9791
7786.12 65.4196 59.6277
7788.87 72.2412 59.7222
7791.63 51.7151 56.6519
7794.39 74.385 64.5736
7797.14 66.5408 59.8411
7799.9 64.7189 60.1409
7802.65 61.474 63.6871
7805.41 56.8452 53.8931
7808.16 65.6302 60.161
7810.92 54.4989 63.3214
7813.67 53.0733 55.2844
7816.42 48.9414 53.4911
7819.18 55.4947 59.434
7821.93 71.0444 58.8532
7824.69 48.8553 62.2076
7827.44 63.9025 56.3138
7830.19 62.6353 60.3015
7832.94 64.2656 61.205
7835.7 60.7148 57.0475
7838.45 65.9304 61.6461
7841.2 67.8804 61.7084
7843.95 71.7315 62.5479
7846.71 71.2171 62.5111
7849.46 74.8647 60.4538
7852.21 65.5956 59.5725
7854.96 53.6384 52.6963
7857.71 64.5384 52.6462
7860.46 63.9054 55.5125
7863.21 61.8936 58.8331
7865.96 62.5958 55.6945
7868.71 54.9739 53.9007
7871.46 63.374 56.9762
7874.21 76.6294 62.8262
7876.96 60.9602 57.6657
7879.71 62.0854 59.978
7882.46 49.5373 61.0584
7885.21 64.7964 51.5026
7887.96 72.7702 63.273
7890.7 65.56 51.1832
7893.45 59.6404 59.0059
7896.2 50.3691 56.1145
7898.95 58.2743 59.1996
7901.7 61.7257 59.0742
7904.44 62.2897 54.1512
7907.19 46.7693 50.8902
7909.94 53.2337 60.4824
7912.68 60.4846 52.0961
7915.43 78.0723 57.8446
7918.18 76.7608 64.8145
7920.92 66.4792 55.7918
7923.67 69.8679 67.7422
7926.41 67.777 61.2972
7929.16 69.8333 56.65
7931.9 54.4288 62.7222
7934.65 72.419 62.7036
7937.39 65.0521 58.5987
7940.14 63.441 58.7198
7942.88 65.8852 55.0726
7945.62 68.0068 59.6112
7948.37 69.6857 56.0605
7951.11 57.2475 53.9955
7953.85 64.1386 56.7901
7956.6 55.3698 59.3858
7959.34 69.7884 58.9557
7962.08 54.2778 55.7261
7964.83 69.0048 56.6932
7967.57 54.1382 51.564
7970.31 67.5888 59.199
7973.05 63.9129 54.7845
7975.79 72.7005 55.0397
7978.53 69.9227 59.8795
7981.28 70.3417 60.2869
7984.02 46.2711 53.516
7986.76 68.6184 59.5758
7989.5 79.0523 55.0273
7992.24 77.712 51.9775
7994.98 63.4447 55.1119
7997.72 62.7354 55.5571
8000.46 63.533 56.7812
8003.2 62.9085 55.2833
8005.93 64.5189 56.2571
8008.67 66.5949 55.2975
8011.41 71.0501 59.4416
8014.15 54.227 56.6809
8016.89 55.5611 52.5707
8019.63 67.3105 56.9771
8022.36 59.8736 50.0191
8025.1 78.6668 59.0862
8027.84 68.312 53.5813
8030.58 65.1139 61.6669
8033.31 48.889 51.0132
8036.05 61.5119 54.5177
8038.79 63.418 54.7331
8041.52 61.5009 57.7464
8044.26 66.0348 55.2282
8046.99 60.3426 55.0186
8049.73 64.5992 52.7519
8052.46 63.9579 60.139
8055.2 61.6113 58.2692
8057.93 55.605 53.51
8060.67 65.9291 47.8995
8063.4 66.0759 55.5108
8066.14 56.5879 58.7238
8068.87 68.5577 59.8736
8071.6 66.0306 59.0122
8074.34 67.8298 57.2973
8077.07 65.733 54.0016
8079.8 67.1268 56.1757
8082.54 69.2526 61.9149
8085.27 62.6243 61.7366
8088 68.5537 59.4921
8090.73 72.6696 62.9726
8093.47 70.9821 58.0562
8096.2 68.1431 57.7124
8098.93 64.908 56.393
8101.66 60.4006 54.71
8104.39 61.3107 56.3162
8107.12 65.8061 55.7299
8109.85 61.0617 54.1142
8112.58 68.3743 56.6109
8115.31 63.2113 53.5221
8118.04 71.3731 60.2975
8120.77 62.8104 52.7783
8123.5 65.8144 53.0838
8126.23 66.8387 54.622
8128.96 60.5645 52.9633
8131.69 69.0453 55.803
8134.42 60.8825 51.9317
8137.14 66.213 52.4848
8139.87 60.4604 49.2976
8142.6 61.7316 51.2778
8145.33 58.4006 48.6224
8148.05 65.4744 53.9169
8150.78 57.198 52.1926
8153.51 57.7065 49.3953
8156.24 56.664 47.346
8158.96 61.7204 49.8638
8161.69 58.3409 50.2238
8164.41 57.7343 47.5236
8167.14 60.9497 49.4824
8169.86 60.2233 47.416
8172.59 61.4183 49.703
8175.31 54.0379 48.726
8178.04 57.8685 52.2254
8180.76 65.6798 53.3282
8183.49 58.1001 49.404
8186.21 55.62 46.5817
8188.94 58.4395 47.5874
8191.66 61.0154 52.2384
8194.38 61.0027 49.6572
8197.11 61.2832 49.5999
8199.83 60.7799 53.2371
8202.55 63.8942 54.5055
8205.27 65.7632 50.0748
8208 61.8171 49.5894
8210.72 63.4181 53.2402
8213.44 59.6971 49.281
8216.16 66.5995 53.3369
8218.88 57.7287 47.6448
8221.6 59.6191 44.2171
8224.32 54.5278 45.9118
8227.05 46.0205 36.6416
8229.77 56.2765 43.6679
8232.49 62.5682 49.0504
8235.21 63.8334 49.3388
8237.93 64.945 50.276
8240.64 77.7663 55.0121
8243.36 71.8872 54.9102
8246.08 62.6284 54.6916
8248.8 65.2955 54.2972
8251.52 62.0894 51.71
8254.24 60.78 48.2597
8256.96 62.9122 51.076
8259.67 64.4862 50.4177
8262.39 67.44 51.0395
8265.11 63.0923 50.746
8267.83 64.7969 52.2462
8270.54 66.0998 55.0565
8273.26 62.9595 51.5574
8275.98 67.1745 52.6584
8278.69 65.0549 47.0728
8281.41 55.5002 39.9488
8284.12 66.7007 48.1309
8286.84 57.0874 45.5421
8289.55 64.4685 53.0471
8292.27 61.1736 54.3395
8294.98 35.3687 46.358
8297.7 69.1476 54.5772
8300.41 74.773 56.9571
8303.13 59.448 52.1109
8305.84 65.4693 58.528
8308.55 66.8708 51.6548
8311.27 58.0299 53.7367
8313.98 66.3476 52.1113
8316.69 63.1194 46.9117
8319.4 61.3538 51.0906
8322.12 62.2574 53.253
8324.83 64.4481 52.549
8327.54 61.9549 53.7331
8330.25 66.3915 51.9489
8332.96 57.1921 46.7043
8335.67 54.2361 48.7064
8338.39 57.9593 48.9313
8341.1 68.5389 37.8438
8343.81 63.2969 43.6485
8346.52 80.7789 57.6174
8349.23 11.3374 54.8336
8351.94 63.0211 60.9648
8354.65 58.2106 39.3341
8357.35 64.9948 59.455
8360.06 58.7411 49.2115
8362.77 63.7889 48.3841
8365.48 74.8434 52.353
8368.19 65.345 59.0534
8370.9 66.0986 55.3883
8373.6 69.934 56.7984
8376.31 56.0653 53.1122
8379.02 78.074 54.3799
8381.73 70.3891 47.0774
8384.43 76.0453 47.9316
8387.14 65.6963 49.8574
8389.85 63.4515 53.0648
8392.55 69.0095 55.749
8395.26 84.4122 56.2844
8397.96 81.0011 51.1227
8400.67 43.1499 46.03
8403.37 70.5436 54.5703
8406.08 59.0467 50.8943
8408.78 68.0108 51.7981
8411.49 74.6367 50.1406
8414.19 54.2419 48.4038
8416.9 64.3165 46.2678
8419.6 49.431 49.7935
8422.3 64.5617 54.3033
8425.01 45.4986 44.6613
8427.71 80.9173 49.7362
8430.41 67.7764 44.9455
8433.11 79.6628 49.4398
8435.82 64.4045 46.2379
8438.52 63.9285 52.3389
8441.22 62.9883 48.8237
8443.92 58.0068 49.8953
8446.62 58.6213 52.6012
8449.32 55.7526 47.2711
8452.02 62.6555 51.0652
8454.72 65.3888 51.7911
8457.42 60.575 57.1677
8460.12 58.1157 48.4514
8462.82 53.4062 42.6591
8465.52 60.5554 42.3432
8468.22 25.0006 43.5698
8470.92 58.0237 48.3648
8473.62 61.3823 51.6421
8476.32 53.4731 48.869
8479.02 62.9655 55.6714
8481.71 63.2359 47.6689
8484.41 59.5294 46.8025
8487.11 65.987 51.2185
8489.81 67.0033 53.0087
8492.5 63.7032 46.4266
8495.2 62.8541 47.5337
8497.9 53.0229 44.3558
8500.59 54.1061 51.8047
8503.29 73.3708 48.5941
8505.99 47.4538 46.3138
8508.68 68.4073 49.2592
8511.38 47.0404 40.7989
8514.07 65.9731 47.8476
8516.77 66.9215 55.2415
8519.46 60.5255 46.8938
8522.16 63.8183 49.9174
8524.85 63.9906 50.025
8527.54 59.4858 47.9035
8530.24 64.3534 48.7417
8532.93 70.7773 51.9208
8535.62 65.5663 52.6433
8538.32 69.4335 49.8411
8541.01 63.1086 47.0835
8543.7 66.1968 47.4556
8546.39 67.227 51.9739
8549.08 57.4025 49.6159
8551.78 62.7297 51.453
8554.47 59.6583 47.0419
8557.16 62.4425 45.9949
8559.85 63.7871 47.1168
8562.54 64.4212 49.7315
8565.23 59.5489 45.8173
8567.92 58.6635 46.3872
8570.61 68.8007 51.693
8573.3 65.1506 46.6773
8575.99 63.9608 46.3869
8578.68 60.3558 45.7775
8581.37 62.0313 45.9704
8584.05 59.0588 48.3368
8586.74 66.627 46.8564
8589.43 69.8243 51.6828
8592.12 67.3021 51.317
8594.81 62.8368 49.578
8597.49 56.9718 45.5114
8600.18 67.5911 48.1717
8602.87 63.6797 48.344
8605.55 61.8563 45.8544
8608.24 56.1605 43.1684
8610.93 65.0805 47.306
8613.61 63.9113 45.4254
8616.3 69.9149 47.6931
8618.98 67.1972 52.7158
8621.67 58.9868 43.194
8624.35 71.4044 48.1936
8627.04 58.1488 44.5049
8629.72 64.7607 43.7085
8632.41 61.7365 44.1833
8635.09 57.8695 45.3322
8637.77 75.8278 54.3445
8640.46 67.029 51.2899
8643.14 60.19 47.7322
8645.82 65.9331 46.1767
8648.5 56.9049 41.7283
8651.19 73.0466 54.1424
8653.87 59.8408 46.2402
8656.55 64.6621 50.208
8659.23 55.0276 47.5547
8661.91 65.9453 49.7212
8664.59 51.7167 45.512
8667.27 50.1545 45.62
8669.95 57.4778 41.0779
8672.63 57.122 44.379
8675.31 52.1011 38.541
8677.99 59.9973 44.624
8680.67 57.9941 37.5202
8683.35 53.6355 41.7801
8686.03 51.6959 42.1573
8688.71 64.5427 45.1706
8691.39 71.6548 50.6683
8694.07 63.9654 48.2022
8696.74 63.8395 44.8451
8699.42 67.3512 46.286
8702.1 75.8348 53.3009
8704.78 65.4692 45.4871
8707.45 69.1023 47.2836
8710.13 65.3394 46.4529
8712.81 60.2906 44.0458
8715.48 64.94 46.2855
8718.16 59.7645 43.3981
8720.83 70.9262 51.3229
8723.51 68.2504 44.0821
8726.18 66.8083 46.739
8728.86 70.1683 49.9706
8731.53 63.1922 41.4074
8734.21 60.2125 44.3382
8736.88 65.2486 45.799
8739.56 60.7459 43.8937
8742.23 65.4585 42.8701
8744.9 73.4528 50.481
8747.58 67.542 47.3461
8750.25 64.8307 47.2774
8752.92 63.8062 45.4964
8755.59 63.6528 48.9195
8758.26 59.3297 58.4526
8760.94 71.385 46.2982
8763.61 77.754 58.0449
8766.28 86.6994 58.7039
8768.95 31.4411 57.175
8771.62 70.7484 48.2401
8774.29 67.8695 61.1298
8776.96 55.1324 45.2618
8779.63 63.0537 39.2977
8782.3 73.0404 43.6873
8784.97 56.3321 51.0734
8787.64 54.6206 50.3088
8790.31 60.8188 42.3614
8792.98 64.3932 42.1465
8795.64 45.9228 38.3385
8798.31 51.8695 33.5118
8800.98 52.2686 41.0771
8803.65 59.7221 41.8922
8806.31 63.8136 44.3279
8808.98 56.5078 44.3068
8811.65 60.0132 44.5877
8814.31 67.3964 44.3069
8816.98 59.8573 42.1892
8819.65 55.1174 48.0506
8822.31 57.5622 61.2767
8824.98 89.2352 68.0475
8827.64 100.809 64.2148
8830.31 16.5045 40.1977
8832.97 47.0326 31.4167
8835.64 55.7118 52.0329
8838.3 65.9426 34.6913
8840.96 54.4646 34.035
8843.63 53.6013 41.6033
8846.29 54.9623 43.9723
8848.95 68.5312 48.4705
8851.62 62.3451 45.9469
8854.28 67.1248 47.5931
8856.94 67.837 45.5934
8859.6 59.9368 36.1308
8862.27 53.5581 44.1465
8864.93 74.4266 54.5846
8867.59 78.0283 53.2144
8870.25 71.5031 46.3705
8872.91 63.4043 35.3229
8875.57 70.197 44.76
8878.23 64.8615 51.0805
8880.89 71.38 63.2383
8883.55 64.1028 66.272
8886.21 93.6336 55.3419
8888.87 35.9959 50.7035
8891.53 16.2668 34.7251
8894.19 52.5055 31.9976
8896.84 43.9723 44.9252
8899.5 64.8831 56.6217
8902.16 61.5595 50.533
8904.82 78.8445 48.5297
8907.47 75.9692 38.3617
8910.13 66.9836 39.356
8912.79 62.8936 56.698
8915.44 53.7588 51.4879
8918.1 85.1779 67.939
8920.76 85.4638 49.1229
8923.41 76.3062 35.8717
8926.07 61.7316 19.253
8928.72 9.33571 14.316
8931.38 62.3212 38.526
8934.03 57.0032 32.5578
8936.69 60.0955 43.6104
8939.34 51.517 39.13
8941.99 72.2835 45.8113
8944.65 67.2749 49.6856
8947.3 50.9635 32.7467
8949.95 46.0946 34.0623
8952.6 50.9986 44.1977
8955.26 47.4488 48.138
8957.91 68.2311 51.1049
8960.56 85.515 50.8223
8963.21 70.8125 32.2808
8965.86 4.51777 2.01959
8968.52 31.5872 7.05598
8971.17 47.2893 21.8581
8973.82 50.6143 26.1842
8976.47 51.7331 34.4746
8979.12 54.1368 32.0328
8981.77 54.6053 38.8241
8984.42 58.0155 37.7759
8987.06 55.0187 33.5278
8989.71 55.8327 44.9696
8992.36 56.2488 34.8973
8995.01 49.4122 27.6443
8997.66 54.184 39.8027
9000.31 63.3607 45.358
9002.95 67.9912 45.716
9005.6 39.3656 50.934
9008.25 18.9065 22.5571
9010.89 46.3683 7.50002
9013.54 60.169 23.4587
9016.19 54.5754 24.7128
9018.83 61.0617 27.1603
9021.48 56.8497 33.8606
9024.12 61.716 34.7645
9026.77 53.327 37.5463
9029.41 59.0778 41.7168
9032.06 61.6953 38.5164
9034.7 65.1746 37.7486
9037.35 65.2188 43.6724
9039.99 67.6555 47.8243
9042.63 58.3542 37.1757
9045.28 58.5604 34.0975
9047.92 63.6553 37.4033
9050.56 52.0414 40.8067
9053.2 65.0581 40.1002
9055.85 49.8581 38.3791
9058.49 60.5821 28.1314
9061.13 49.9923 22.0556
9063.77 58.0001 30.2661
9066.41 61.5879 37.0099
