wavelength spec_sum spec_optimal
3525.79 22.9465 1.41856
3528.71 16.497 -5.17445
3531.63 4.40726 4.53612
3534.55 21.3999 4.37994
3537.47 -4.48004 4.62269
3540.39 13.7334 1.04786
3543.31 3.04664 11.4166
3546.23 -6.53491 1.98516
3549.15 -1.98795 10.2372
3552.07 9.75289 8.45221
3554.99 10.069 9.94136
3557.91 2.14168 5.85357
3560.83 8.17655 5.62897
3563.75 3.71429 22.0069
3566.67 43.2018 19.6078
3569.59 21.5994 7.74863
3572.51 17.7788 5.63583
3575.43 21.5062 5.89631
3578.35 35.4983 16.9909
3581.27 23.823 12.1387
3584.19 39.8162 17.7671
3587.11 17.5601 9.97979
3590.03 6.01801 -6.64437
3592.95 8.2387 -1.27059
3595.87 14.728 -0.728432
3598.79 9.03631 5.06711
3601.71 37.9891 9.46572
3604.63 24.8621 7.12844
3607.55 33.7441 -1.84303
3610.47 22.9711 7.79098
3613.39 15.5915 7.93883
3616.3 18.4113 1.84056
3619.22 32.3451 14.6827
3622.14 16.3116 2.44412
3625.06 21.0389 0.556625
3627.98 21.2091 1.12383
3630.9 22.6954 9.9027
3633.82 19.6104 9.28535
3636.74 12.0212 12.726
3639.66 0.0072237 10.8638
3642.58 -1.82661 13.8178
3645.5 11.4644 8.09262
3648.42 0.400593 7.61128
3651.34 -12.3541 15.3153
3654.26 -36.2099 13.4888
3657.18 -11.4881 0.559089
3660.09 -20.7925 3.80995
3663.01 -9.86101 23.2676
3665.93 -6.40884 7.8642
3668.85 -11.0849 15.3445
3671.77 -1.06626 14.657
3674.69 -27.3093 7.61257
3677.61 -3.9539 1.42638
3680.53 -4.46175 14.9882
3683.45 -6.56495 0.279635
3686.37 -11.4968 11.5726
3689.29 -32.0745 16.6083
3692.2 -7.18242 16.2787
3695.12 -17.357 -1.34008
3698.04 -22.0527 7.95142
3700.96 -4.97273 10.5141
3703.88 -8.55245 8.23246
3706.8 -6.79275 14.4178
3709.72 -8.00097 10.1927
3712.64 -10.8862 2.41353
3715.56 8.99141 16.3048
3718.47 10.2191 22.9598
3721.39 6.45034 18.2015
3724.31 12.7287 17.8282
3727.23 8.99627 21.6805
3730.15 12.5143 17.0412
3733.07 13.8109 7.01678
3735.99 12.5777 18.0264
3738.91 8.62898 3.56482
3741.82 18.9588 18.0469
3744.74 21.8277 19.7165
3747.66 17.9584 13.4261
3750.58 -8.4965 10.2678
3753.5 -6.54191 4.40234
3756.42 -2.76453 6.11962
3759.33 -0.331002 14.235
3762.25 -7.70548 14.8895
3765.17 -2.57301 9.85337
3768.09 -36.9401 9.94694
3771.01 -7.58532 11.1329
3773.93 -18.2882 10.9407
3776.84 -48.3259 10.7926
3779.76 -22.2646 8.35439
3782.68 -21.2796 1.20842
3785.6 -13.6371 2.18799
3788.52 -8.87902 5.61382
3791.44 -7.39426 7.8339
3794.35 -4.61687 10.9558
3797.27 4.49492 17.2066
3800.19 -38.4145 4.33861
3803.11 -12.9645 9.81143
3806.03 -20.913 14.764
3808.94 -9.79033 14.3545
3811.86 -7.53537 4.12204
3814.78 1.20381 8.81077
3817.7 4.17328 9.75042
3820.62 12.3359 6.82781
3823.53 16.6508 6.21661
3826.45 25.178 5.72944
3829.37 24.102 4.10375
3832.29 33.1719 12.2721
3835.21 6.69124 6.38512
3838.12 18.37 6.04579
3841.04 3.11984 6.62756
3843.96 -3.24771 4.39065
3846.88 0.0597405 7.18662
3849.79 1.1154 11.8332
3852.71 1.24524 3.87421
3855.63 4.11438 10.7236
3858.55 4.96089 9.71304
3861.46 -23.8447 8.62014
3864.38 -3.96853 7.98679
3867.3 -18.677 5.78132
3870.22 -2.49647 2.83226
3873.13 -23.1554 4.04351
3876.05 0.756471 7.41433
3878.97 -0.195593 0.436054
3881.89 2.32782 2.7296
3884.8 12.9891 0.6599
3887.72 9.88166 2.94767
3890.64 -4.03148 0.67879
3893.55 -1.1528 8.75559
3896.47 -10.1773 13.1506
3899.39 -12.8907 4.67822
3902.31 -10.7774 -1.23928
3905.22 -2.13358 7.17625
3908.14 -13.4671 6.8791
3911.06 -18.0013 12.3079
3913.97 -13.709 5.0041
3916.89 -25.8925 5.95974
3919.81 -12.8157 17.5226
3922.72 7.69887 4.73635
3925.64 24.7255 3.61057
3928.56 25.0186 -0.896619
3931.47 37.494 2.07653
3934.39 37.5851 1.60051
3937.31 25.9502 1.46819
3940.23 24.7112 4.52497
3943.14 -0.188672 2.62336
3946.06 0.486804 6.33831
3948.97 -27.3547 14.0843
3951.89 -11.3544 5.25277
3954.81 -10.1581 5.46181
3957.72 -4.74981 -8.19584
3960.64 4.86038 -9.97561
3963.56 2.35541 -12.8253
3966.47 18.9153 -8.00116
3969.39 23.2964 -8.48504
3972.31 12.2128 0.531618
3975.22 1.95156 -2.54741
3978.14 -15.5429 -0.668222
3981.06 -25.7102 -4.28753
3983.97 -47.6557 2.77389
3986.89 -27.6586 6.42674
3989.8 -29.8137 8.31805
3992.72 -34.182 -3.728
3995.64 -28.0499 16.699
3998.55 -55.8164 7.88478
4001.47 -60.4962 12.4169
4004.38 -25.8731 16.3529
4007.3 -32.9396 0.109743
4010.22 -33.1664 9.18732
4013.13 -33.8317 15.0561
4016.05 -31.1124 17.7745
4018.96 -36.9722 0.283528
4021.88 -36.0256 3.03848
4024.79 -37.2669 2.55026
4027.71 -41.0903 8.48369
4030.63 -30.8897 2.87024
4033.54 -62.8391 1.51709
4036.46 -32.3844 3.48599
4039.37 -37.3935 3.52568
4042.29 -28.2587 6.58542
4045.2 -23.6287 8.40146
4048.12 -57.1113 3.52961
4051.03 -58.0591 14.0228
4053.95 -24.9483 16.8633
4056.87 -33.8773 13.5491
4059.78 -30.8556 1.98089
4062.7 -22.7552 6.65471
4065.61 -30.6273 20.3409
4068.53 -63.8101 4.51715
4071.44 -26.3537 13.2756
4074.36 -23.4374 8.49623
4077.27 -33.7812 -0.682168
4080.19 -32.8819 3.96897
4083.1 -39.517 4.47211
4086.02 -77.2666 4.07375
4088.93 -47.4295 11.538
4091.85 -47.3715 2.17259
4094.76 -37.1195 0.970918
4097.68 -27.8276 7.74103
4100.59 -25.7773 4.48868
4103.51 -31.8213 11.7513
4106.42 -38.2125 9.00949
4109.33 -40.3153 12.2859
4112.25 -85.206 2.48571
4115.16 -46.0541 7.71567
4118.08 -47.7656 9.87707
4120.99 -49.2943 17.9081
4123.91 -78.1738 8.67173
4126.82 -48.7387 4.83751
4129.74 -43.1453 12.0822
4132.65 -38.8347 18.6078
4135.56 -43.607 12.7806
4138.48 -76.1369 13.8219
4141.39 -31.7273 20
4144.31 -39.7894 10.1787
4147.22 -44.2677 10.9781
4150.14 -45.0495 10.9848
4153.05 -74.4456 15.0389
4155.96 -36.3256 18.4734
4158.88 -77.9011 20.4806
4161.79 -47.3009 22.4845
4164.71 -48.5843 14.504
4167.62 -44.0881 19.8115
4170.53 -41.8946 22.4385
4173.45 -35.826 16.9293
4176.36 -44.8385 10.6319
4179.27 -39.9545 18.5618
4182.19 -38.9572 14.4159
4185.1 -34.8842 15.2943
4188.02 -39.951 17.4954
4190.93 -39.4016 24.6903
4193.84 -35.7807 20.8651
4196.76 -36.3231 17.3017
4199.67 -36.624 23.4875
4202.58 -31.5981 17.9401
4205.5 -75.4484 13.8629
4208.41 -38.4733 14.6392
4211.32 -40.8614 23.2014
4214.24 -65.9189 17.5112
4217.15 -40.8884 21.1953
4220.06 -37.5856 17.276
4222.97 -66.4999 17.6847
4225.89 -52.8409 15.7605
4228.8 -26.3788 14.6535
4231.71 -68.5107 14.1752
4234.63 -32.7072 13.535
4237.54 -38.1076 15.5318
4240.45 -67.164 13.9236
4243.36 -39.2458 19.222
4246.28 -63.3295 19.1493
4249.19 -64.9668 20.6504
4252.1 -32.3246 17.583
4255.02 -33.3037 16.0901
4257.93 -35.3534 15.6268
4260.84 -37.2889 14.7343
4263.75 -76.9186 15.4313
4266.67 -35.6961 21.7396
4269.58 -23.7418 15.3461
4272.49 -30.1213 17.4931
4275.4 -30.8796 16.004
4278.31 -71.7075 23.1282
4281.23 -33.2912 22.0302
4284.14 -31.2384 18.3294
4287.05 -56.8509 13.5183
4289.96 -30.4474 19.5369
4292.87 -61.4146 19.8817
4295.79 -51.5827 20.4631
4298.7 -19.3917 19.9996
4301.61 -16.5629 16.8598
4304.52 -15.2259 14.84
4307.43 -11.2633 16.4383
4310.35 -21.3738 18.0716
4313.26 -56.1698 21.3861
4316.17 -38.5003 17.9107
4319.08 -44.0158 11.1986
4321.99 -73.9377 24.0379
4324.9 -42.0799 14.9261
4327.81 -44.7371 16.4829
4330.73 -80.2956 13.44
4333.64 -40.6374 15.0974
4336.55 -45.5231 17.9017
4339.46 -35.2247 19.0227
4342.37 -34.9798 19.8645
4345.28 -43.7638 14.5917
4348.19 -51.6391 9.68015
4351.1 -42.371 13.022
4354.02 -47.3793 8.99583
4356.93 -52.6692 9.76491
4359.84 -49.9601 18.324
4362.75 -50.0189 18.202
4365.66 -94.0732 14.0675
4368.57 -55.0966 8.94697
4371.48 -84.8902 13.1377
4374.39 -49.9751 17.1677
4377.3 -48.1373 19.9188
4380.21 -77.8581 13.6323
4383.12 -34.4039 14.5274
4386.03 -41.4112 10.5014
4388.94 -46.893 10.5841
4391.85 -42.5042 20.3594
4394.76 -44.361 19.6548
4397.67 -48.3844 17.3082
4400.58 -80.1144 13.8061
4403.49 -77.1038 18.0149
4406.4 -79.8447 16.5051
4409.31 -46.1318 20.295
4412.22 -85.6838 24.5086
4415.13 -86.2994 27.1591
4418.04 -56.6911 17.7057
4420.95 -87.5694 22.4615
4423.86 -53.6814 25.8336
4426.77 -54.3999 20.9216
4429.68 -52.2207 27.8074
4432.59 -83.8023 30.4413
4435.5 -56.2063 29.4007
4438.41 -57.3342 27.0634
4441.32 -59.1349 23.7788
4444.23 -97.9231 29.5786
4447.14 -54.2954 23.0067
4450.05 -56.4319 26.0751
4452.96 -87.4096 20.6454
4455.87 -51.7698 24.2692
4458.78 -53.0129 17.972
4461.69 -89.5269 21.2776
4464.6 -57.1982 26.4644
4467.5 -59.1758 17.7143
4470.41 -60.7535 17.5652
4473.32 -100.237 22.8343
4476.23 -101.971 18.2814
4479.14 -63.5606 21.7486
4482.05 -59.6327 18.1635
4484.96 -62.8343 14.373
4487.87 -64.7373 12.5104
4490.77 -64.7057 15.1325
4493.68 -60.0918 19.8396
4496.59 -67.622 14.7453
4499.5 -65.2615 24.4306
4502.41 -68.5499 19.3858
4505.32 -109.559 14.8606
4508.22 -67.5722 15.9274
4511.13 -69.6319 19.9873
4514.04 -67.1967 18.9039
4516.95 -67.4395 23.1495
4519.86 -69.0735 19.7567
4522.76 -105.072 14.7283
4525.67 -58.4137 18.4959
4528.58 -95.9651 19.2649
4531.49 -60.3419 15.6622
4534.4 -58.6766 15.1901
4537.3 -59.1832 14.7284
4540.21 -61.9691 21.7255
4543.12 -66.5693 20.4816
4546.03 -98.3061 18.1642
4548.93 -64.6905 25.9457
4551.84 -56.9989 21.7054
4554.75 -64.5646 20.6128
4557.66 -61.7048 24.7394
4560.56 -66.8327 22.8747
4563.47 -105.028 16.8393
4566.38 -102.95 14.0586
4569.28 -61.9206 20.9635
4572.19 -63.3658 23.3353
4575.1 -66.5176 19.2672
4578 -67.5892 16.3573
4580.91 -63.2043 18.0198
4583.82 -66.43 23.9398
4586.73 -101.868 18.6187
4589.63 -107.4 30.6443
4592.54 -61.3392 28.2899
4595.44 -60.4765 21.4733
4598.35 -67.9393 20.8854
4601.26 -60.7879 20.9374
4604.16 -59.612 22.2984
4607.07 -67.6577 22.6505
4609.98 -72.7698 23.2199
4612.88 -65.3812 24.7397
4615.79 -66.4532 19.8638
4618.69 -65.9997 19.6949
4621.6 -66.8067 18.7095
4624.51 -105.862 22.3241
4627.41 -70.2929 23.9533
4630.32 -65.1718 19.3458
4633.22 -68.2022 18.6201
4636.13 -108.27 12.6677
4639.04 -63.6765 17.7341
4641.94 -102.764 17.0486
4644.85 -67.2256 19.8053
4647.75 -62.1573 18.4001
4650.66 -100.736 20.1259
4653.56 -59.0039 25.3267
4656.47 -64.9985 25.2269
4659.37 -65.9528 20.2827
4662.28 -100.226 21.8739
4665.18 -66.9033 20.102
4668.09 -62.663 16.7556
4670.99 -62.8469 16.4847
4673.9 -63.1835 20.746
4676.8 -65.8157 18.4031
4679.71 -65.0692 20.4097
4682.61 -64.1084 21.0272
4685.52 -99.2912 21.1741
4688.42 -66.1107 19.3259
4691.33 -68.6489 21.5275
4694.23 -69.1951 20.2193
4697.13 -69.9285 15.0301
4700.04 -106.517 15.4834
4702.94 -65.276 16.824
4705.85 -64.2526 14.7436
4708.75 -55.8885 19.2081
4711.66 -65.7278 19.7118
4714.56 -73.7422 18.7699
4717.46 -70.1203 14.4732
4720.37 -70.217 14.3736
4723.27 -71.2189 13.6028
4726.18 -66.6398 16.7587
4729.08 -70.6893 17.8083
4731.98 -67.1147 18.7762
4734.89 -68.7218 16.8055
4737.79 -65.1149 13.7533
4740.69 -71.6139 18.7741
4743.6 -106.486 14.9639
4746.5 -68.6902 16.4961
4749.4 -67.2552 20.2039
4752.31 -106.107 19.8135
4755.21 -106.143 15.4399
4758.11 -103.488 10.9804
4761.01 -67.8663 9.30985
4763.92 -103.485 7.76443
4766.82 -66.4021 16.2798
4769.72 -101.977 17.6256
4772.63 -66.3567 22.1224
4775.53 -68.9662 16.2473
4778.43 -68.065 23.177
4781.33 -73.6157 14.4537
4784.24 -103.668 13.2897
4787.14 -64.7137 16.4535
4790.04 -66.2565 9.19337
4792.94 -70.7713 11.2283
4795.85 -68.4952 14.1142
4798.75 -101.515 13.9465
4801.65 -67.9368 16.3289
4804.55 -63.7156 15.5623
4807.45 -65.2956 12.2872
4810.35 -65.7971 14.0762
4813.26 -70.2807 14.4125
4816.16 -69.5785 10.135
4819.06 -69.5529 13.7566
4821.96 -68.902 16.4902
4824.86 -105.183 16.1308
4827.76 -68.1297 20.5675
4830.67 -67.6675 12.4669
4833.57 -71.2848 14.2214
4836.47 -69.044 11.617
4839.37 -71.2509 13.8707
4842.27 -97.6874 18.8742
4845.17 -97.4068 20.6436
4848.07 -92.7717 14.0169
4850.97 -95.203 20.1535
4853.87 -90.0586 16.8742
4856.77 -80.6686 15.4298
4859.68 -71.8973 16.112
4862.58 -106.088 13.8474
4865.48 -73.3776 15.1844
4868.38 -76.5658 18.31
4871.28 -116.324 15.2397
4874.18 -86.0485 15.5964
4877.08 -90.3544 16.0816
4879.98 -92.0576 11.7919
4882.88 -94.5164 13.1174
4885.78 -94.6259 11.138
4888.68 -91.374 16.3459
4891.58 -89.7903 17.7203
4894.48 -97.1692 20.5919
4897.38 -97.4855 14.4121
4900.28 -140.206 18.9584
4903.18 -99.4504 15.9483
4906.08 -103.072 12.6548
4908.98 -142.725 16.8467
4911.87 -140.84 14.429
4914.77 -96.3944 16.4555
4917.67 -94.902 14.0434
4920.57 -87.7163 14.0273
4923.47 -85.1103 15.27
4926.37 -133.02 16.8732
4929.27 -95.9373 13.3437
4932.17 -135.787 15.5583
4935.07 -135.257 11.2388
4937.97 -86.8334 13.2423
4940.86 -87.7824 14.1023
4943.76 -95.7475 18.6214
4946.66 -138.284 13.3242
4949.56 -95.1015 14.6818
4952.46 -133.789 12.054
4955.36 -96.3495 10.4329
4958.25 -89.7674 11.1927
4961.15 -90.0379 10.3432
4964.05 -91.0777 16.336
4966.95 -94.6813 14.8076
4969.85 -94.8412 14.9413
4972.74 -96.6967 13.0886
4975.64 -136.781 13.6974
4978.54 -133.122 15.8292
4981.44 -91.0748 9.62739
4984.33 -85.8876 13.0894
4987.23 -87.4138 8.41607
4990.13 -87.4577 13.8086
4993.03 -92.0801 9.99464
4995.92 -90.005 15.2301
4998.82 -92.5359 15.1689
5001.72 -91.6891 13.5419
5004.61 -86.8255 13.6004
5007.51 -89.6909 14.2466
5010.41 -125.094 10.9052
5013.3 -85.9627 13.5838
5016.2 -85.2309 8.3475
5019.1 -84.5509 11.6429
5021.99 -128.038 13.1612
5024.89 -86.0362 19.1199
5027.79 -90.7804 15.5564
5030.68 -91.6312 13.0436
5033.58 -88.7154 10.5985
5036.48 -103.851 13.3801
5039.37 -110.935 12.4099
5042.27 -93.5018 10.6603
5045.16 -90.4166 8.87433
5048.06 -89.1721 12.4443
5050.96 -91.0858 8.82712
5053.85 -94.1048 12.4956
5056.75 -94.0649 15.0358
5059.64 -138.76 13.3489
5062.54 -94.261 13.9015
5065.43 -97.0721 12.4905
5068.33 -91.3185 12.5034
5071.22 -92.6056 12.0354
5074.12 -94.8305 11.9337
5077.01 -130.945 11.7635
5079.91 -91.1465 10.725
5082.8 -127.958 10.8704
5085.7 -125.898 12.4872
5088.59 -88.3071 11.638
5091.49 -92.098 13.97
5094.38 -94.7372 13.898
5097.28 -94.4966 14.4407
5100.17 -89.5785 14.7893
5103.06 -89.9881 9.57461
5105.96 -84.0809 11.5508
5108.85 -92.5431 13.0368
5111.75 -88.227 16.2246
5114.64 -91.3754 14.5093
5117.53 -133.786 13.4525
5120.43 -97.1576 16.0881
5123.32 -91.6149 11.3482
5126.22 -93.3629 12.3163
5129.11 -83.3075 15.1752
5132 -128.621 11.9337
5134.9 -90.39 9.00991
5137.79 -88.2898 12.3351
5140.68 -85.2341 11.4498
5143.58 -86.6304 12.8004
5146.47 -89.596 13.0631
5149.36 -85.6713 14.9838
5152.25 -87.566 14.103
5155.15 -125.868 12.0686
5158.04 -91.8623 16.3306
5160.93 -94.2755 15.3263
5163.83 -91.1608 13.8192
5166.72 -113.807 15.365
5169.61 -108.441 13.1982
5172.5 -69.7101 12.8587
5175.39 -72.6217 14.9348
5178.29 -80.3225 15.0829
5181.18 -113.597 12.5575
5184.07 -72.8895 12.9206
5186.96 -108.933 11.1354
5189.85 -114.616 8.92112
5192.75 -85.6307 13.7229
5195.64 -83.3269 15.1678
5198.53 -88.0757 14.8467
5201.42 -91.8565 16.0475
5204.31 -82.874 17.8793
5207.2 -122.454 14.5261
5210.09 -88.6243 16.0097
5212.99 -91.3772 13.9788
5215.88 -132.76 15.8384
5218.77 -90.3498 14.4574
5221.66 -98.1875 14.487
5224.55 -96.593 15.3652
5227.44 -93.982 15.3583
5230.33 -89.1991 9.07627
5233.22 -131.271 9.90962
5236.11 -133.92 11.3255
5239 -95.8368 13.4389
5241.89 -137.754 13.175
5244.78 -98.0773 16.7941
5247.67 -97.1247 13.3286
5250.56 -98.2151 14.7514
5253.45 -134.63 13.4197
5256.34 -90.2698 14.7083
5259.23 -96.2529 14.8023
5262.12 -95.8681 10.4553
5265.01 -87.9245 14.8413
5267.9 -84.82 16.8997
5270.79 -86.0532 12.7874
5273.68 -83.2893 18.4811
5276.57 -93.3287 14.9424
5279.46 -92.5424 18.0044
5282.35 -90.7667 13.6086
5285.23 -91.7207 16.8896
5288.12 -99.2348 16.4462
5291.01 -98.4829 14.7594
5293.9 -140.65 18.496
5296.79 -141.294 19.927
5299.68 -139.962 15.4896
5302.57 -98.0355 16.1675
5305.45 -98.7138 11.5091
5308.34 -100.687 10.4346
5311.23 -103.51 10.2882
5314.12 -101.84 -1.29344
5317.01 -101.743 -6.63261
5319.89 -96.9081 -6.29466
5322.78 -97.7697 1.4206
5325.67 -91.6165 10.1337
5328.56 -94.5227 -4.05419
5331.45 -91.9152 -10.5535
5334.33 -93.6251 -8.83217
5337.22 -96.6516 -13.4198
5340.11 -92.0991 -6.91615
5342.99 -131.063 -5.84112
5345.88 -135.309 -8.33287
5348.77 -93.664 -5.70794
5351.65 -96.1844 -7.57554
5354.54 -101.078 -10.0443
5357.43 -102.875 -10.188
5360.31 -102.651 -3.96495
5363.2 -142.651 9.80339
5366.09 -101.069 22.3318
5368.97 -93.8252 15.419
5371.86 -93.0613 15.5106
5374.75 -93.8856 16.6029
5377.63 -92.9646 17.2803
5380.52 -95.2533 17.2183
5383.4 -102.271 11.9252
5386.29 -101.385 14.6452
5389.17 -97.2569 18.1046
5392.06 -135.802 11.9745
5394.95 -95.4415 9.31886
5397.83 -93.8416 13.6523
5400.72 -91.2116 11.7305
5403.6 -132.04 11.9229
5406.49 -91.803 11.5172
5409.37 -122.519 14.3793
5412.26 -89.7949 15.5959
5415.14 -92.6524 16.2308
5418.03 -96.7873 11.3432
5420.91 -93.0749 15.8009
5423.79 -91.9144 15.1501
5426.68 -94.994 15.0911
5429.56 -138.4 13.4097
5432.45 -94.8511 15.5221
5435.33 -90.8654 11.7116
5438.22 -96.5212 16.1207
5441.1 -101.516 13.7372
5443.98 -95.3296 8.47434
5446.87 -92.0777 10.5307
5449.75 -98.3303 12.1674
5452.63 -94.8542 9.04968
5455.52 -94.8104 19.8848
5458.4 -132.395 12.2516
5461.28 -100.054 13.9153
5464.17 -94.0773 9.61275
5467.05 -92.4239 18.3829
5469.93 -141.196 14.2202
5472.82 -96.5762 14.7585
5475.7 -96.185 15.5178
5478.58 -89.8144 17.2532
5481.46 -95.2587 16.6753
5484.35 -98.4102 14.4025
5487.23 -95.7593 12.3308
5490.11 -98.6733 10.7036
5492.99 -94.0547 14.0117
5495.87 -96.9769 12.4499
5498.76 -98.7639 17.9487
5501.64 -97.1769 17.1019
5504.52 -98.7202 11.0385
5507.4 -92.276 9.943
5510.28 -135.726 13.1015
5513.17 -133.684 16.8345
5516.05 -141.374 16.123
5518.93 -95.6216 12.7821
5521.81 -99.0088 12.8902
5524.69 -98.8152 16.4798
5527.57 -133.376 15.8236
5530.45 -96.6031 12.5082
5533.33 -138.171 16.3069
5536.21 -95.8251 15.6382
5539.09 -96.3561 15.2428
5541.97 -96.6221 13.7333
5544.85 -94.3183 18.6156
5547.73 -95.3181 12.9173
5550.61 -94.2394 12.5089
5553.49 -95.4743 13.7965
5556.37 -137.346 14.4374
5559.25 -96.5627 13.1711
5562.13 -95.0648 17.6057
5565.01 -95.8884 12.1436
5567.89 -93.6822 15.226
5570.77 -92.2025 27.8529
5573.65 -92.3466 48.5902
5576.53 -93.3685 71.6425
5579.41 -91.8926 53.4991
5582.29 -141.073 8.67718
5585.17 -93.0513 -11.5594
5588.05 -88.122 -20.1832
5590.93 -132.608 -16.7661
5593.8 -127.868 -3.27488
5596.68 -91.7718 -1.57171
5599.56 -129.786 -0.282762
5602.44 -91.4793 1.42737
5605.32 -87.451 7.38294
5608.2 -94.9796 7.59696
5611.07 -94.8408 13.2614
5613.95 -93.4042 12.1863
5616.83 -91.1404 13.8643
5619.71 -91.8668 9.98104
5622.58 -93.3528 14.4198
5625.46 -93.2992 15.8765
5628.34 -96.093 14.9908
5631.22 -97.0689 20.5989
5634.09 -95.498 15.7093
5636.97 -92.0707 18.0042
5639.85 -131.815 19.463
5642.72 -95.3573 13.6451
5645.6 -94.617 18.4853
5648.48 -140.328 17.9451
5651.35 -94.6466 15.7385
5654.23 -92.2079 14.6865
5657.11 -131.054 21.871
5659.98 -87.0943 23.4502
5662.86 -89.1156 19.6009
5665.73 -92.4782 15.9375
5668.61 -89.8341 18.1253
5671.49 -92.9471 18.4839
5674.36 -93.3115 19.8833
5677.24 -94.2297 16.9086
5680.11 -93.0074 18.6379
5682.99 -93.939 15.5001
5685.86 -95.4148 18.599
5688.74 -90.7658 18.1711
5691.61 -90.2779 15.2899
5694.49 -93.0196 14.8269
5697.36 -93.1593 19.9378
5700.24 -91.9514 16.3276
5703.11 -93.2941 16.998
5705.99 -90.6827 16.4124
5708.86 -85.1408 15.0128
5711.74 -86.3182 15.6715
5714.61 -88.6211 18.4459
5717.48 -88.494 18.5349
5720.36 -92.7526 21.3672
5723.23 -92.411 20.8853
5726.1 -132.238 16.1029
5728.98 -127.651 20.7227
5731.85 -92.049 16.4585
5734.73 -90.8624 16.9418
5737.6 -134.678 14.3409
5740.47 -130.036 20.7985
5743.34 -91.4035 21.1334
5746.22 -93.8436 13.9892
5749.09 -94.2588 17.7776
5751.96 -91.4591 19.9914
5754.84 -130.987 19.5188
5757.71 -91.2144 18.3907
5760.58 -127.741 16.1948
5763.45 -87.6924 16.5105
5766.32 -88.6694 20.5744
5769.2 -90.7263 22.0012
5772.07 -91.4983 21.9329
5774.94 -89.7708 16.1599
5777.81 -90.2511 16.2638
5780.68 -90.5097 16.8763
5783.56 -124.145 21.3337
5786.43 -89.4142 19.3967
5789.3 -91.5251 20.3664
5792.17 -125.515 20.8921
5795.04 -88.8835 17.8926
5797.91 -91.469 19.7716
5800.78 -91.9756 20.9535
5803.65 -93.4257 18.0917
5806.52 -88.0042 18.6489
5809.39 -88.1058 18.1497
5812.26 -128.2 19.9987
5815.13 -92.4647 18.9133
5818 -94.6398 16.9288
5820.87 -92.4348 16.8536
5823.74 -127.346 21.2371
5826.61 -131.454 19.6611
5829.48 -91.0512 17.3911
5832.35 -92.4773 22.6037
5835.22 -91.9845 18.8072
5838.09 -130.45 14.6985
5840.96 -88.9183 18.3901
5843.83 -93.2045 21.8069
5846.7 -93.7635 18.3388
5849.57 -92.0681 19.0882
5852.44 -92.5035 20.9916
5855.3 -123.788 19.2122
5858.17 -84.5311 21.2787
5861.04 -130.359 20.3914
5863.91 -87.1697 24.3239
5866.78 -90.7097 22.2054
5869.65 -91.7413 22.4402
5872.51 -124.929 20.9479
5875.38 -88.2804 18.2471
5878.25 -89.5954 19.6445
5881.12 -89.9089 21.6877
5883.98 -85.4358 31.6669
5886.85 -84.818 39.0262
5889.72 -119.003 50.9696
5892.59 -79.6769 44.2152
5895.45 -96.9423 35.1131
5898.32 -96.6604 22.5532
5901.19 -105.798 7.05704
5904.05 -100.428 4.82893
5906.92 -108.641 1.61065
5909.79 -109.793 2.8057
5912.65 -108.929 3.56799
5915.52 -109.184 8.1396
5918.38 -108.126 5.90943
5921.25 -107.447 12.3851
5924.12 -109.639 15.0822
5926.98 -112.862 18.3829
5929.85 -111.065 21.8915
5932.71 -108.166 24.1511
5935.58 -113.07 19.7231
5938.44 -111.554 14.6541
5941.31 -108.488 15.6179
5944.17 -108.452 22.1646
5947.04 -106.46 20.5952
5949.9 -108.824 19.0292
5952.77 -110.737 19.36
5955.63 -110.649 22.4774
5958.5 -112.153 17.1997
5961.36 -108.203 17.4683
5964.22 -109.175 14.9569
5967.09 -108.025 19.381
5969.95 -109.652 19.528
5972.82 -110.026 26.2216
5975.68 -108.986 21.5775
5978.54 -107.253 18.8102
5981.41 -111.675 16.0381
5984.27 -108.008 15.5368
5987.13 -105.343 20.7191
5990 -107.093 19.3886
5992.86 -108.32 21.9511
5995.72 -105.831 18.1941
5998.58 -107.223 17.5068
6001.45 -108.869 18.1836
6004.31 -107.377 21.4502
6007.17 -106.708 16.3687
6010.03 -103.858 20.4042
6012.89 -107.826 18.406
6015.76 -106.88 17.9411
6018.62 -103.044 21.3634
6021.48 -104.008 18.4685
6024.34 -101.248 21.9095
6027.2 -101.005 19.8927
6030.06 -107.157 20.1101
6032.93 -102.266 24.146
6035.79 -110.359 20.6824
6038.65 -109.101 20.1308
6041.51 -106.218 19.9468
6044.37 -110.59 17.7352
6047.23 -108.067 20.4321
6050.09 -109.747 19.2752
6052.95 -108.809 21.0714
6055.81 -100.672 18.1425
6058.67 -103.287 21.7901
6061.53 -108.395 22.2961
6064.39 -105.573 21.1953
6067.25 -103.539 20.8434
6070.11 -107.687 22.325
6072.97 -107.153 16.9903
6075.83 -108.451 21.0069
6078.69 -113.911 16.4129
6081.55 -90.6308 24.3152
6084.4 -105.304 25.2394
6087.26 -108.028 21.4068
6090.12 -104.644 22.4903
6092.98 -104.377 22.3258
6095.84 -104.965 23.9215
6098.7 -104.683 21.4006
6101.55 -105.216 25.2947
6104.41 -100.083 21.9417
6107.27 -105.289 24.0363
6110.13 -102.498 25.7747
6112.99 -105.997 21.6019
6115.84 -104.847 19.9455
6118.7 -104.329 23.9477
6121.56 -104.701 26.9579
6124.42 -104.05 23.3893
6127.27 -100.783 19.0759
6130.13 -101.323 19.8552
6132.99 -100.464 21.771
6135.84 -100.221 21.0246
6138.7 -103.287 27.9817
6141.55 -101.678 25.895
6144.41 -100.634 25.0451
6147.27 -102.776 25.2057
6150.12 -102.038 25.5964
6152.98 -101.962 19.9582
6155.83 -102.999 25.1072
6158.69 -99.0978 18.0743
6161.55 -96.1324 19.3908
6164.4 -96.3326 26.7063
6167.26 -97.0069 23.9101
6170.11 -95.1383 27.5521
6172.97 -94.4559 24.5092
6175.82 -99.2754 26.3644
6178.67 -100.913 24.0963
6181.53 -102.343 21.06
6184.38 -98.4972 23.2241
6187.24 -99.378 22.3465
6190.09 -100.566 19.8066
6192.95 -98.5363 18.2403
6195.8 -100.097 24.9872
6198.65 -99.6623 23.6404
6201.51 -104.374 24.989
6204.36 -100.756 24.8529
6207.21 -106.458 26.4071
6210.07 -102.091 21.1377
6212.92 -98.5128 28.2663
6215.77 -102.051 24.9779
6218.63 -102.507 20.6926
6221.48 -99.7594 26.4204
6224.33 -102.786 22.4591
6227.18 -98.8354 26.59
6230.03 -99.56 27.956
6232.89 -95.8429 33.7449
6235.74 -102.059 35.9113
6238.59 -100.808 31.5797
6241.44 -103.638 27.1657
6244.29 -101.099 23.3978
6247.15 -100.588 20.5738
6250 -98.9444 19.7019
6252.85 -97.7149 22.4591
6255.7 -93.7459 24.4652
6258.55 -98.7695 21.2606
6261.4 -98.4526 27.4583
6264.25 -101.027 25.8126
6267.1 -98.9602 21.6921
6269.95 -97.6261 24.9628
6272.8 -101.911 24.8321
6275.65 -96.5826 20.7624
6278.5 -98.4438 18.2641
6281.35 -97.465 23.7225
6284.2 -97.2823 27.1934
6287.05 -100.979 27.8898
6289.9 -98.3314 23.7497
6292.75 -98.7827 56.5083
6295.6 -95.4848 95.5215
6298.45 -93.3041 140.44
6301.3 -86.776 119.216
6304.14 -97.1103 56.4904
6306.99 -94.3229 1.1583
6309.84 -93.5232 -23.6272
6312.69 -94.0147 -42.1818
6315.54 -98.6567 -47.9327
6318.39 -95.8054 -35.5687
6321.23 -94.9334 -14.4598
6324.08 -96.1942 -2.81535
6326.93 -100.784 12.2443
6329.78 -98.903 16.5464
6332.62 -96.778 17.7365
6335.47 -103.512 16.8219
6338.32 -99.2387 20.0079
6341.16 -101.046 31.6566
6344.01 -99.0142 24.2544
6346.86 -97.166 27.8103
6349.7 -98.6302 28.6356
6352.55 -99.728 35.5001
6355.4 -100.548 31.7409
6358.24 -96.2553 52.5121
6361.09 -94.1403 59.5905
6363.93 -94.5866 58.4078
6366.78 -98.7196 32.5494
6369.63 -99.9221 19.4594
6372.47 -97.4929 10.8936
6375.32 -100.491 11.3301
6378.16 -99.773 12.3116
6381.01 -102.239 12.8332
6383.85 -98.9888 12.8386
6386.69 -99.9674 21.4932
6389.54 -100.474 24.6236
6392.38 -98.0414 25.3226
6395.23 -98.1128 25.8887
6398.07 -100.232 29.1052
6400.92 -98.6215 34.7689
6403.76 -99.8219 32.7918
6406.6 -97.6442 28.233
6409.45 -95.991 27.2046
6412.29 -95.0503 28.63
6415.13 -96.5717 30.6327
6417.98 -97.9765 27.7402
6420.82 -96.3886 28.4638
6423.66 -97.6911 35.5415
6426.5 -96.9397 28.9578
6429.35 -99.2871 28.8604
6432.19 -97.2762 32.7426
6435.03 -94.1464 32.4503
6437.87 -99.1739 35.7196
6440.72 -94.5899 33.3231
6443.56 -98.3325 33.9276
6446.4 -98.0083 38.1255
6449.24 -100.877 30.4758
6452.08 -92.7443 30.6951
6454.92 -95.6822 33.8776
6457.76 -93.0168 37.4842
6460.6 -91.0987 33.0247
6463.44 -93.124 42.8764
6466.29 -93.5835 41.9884
6469.13 -96.4459 38.7891
6471.97 -94.1472 32.8589
6474.81 -94.832 32.0379
6477.65 -97.5489 28.785
6480.49 -95.5593 28.6107
6483.33 -95.9247 27.4712
6486.17 -96.9731 28.4561
6489 -96.8468 31.0097
6491.84 -95.1552 32.9612
6494.68 -88.7711 46.2326
6497.52 -88.8766 43.5774
6500.36 -91.2534 46.2375
6503.2 -92.3636 38.6244
6506.04 -92.4734 36.3303
6508.88 -93.6866 30.6416
6511.71 -94.7254 21.7304
6514.55 -98.8909 23.5933
6517.39 -93.8469 32.2024
6520.23 -94.7354 36.8785
6523.07 -95.6632 37.2551
6525.9 -94.1045 36.7107
6528.74 -92.904 45.1373
6531.58 -98.7785 38.1604
6534.41 -93.7723 38.3247
6537.25 -91.2746 37.81
6540.09 -93.1617 36.2555
6542.92 -94.7228 36.7036
6545.76 -97.91 39.1718
6548.6 -89.2394 38.9682
6551.43 -88.1624 40.2463
6554.27 -82.6673 42.5233
6557.11 -75.1543 38.2586
6559.94 -63.3213 34.4995
6562.78 -52.3631 36.3569
6565.61 -57.4008 33.6432
6568.45 -64.4836 32.7583
6571.28 -74.4639 39.3456
6574.12 -73.4165 37.6792
6576.95 -84.1588 40.6386
6579.79 -86.2637 36.8732
6582.62 -89.0668 31.2082
6585.46 -91.4765 34.9267
6588.29 -90.275 36.8114
6591.12 -88.5092 35.6827
6593.96 -96.7783 38.7861
6596.79 -91.623 47.2152
6599.62 -92.4516 41.5596
6602.46 -91.0996 39.4059
6605.29 -91.7114 40.5383
6608.12 -92.684 43.0493
6610.96 -92.6358 36.47
6613.79 -91.352 41.0999
6616.62 -91.3184 38.7733
6619.45 -94.8333 35.7694
6622.29 -91.3483 44.832
6625.12 -91.4297 43.3494
6627.95 -94.7244 47.859
6630.78 -91.7444 47.1537
6633.61 -89.3123 47.7472
6636.45 -88.1614 46.1789
6639.28 -90.2862 43.5922
6642.11 -90.0222 38.8711
6644.94 -89.6955 43.0053
6647.77 -92.1836 41.2087
6650.6 -92.0978 48.036
6653.43 -93.8382 45.8729
6656.26 -90.0061 48.1528
6659.09 -90.632 49.8973
6661.92 -90.1146 48.0716
6664.75 -88.9837 44.5664
6667.58 -88.1586 53.0642
6670.41 -87.8396 51.3705
6673.24 -88.9104 57.306
6676.07 -89.7092 54.7026
6678.9 -87.9234 55.7655
6681.73 -91.094 57.0634
6684.56 -90.631 51.2562
6687.39 -85.7366 47.8873
6690.22 -90.0752 51.5646
6693.04 -86.9069 54.7709
6695.87 -89.5947 48.6141
6698.7 -87.7545 53.15
6701.53 -91.1731 51.0994
6704.36 -89.6059 51.8723
6707.18 -91.2269 55.3322
6710.01 -88.3912 57.5406
6712.84 -89.3292 53.5935
6715.67 -86.3607 54.202
6718.49 -86.6752 58.3264
6721.32 -89.3709 47.8592
6724.15 -85.7636 53.3635
6726.97 -91.0861 49.2419
6729.8 -88.8454 51.8913
6732.62 -90.3638 55.5298
6735.45 -88.7659 55.473
6738.28 -90.2066 55.8428
6741.1 -84.9429 57.4706
6743.93 -86.4086 55.8491
6746.75 -87.0778 55.6664
6749.58 -85.8034 59.7805
6752.4 -82.7152 56.4118
6755.23 -84.4994 58.9289
6758.05 -83.4252 55.3284
6760.88 -87.9224 59.8383
6763.7 -86.1695 57.3998
6766.53 -85.7801 55.158
6769.35 -82.4991 57.5531
6772.17 -82.7985 64.8425
6775 -84.2913 63.5857
6777.82 -88.8554 61.1746
6780.64 -85.0917 57.6895
6783.47 -85.0829 55.1277
6786.29 -84.8592 60.4305
6789.11 -84.6728 65.4224
6791.94 -86.688 59.5916
6794.76 -83.8816 60.8636
6797.58 -81.4225 60.0666
6800.4 -83.4417 62.2279
6803.23 -87.2579 61.3975
6806.05 -82.6307 60.6761
6808.87 -85.6415 66.677
6811.69 -79.6586 63.9434
6814.51 -81.2365 61.6817
6817.33 -83.2064 61.4869
6820.16 -85.8003 61.6471
6822.98 -80.7622 67.4273
6825.8 -81.0506 69.5482
6828.62 -81.441 77.5592
6831.44 -81.2592 72.0305
6834.26 -80.5692 57.1235
6837.08 -78.6731 53.4385
6839.9 -77.7352 63.0819
6842.72 -79.7057 50.0619
6845.54 -76.5514 59.2359
6848.36 -80.6629 59.4677
6851.18 -97.2932 61.0171
6854 -96.1255 63.7222
6856.82 -101.644 73.2217
6859.63 -96.5116 80.0475
6862.45 -94.4602 74.1244
6865.27 -88.7423 58.0608
6868.09 -75.4064 42.3214
6870.91 -75.0089 43.8948
6873.73 -75.1653 51.866
6876.54 -75.8871 55.6523
6879.36 -81.4633 60.0756
6882.18 -79.9254 58.7766
6885 -82.2707 63.3128
6887.81 -80.5996 61.714
6890.63 -81.6375 61.408
6893.45 -82.0162 58.6489
6896.26 -78.7516 67.8344
6899.08 -83.8564 69.5033
6901.9 -85.4968 67.1607
6904.71 -88.588 66.3436
6907.53 -88.637 72.6928
6910.34 -85.1202 68.6137
6913.16 -85.8657 64.1699
6915.98 -90.3532 71.4574
6918.79 -87.7083 77.0684
6921.61 -92.8132 79.3322
6924.42 -90.5434 67.0105
6927.24 -92.5411 73.879
6930.05 -93.7564 80.5989
6932.86 -92.3715 78.2631
6935.68 -93.8582 85.1751
6938.49 -90.9591 81.7209
6941.31 -93.5473 87.3399
6944.12 -97.3486 84.1269
6946.93 -94.5653 76.5502
6949.75 -93.9589 83.1204
6952.56 -98.5364 81.0704
6955.37 -92.967 89.7327
6958.19 -90.8574 88.7274
6961 -96.9755 81.3347
6963.81 -97.7639 80.7993
6966.62 -92.908 77.9124
6969.44 -93.8948 74.2762
6972.25 -99.7465 76.2003
6975.06 -95.2931 73.5549
6977.87 -93.0862 81.9798
6980.68 -95.9896 73.1809
6983.5 -96.2441 71.7482
6986.31 -97.0357 80.54
6989.12 -98.0305 82.2947
6991.93 -97.8628 81.2553
6994.74 -92.4682 88.4173
6997.55 -96.7469 79.6915
7000.36 -93.4072 83.2626
7003.17 -89.9875 80.896
7005.98 -93.2173 83.2558
7008.79 -91.9419 89.2441
7011.6 -93.0058 81.4702
7014.41 -96.5136 84.6883
7017.22 -90.3313 84.0764
7020.03 -95.0259 93.0516
7022.84 -89.1061 86.7447
7025.64 -92.9032 84.0639
7028.45 -90.8509 90.2825
7031.26 -92.7197 85.4023
7034.07 -93.5186 96.292
7036.88 -91.9089 89.3051
7039.69 -93.8055 94.0254
7042.49 -97.0261 91.2577
7045.3 -92.2207 87.637
7048.11 -90.4348 94.7782
7050.92 -89.8667 94.2616
7053.72 -89.4332 88.8791
7056.53 -93.7318 88.8653
7059.34 -89.1426 90.2817
7062.14 -95.6522 101.341
7064.95 -90.9283 101.279
7067.75 -92.978 108.287
7070.56 -90.4975 108.734
7073.37 -91.279 112.77
7076.17 -92.0025 108.264
7078.98 -92.7275 113.995
7081.78 -93.6642 110.872
7084.59 -93.2086 111.216
7087.39 -93.5528 120.126
7090.2 -90.1443 117.319
7093 -91.8946 111.093
7095.81 -90.2352 111.992
7098.61 -92.1717 120.786
7101.41 -92.6099 115.312
7104.22 -95.0379 124.329
7107.02 -91.2443 120.882
7109.82 -92.9317 119.107
7112.63 -90.8178 125.92
7115.43 -91.5179 122.072
7118.23 -89.8333 130.599
7121.04 -90.9536 128.261
7123.84 -89.7789 117.721
7126.64 -91.956 127.217
7129.44 -89.4453 116.447
7132.24 -90.5597 126.55
7135.05 -86.9539 128.155
7137.85 -93.8206 134.998
7140.65 -87.2833 122.372
7143.45 -89.7568 130.295
7146.25 -86.2636 125.236
7149.05 -85.5225 129.837
7151.85 -91.3114 131.78
7154.65 -90.0428 129.727
7157.45 -91.4936 131.4
7160.25 -89.0474 133.413
7163.05 -87.0122 135.882
7165.85 -83.2602 129.232
7168.65 -88.6788 129.24
7171.45 -86.9594 125.315
7174.25 -87.7644 124.05
7177.05 -85.8409 123.343
7179.85 -86.0115 130.706
7182.65 -82.0478 125.091
7185.45 -77.1748 116.617
7188.25 -77.1731 134.308
7191.04 -79.7886 124.574
7193.84 -80.227 135.778
7196.64 -80.822 135.214
7199.44 -77.9394 132.678
7202.23 -80.8448 138.479
7205.03 -76.1114 136.091
7207.83 -79.8229 142.226
7210.63 -78.6791 138.671
7213.42 -82.1128 146.18
7216.22 -87.2198 133.768
7219.01 -82.951 139.176
7221.81 -84.0577 140.431
7224.61 -82.882 142.638
7227.4 -84.9441 128.254
7230.2 -83.216 125.823
7232.99 -77.2986 114.032
7235.79 -82.171 121.511
7238.58 -76.4083 133.218
7241.38 -86.3458 155.676
7244.17 -77.7267 165.065
7246.97 -83.5826 166.057
7249.76 -81.8281 167.885
7252.55 -83.6666 160.437
7255.35 -83.7486 148.447
7258.14 -82.6845 164.978
7260.94 -83.1155 152.833
7263.73 -80.2085 153.69
7266.52 -80.703 124.01
7269.32 -79.5694 128.098
7272.11 -75.1703 142.873
7274.9 -75.222 161.906
7277.69 -77.5445 176.785
7280.48 -83.2677 180.934
7283.28 -83.4964 181.878
7286.07 -79.1611 181.47
7288.86 -80.891 172.654
7291.65 -77.7522 170.001
7294.44 -81.0102 177.265
7297.23 -77.708 175.164
7300.02 -78.5511 164.792
7302.81 -80.8147 170.497
7305.61 -83.3397 162.683
7308.4 -82.3465 147.618
7311.19 -79.7157 171.568
7313.98 -78.2812 188.035
7316.77 -79.7002 192.594
7319.55 -81.572 197.237
7322.34 -83.8732 201.426
7325.13 -80.4177 195.213
7327.92 -80.7234 175.257
7330.71 -86.5544 165.849
7333.5 -80.1047 170.22
7336.29 -84.1299 182.034
7339.08 -80.9471 208.401
7341.86 -84.1322 224.89
7344.65 -86.6864 234.055
7347.44 -86.5772 200.163
7350.23 -85.657 196.104
7353.01 -83.319 200.413
7355.8 -83.006 192.746
7358.59 -85.788 207.395
7361.37 -82.6406 203.397
7364.16 -80.0044 196.069
7366.95 -80.9543 224.451
7369.73 -80.0753 229.344
7372.52 -81.9844 238.12
7375.3 -83.3106 228.899
7378.09 -83.0536 221.701
7380.87 -82.0596 211.658
7383.66 -83.8258 221.722
7386.44 -81.8351 209.511
7389.23 -76.9576 206.628
7392.01 -76.5123 208.849
7394.8 -79.9165 202.956
7397.58 -79.5585 221.363
7400.36 -84.1381 236.907
7403.15 -79.2588 234.79
7405.93 -85.613 235.134
7408.72 -82.3491 224.754
7411.5 -79.3862 228.288
7414.28 -79.3408 226.423
7417.06 -82.1465 227.234
7419.85 -79.8661 238.632
7422.63 -79.6758 225.637
7425.41 -82.3284 239.97
7428.19 -79.6269 238.341
7430.97 -78.8506 251.059
7433.76 -85.0005 237.78
7436.54 -79.5784 243.979
7439.32 -86.7194 261.477
7442.1 -80.572 260.818
7444.88 -82.8058 247.293
7447.66 -77.4877 250.675
7450.44 -82.1914 239.434
7453.22 -83.0158 243.191
7456 -83.3469 248.925
7458.78 -84.3021 245.755
7461.56 -82.5296 226.567
7464.34 -80.8045 249.484
7467.12 -83.2824 257.275
7469.9 -80.9963 259.112
7472.68 -81.8451 260.383
7475.45 -81.9707 272.062
7478.23 -79.0995 271.228
7481.01 -81.8234 293.95
7483.79 -84.4073 284.837
7486.57 -85.1361 285.331
7489.34 -81.4483 280.463
7492.12 -83.0681 276.525
7494.9 -78.4666 280.912
7497.67 -76.9205 267.277
7500.45 -80.856 270.502
7503.23 -78.2132 271.032
7506 -80.66 254.4
7508.78 -78.4862 258.896
7511.56 -78.7819 254.398
7514.33 -76.1446 254.858
7517.11 -74.387 256.566
7519.88 -76.8264 294.87
7522.66 -76.2502 292.459
7525.43 -75.7709 300.222
7528.21 -72.3665 296.119
7530.98 -73.7997 302.574
7533.76 -76.9916 311.738
7536.53 -77.8377 283.031
7539.3 -74.5624 284.664
7542.08 -75.0846 278.102
7544.85 -74.9533 280.058
7547.62 -74.8768 276.623
7550.4 -71.4211 272.512
7553.17 -75.0335 277.311
7555.94 -72.6256 276.471
7558.72 -73.8269 277.734
7561.49 -73.4465 281.227
7564.26 -72.5497 267.319
7567.03 -75.2265 291.205
7569.8 -73.8038 303.842
7572.57 -72.7342 294.277
7575.35 -68.6006 295.733
7578.12 -73.0824 301.5
7580.89 -71.1726 290.191
7583.66 -71.1128 299.513
7586.43 -65.7158 277.659
7589.2 -66.9551 270.788
7591.97 -61.1599 238.447
7594.74 -51.2823 183.849
7597.51 -38.9897 128.304
7600.28 -25.0505 96.5053
7603.05 -17.563 76.0348
7605.81 -16.1541 71.6074
7608.58 -17.3811 77.2126
7611.35 -20.7706 102.168
7614.12 -30.2169 151.926
7616.89 -39.3611 190.942
7619.66 -44.6325 203.244
7622.42 -45.8405 175.358
7625.19 -35.2344 166.791
7627.96 -36.6802 152.089
7630.73 -34.1779 159.795
7633.49 -34.1556 148.986
7636.26 -35.9719 170.187
7639.03 -37.268 169.945
7641.79 -39.4764 182.765
7644.56 -40.5437 195.15
7647.32 -46.5507 199.297
7650.09 -46.2855 216.68
7652.85 -50.3615 232.304
7655.62 -53.1324 250.919
7658.38 -50.0944 261.348
7661.15 -55.1548 265.201
7663.91 -56.0982 281.879
7666.68 -55.6266 287.006
7669.44 -59.25 296.452
7672.21 -57.995 314.214
7674.97 -62.4569 305.355
7677.73 -65.106 314.034
7680.5 -64.6208 301.419
7683.26 -67.4645 343.773
7686.02 -65.9913 317.406
7688.79 -68.5006 336.731
7691.55 -64.8432 331.547
7694.31 -69.0278 322.713
7697.07 -65.8674 310.739
7699.83 -68.1107 314.25
7702.59 -71.0137 305.424
7705.36 -70.2309 301.565
7708.12 -70.1876 322.791
7710.88 -73.5118 359.32
7713.64 -71.2895 413.312
7716.4 -69.1178 422.975
7719.16 -72.2559 428.149
7721.92 -69.8574 386.39
7724.68 -73.5695 405.954
7727.44 -71.6681 379.94
7730.2 -68.9496 361.54
7732.96 -75.0668 365.025
7735.72 -69.6983 342.011
7738.48 -69.8788 333.835
7741.23 -67.42 310.384
7743.99 -78.8184 347.72
7746.75 -75.9518 368.399
7749.51 -85.271 398.862
7752.27 -82.3323 437.029
7755.02 -87.0358 431.141
7757.78 -82.2892 406.584
7760.54 -82.2103 413.06
7763.29 -86.7555 409.156
7766.05 -80.9144 396.554
7768.81 -79.9229 389.722
7771.56 -80.7823 389.946
7774.32 -82.1862 387.491
7777.08 -77.6683 365.634
7779.83 -80.4585 376.264
7782.59 -83.7439 372.957
7785.34 -80.9232 364.262
7788.1 -81.5548 366.339
7790.85 -85.9924 417.256
7793.61 -83.4945 434.15
7796.36 -84.4958 449.443
7799.11 -82.1696 406.165
7801.87 -81.9725 387.739
7804.62 -82.2882 396.218
7807.37 -84.5967 398.732
7810.13 -85.0817 377.558
7812.88 -86.7865 398.559
7815.63 -81.8552 386.781
7818.39 -79.2576 457.543
7821.14 -82.2583 485.434
7823.89 -85.2315 476.121
7826.64 -84.1839 454.152
7829.39 -80.4731 423.365
7832.14 -81.693 402.686
7834.9 -79.0154 382.32
7837.65 -83.2146 384.518
7840.4 -72.333 369.494
7843.15 -81.5286 371.311
7845.9 -84.1021 374.17
7848.65 -76.0763 391.516
7851.4 -74.8814 425.201
7854.15 -77.9889 463.815
7856.9 -80.1989 456.158
7859.65 -77.959 458.568
7862.4 -74.6417 422.257
7865.14 -80.8999 436.057
7867.89 -80.5428 434.445
7870.64 -79.0842 439.322
7873.39 -79.7926 424.594
7876.14 -76.4646 434.812
7878.88 -83.7093 440.415
7881.63 -76.4178 452.806
7884.38 -80.7882 441.007
7887.13 -79.2815 476.554
7889.87 -72.0172 443.029
7892.62 -75.2004 423.119
7895.36 -78.9904 432.332
7898.11 -78.9779 408.752
7900.86 -80.0101 405.233
7903.6 -81.6717 360.658
7906.35 -79.4741 379.28
7909.09 -71.2916 415.142
7911.84 -80.3582 468.391
7914.58 -75.4615 504.473
7917.33 -76.1814 497.28
7920.07 -82.7472 487.412
7922.81 -78.5134 481.255
7925.56 -73.7336 460.181
7928.3 -81.3249 456.273
7931.05 -81.0727 462.328
7933.79 -78.2047 447.019
7936.53 -78.5669 448.865
7939.27 -77.6312 451.356
7942.02 -75.6493 438.022
7944.76 -71.5688 423.058
7947.5 -75.2591 432.821
7950.24 -76.0454 439.779
7952.98 -80.1722 446.917
7955.73 -80.0056 420.678
7958.47 -76.5468 416.283
7961.21 -75.0159 464.669
7963.95 -69.147 500.058
7966.69 -74.5215 499.937
7969.43 -82.0579 497.755
7972.17 -78.0778 473.7
7974.91 -76.1077 458.86
7977.65 -80.2611 446.852
7980.39 -75.065 459.622
7983.13 -77.6798 452.209
7985.86 -72.2407 426.545
7988.6 -78.2779 490.472
7991.34 -70.9065 494.809
7994.08 -68.7304 540.822
7996.82 -78.226 524.346
7999.55 -73.3338 488.869
8002.29 -75.8184 458.133
8005.03 -71.1563 439.977
8007.77 -78.2195 461.982
8010.5 -78.4566 470.643
8013.24 -76.1324 447.203
8015.98 -77.4594 472.92
8018.71 -75.7537 458.635
8021.45 -74.0818 471.613
8024.18 -67.7333 526.134
8026.92 -77.7789 541.193
8029.65 -65.7605 504.557
8032.39 -78.8703 508.819
8035.12 -79.3141 509.795
8037.86 -73.4487 485.178
8040.59 -75.1788 476.47
8043.32 -78.1634 463.198
8046.06 -70.7925 466.639
8048.79 -70.5934 470.388
8051.53 -72.2184 484.781
8054.26 -78.1354 465.566
8056.99 -77.667 491.584
8059.72 -72.1596 500.654
8062.46 -76.3727 534.852
8065.19 -78.5718 524.664
8067.92 -76.8247 514.652
8070.65 -71.9659 479.866
8073.38 -71.5914 509.507
8076.11 -73.2657 510.281
8078.84 -77.2178 485.015
8081.57 -74.9957 497.477
8084.31 -76.573 496.345
8087.04 -69.5889 471.8
8089.77 -72.0652 487.97
8092.49 -71.6154 482.486
8095.22 -75.4008 503.673
8097.95 -71.889 497.431
8100.68 -74.8997 504.015
8103.41 -72.0522 511.259
8106.14 -73.4711 491.86
8108.87 -70.7131 498.581
8111.6 -70.5051 489.54
8114.32 -75.6121 500.713
8117.05 -70.793 492.736
8119.78 -70.602 496.582
8122.51 -74.4391 500.049
8125.23 -72.209 491.817
8127.96 -76.7571 507.64
8130.69 -70.5299 489.708
8133.41 -72.8228 498.764
8136.14 -69.1696 499.587
8138.86 -71.3752 478.359
8141.59 -71.2349 494.947
8144.31 -68.6429 482.22
8147.04 -66.0336 482.429
8149.76 -69.1982 496.428
8152.49 -165.932 1115.14
8155.21 -67.2764 480.485
8157.94 -71.4245 482.119
8160.66 -68.1959 465.257
8163.38 -66.5931 464.456
8166.11 -63.5038 458.238
8168.83 -66.6199 451.974
8171.55 -67.6361 474.094
8174.27 -62.4235 465.94
8177 -67.184 457.767
8179.72 -64.1412 470.729
8182.44 -63.9962 450.663
8185.16 -64.7301 459.868
8187.88 -61.4969 463.383
8190.61 -66.4415 481.778
8193.33 -66.1427 474.841
8196.05 -59.6728 445.127
8198.77 -65.8804 459.04
8201.49 -65.5966 482.738
8204.21 -71.1915 518.663
8206.93 -67.6329 490.063
8209.65 -71.0873 522.741
8212.36 -64.0163 484.872
8215.08 -67.1109 485.939
8217.8 -70.5244 500.086
8220.52 -69.8191 488.452
8223.24 -63.5355 451.602
8225.96 -63.5387 453.53
8228.67 -62.2384 442.019
8231.39 -58.6413 431.436
8234.11 -60.1359 460.169
8236.83 -67.033 479.612
8239.54 -69.8812 477.435
8242.26 -63.484 493.815
8244.98 -66.062 495.447
8247.69 -68.0382 525.343
8250.41 -68.3349 511.152
8253.12 -66.9553 504.19
8255.84 -69.3893 490.391
8258.55 -64.7216 502.101
8261.27 -70.9076 487.103
8263.98 -59.7608 480.009
8266.7 -65.4033 498.544
8269.41 -70.4369 485.984
8272.12 -67.2257 470.137
8274.84 -67.5836 451.472
8277.55 -58.3957 434.734
8280.26 -60.285 452.067
8282.98 -61.6853 468.207
8285.69 -56.5004 453.82
8288.4 -55.1761 459.265
8291.11 -56.2409 450.111
8293.83 -66.8694 461.444
8296.54 -62.2137 484.176
8299.25 -58.0097 499.941
8301.96 -62.8146 521.575
8304.67 -64.1901 489.742
8307.38 -57.0906 495.343
8310.09 -58.6016 484.355
8312.8 -65.7916 497.262
8315.51 -61.863 490.637
8318.22 -66.4942 497.396
8320.93 -64.2928 500.182
8323.64 -64.5897 485.076
8326.35 -61.0953 480.619
8329.06 -59.1525 475.135
8331.76 -64.403 494.296
8334.47 -62.3352 434.462
8337.18 -62.5084 375.767
8339.89 -50.9554 393.561
8342.59 -57.9299 468.238
8345.3 -52.8689 499.279
8348.01 -70.1449 586.696
8350.72 -69.24 559.154
8353.42 -56.6193 520.494
8356.13 -61.8561 518.172
8358.83 -64.8064 517.735
8361.54 -62.1466 496.224
8364.24 -64.1968 485.416
8366.95 -63.8133 504.499
8369.65 -67.6064 515.875
8372.36 -64.7966 498.785
8375.06 -67.7126 482.233
8377.77 -58.9914 470.949
8380.47 -67.7205 490.103
8383.17 -58.987 508.402
8385.88 -68.1573 501.445
8388.58 -64.1982 497.143
8391.28 -63.2148 456.439
8393.99 -59.2557 458.496
8396.69 -64.3972 471.068
8399.39 -63.7247 521.295
8402.09 -65.7792 582.161
8404.79 -62.7461 555.442
8407.49 -62.5831 501.613
8410.19 -64.0622 481.654
8412.9 -64.8885 506.219
8415.6 -61.9315 495.242
8418.3 -59.8465 483.968
8421 -62.5383 477.503
8423.7 -62.0117 459.023
8426.4 -61.8275 432.513
8429.09 -61.8134 469.808
8431.79 -58.693 491.372
8434.49 -60.4435 531.107
8437.19 -62.8786 517.01
8439.89 -60.2173 500.24
8442.59 -58.6221 492.908
8445.28 -61.2251 488.613
8447.98 -61.319 467.172
8450.68 -60.9029 502.759
8453.38 -59.1806 483.07
8456.07 -61.915 514.857
8458.77 -60.6338 462.286
8461.46 -57.7912 448.277
8464.16 -59.9621 464.028
8466.86 -60.852 501.488
8469.55 -54.1226 502.93
8472.25 -63.2774 488.492
8474.94 -62.3233 492.045
8477.64 -58.8442 474.075
8480.33 -64.3166 477.397
8483.02 -63.0075 478.74
8485.72 -62.465 491.333
8488.41 -63.0883 492.034
8491.1 -63.615 473.574
8493.8 -58.225 467.932
8496.49 -61.7281 441.33
8499.18 -50.7408 421.409
8501.87 -55.7527 470.845
8504.57 -53.276 477.838
8507.26 -60.4794 472.099
8509.95 -66.9344 491.142
8512.64 -62.2511 468.514
8515.33 -59.3516 471.662
8518.02 -57.8635 470.714
8520.71 -59.476 465.135
8523.4 -61.0358 468.831
8526.09 -59.1685 456.551
8528.78 -56.265 449.453
8531.47 -60.2602 485.305
8534.16 -59.6171 480.054
8536.85 -54.1949 458.007
8539.54 -57.2662 435.761
8542.23 -46.9571 389.863
8544.91 -41.4633 373.695
8547.6 -45.4077 396.494
8550.29 -55.7834 451.543
8552.98 -54.5164 456.343
8555.66 -57.3332 465.41
8558.35 -56.0783 456.461
8561.04 -55.417 452.983
8563.72 -55.7342 473.496
8566.41 -59.0472 475.058
8569.09 -62.4707 489.133
8571.78 -56.4327 471.746
8574.46 -57.1208 478.558
8577.15 -60.9022 473.651
8579.83 -58.0255 453.155
8582.52 -59.8738 477.3
8585.2 -58.6062 458.503
8587.89 -68.1801 466.845
8590.57 -71.665 473.703
8593.25 -65.9943 455.609
8595.94 -66.9401 471.107
8598.62 -65.102 439.918
8601.3 -65.8452 461.011
8603.98 -66.3975 449.553
8606.66 -71.7604 471.991
8609.35 -67.5838 475.146
8612.03 -67.0117 465.038
8614.71 -68.4821 459.646
8617.39 -69.8563 466.718
8620.07 -70.3567 482.59
8622.75 -61.7281 471.282
8625.43 -72.674 482.372
8628.11 -74.3573 478.721
8630.79 -70.0526 490.054
8633.47 -66.4404 455.721
8636.15 -67.7746 466.569
8638.83 -72.0609 458.33
8641.5 -69.3594 464.684
8644.18 -74.7971 492.172
8646.86 -66.3426 464.117
8649.54 -70.3034 467.874
8652.22 -66.3925 469.247
8654.89 -66.888 489.28
8657.57 -64.5625 472.732
8660.25 -60.7856 439.063
8662.92 -56.5265 390.415
8665.6 -50.6691 367.26
8668.27 -55.8705 378.998
8670.95 -60.4577 410.455
8673.62 -69.5829 434.115
8676.3 -68.849 455.218
8678.97 -67.7877 440.616
8681.65 -67.1619 439.885
8684.32 -65.8577 448.242
8687 -65.1234 455.078
8689.67 -67.6959 440.001
8692.34 -64.6627 430.533
8695.02 -71.2238 460.055
8697.69 -69.2655 436.685
8700.36 -68.6432 462.653
8703.03 -68.2046 456.864
8705.7 -68.0345 463.119
8708.38 -68.3481 467.391
8711.05 -70.4685 457.489
8713.72 -69.6326 478.042
8716.39 -65.0093 431.249
8719.06 -65.5581 423.463
8721.73 -69.176 452.284
8724.4 -71.119 463.516
8727.07 -69.8817 472.098
8729.74 -70.1867 456.503
8732.41 -64.326 429.275
8735.08 -65.3859 450.923
8737.75 -66.0893 447.53
8740.41 -65.9948 427.804
8743.08 -66.9764 437.617
8745.75 -67.9397 447.247
8748.42 -61.9938 432.13
8751.08 -64.7265 445
8753.75 -67.4126 439.154
8756.42 -58.0606 438.207
8759.08 -60.5941 503.438
8761.75 -66.3028 532.081
8764.42 -58.4323 564.522
8767.08 -74.6923 573.011
8769.75 -64.6921 506.836
8772.41 -58.2877 463.329
8775.08 -67.9323 427.704
8777.74 -66.8427 476.005
8780.4 -62.0728 445.495
8783.07 -78.9218 427.366
8785.73 -71.0121 318.624
8788.4 -68.9197 318.557
8791.06 -63.3946 333.711
8793.72 -60.4509 354.735
8796.38 -65.2614 343.66
8799.05 -61.2367 329.225
8801.71 -62.153 343.531
8804.37 -64.2639 364.443
8807.03 -56.6203 361.034
8809.69 -55.219 371.651
8812.35 -57.5124 384.351
8815.01 -58.4678 393.075
8817.67 -62.1853 416.144
8820.33 -66.3807 420.985
8822.99 -59.2752 520.592
8825.65 -44.9461 637.305
8828.31 -60.2776 713.705
8830.97 -62.6043 687.207
8833.63 -60.5662 539.475
8836.29 -57.6619 403.114
8838.95 -63.0674 342.199
8841.6 -61.2893 303.84
8844.26 -60.474 236.321
8846.92 -61.8985 241.775
8849.57 -59.7644 248.59
8852.23 -61.8313 271.537
8854.89 -68.6085 331.96
8857.54 -61.6411 303.757
8860.2 -62.1548 327.784
8862.85 -64.5389 368.214
8865.51 -58.5944 408.442
8868.16 -57.9472 449.877
8870.82 -60.222 437.584
8873.47 -61.0614 422.782
8876.13 -67.2678 387.321
8878.78 -64.7697 386.516
8881.43 -61.3614 422.409
8884.09 -60.7915 542.55
8886.74 -67.0338 630.906
8889.39 -64.3574 613.572
8892.04 -68.5189 487.026
8894.7 -66.7067 354.903
8897.35 -68.7585 309.402
8900 -65.1411 328.947
8902.65 -66.0455 400.207
8905.3 -65.0814 430.187
8907.95 -60.8103 389.875
8910.6 -70.7309 354.711
8913.25 -70.7803 326.665
8915.9 -58.6413 358.043
8918.55 -56.2714 499.587
8921.2 -50.4934 581.345
8923.85 -55.4524 555.646
8926.5 -66.4754 427.612
8929.15 -62.7902 295.741
8931.79 -61.5567 254.259
8934.44 -56.6129 242.198
8937.09 -65.2845 288.802
8939.74 -59.7976 298.775
8942.38 -64.5148 335.981
8945.03 -58.1681 352.579
8947.68 -57.3237 346.617
8950.32 -54.0934 310.425
8952.97 -55.9268 298.512
8955.61 -56.0909 368.185
8958.26 -49.3274 444.869
8960.9 -61.2425 500.347
8963.55 -50.6723 430.375
8966.19 -58.1578 307.004
8968.84 -55.2028 252.922
8971.48 -51.4763 230.159
8974.12 -52.2605 250.692
8976.77 -52.6343 241.862
8979.41 -51.6256 263.749
8982.05 -53.9802 270.766
8984.69 -53.2018 288.611
8987.34 -50.4044 313.091
8989.98 -53.3603 322.119
8992.62 -47.925 305.771
8995.26 -50.7801 277.211
8997.9 -51.8524 274.262
9000.54 -49.882 321.119
9003.18 -54.1971 379.699
9005.82 -62.7005 393.174
9008.46 -55.5165 349.723
9011.1 -57.8889 289.859
9013.74 -52.1765 275.282
9016.38 -54.3269 262.042
9019.02 -51.3846 269.036
9021.65 -52.4491 278.398
9024.29 -52.8405 288.408
9026.93 -54.3467 297.047
9029.57 -56.9684 297.336
9032.2 -58.7422 323.512
9034.84 -53.7241 324.697
9037.48 -65.5334 355.763
9040.11 -56.4123 366.848
9042.75 -59.5748 356.56
9045.38 -57.9549 319.558
9048.02 -56.7226 341.121
9050.65 -55.7095 356.23
9053.29 -57.2462 366.632
9055.92 -56.5094 339.601
9058.56 -53.0687 291.31
9061.19 -61.6882 299.025
9063.82 -54.6664 296.546
