wavelength spectrum_sum 3smoothed_sum spectrum_optimal 3smoothed_optimal
3503.96 143.37 111.225 116.748 88.7021
3506.89 190.305 197.229 149.358 162.909
3509.81 258.012 245.653 222.622 205.208
3512.74 288.642 279.97 243.643 234.172
3515.66 293.257 291.392 236.252 237.71
3518.58 292.275 300.357 233.236 243.966
3521.51 315.538 295.972 262.409 240.848
3524.43 280.104 293.651 226.9 242.343
3527.35 285.31 286.81 237.721 238.502
3530.28 295.017 293.574 250.884 250.044
3533.2 300.395 297.609 261.527 257.228
3536.12 297.415 293.044 259.275 262.581
3539.05 281.322 301.897 266.942 275.871
3541.97 326.953 306.161 301.397 286.488
3544.89 310.209 312.781 291.124 294.872
3547.82 301.182 297.928 292.095 276.956
3550.74 282.393 311.73 247.649 293.916
3553.66 351.613 319.384 342.005 298.497
3556.59 324.144 337.893 305.836 313.923
3559.51 337.922 337.414 293.927 300.432
3562.43 350.177 351.982 301.532 308.047
3565.36 367.848 364.602 328.681 317.334
3568.28 375.78 369.575 321.788 321.404
3571.2 365.097 366.618 313.743 316.068
3574.12 358.978 370.392 312.672 316.028
3577.05 387.102 374.779 321.669 316.576
3579.97 378.258 384.71 315.386 322.011
3582.89 388.77 388.504 328.978 329.132
3585.82 398.484 386.074 343.033 328.415
3588.74 370.968 371.608 313.233 316.942
3591.66 345.371 365.934 294.559 316.906
3594.58 381.464 355.035 342.925 308.232
3597.51 338.271 377.381 287.211 327.296
3600.43 412.408 382.383 351.75 329.418
3603.35 396.47 405.612 349.294 349.957
3606.27 407.957 411.264 348.827 357.759
3609.2 429.363 419.887 375.156 362.871
3612.12 422.339 432.791 364.629 377.684
3615.04 446.67 435.652 393.267 378.587
3617.96 437.948 432.543 377.866 375.479
3620.89 413.013 430.213 355.305 370.684
3623.81 439.679 415.768 378.88 363.519
3626.73 394.612 430.019 356.372 382.217
3629.65 455.765 431.889 411.398 388.687
3632.57 445.291 459.621 398.291 411.466
3635.5 477.806 441.487 424.708 400.374
3638.42 401.364 436.579 378.124 390.835
3641.34 430.566 434.897 369.674 388.081
3644.26 472.761 437.028 416.444 380.135
3647.18 407.756 429.356 354.287 374.661
3650.11 407.551 389.705 353.253 348.805
3653.03 353.807 395.779 338.875 363.319
3655.95 425.979 402.89 397.831 373.002
3658.87 428.885 412.139 382.3 372.136
3661.79 381.554 405.51 336.278 358.08
3664.72 406.092 378.712 355.662 335.776
3667.64 348.49 384.409 315.389 337.52
3670.56 398.645 360.573 341.509 321.74
3673.48 334.583 364.6 308.322 322.066
3676.4 360.571 350.806 316.367 313.073
3679.32 357.264 364.218 314.53 314.526
3682.24 374.82 364.389 312.679 304.76
3685.17 361.083 354.029 287.07 289.894
3688.09 326.184 321.893 269.931 270.503
3691.01 278.412 299.712 254.506 264.904
3693.93 294.54 282.064 270.273 256.352
3696.85 273.241 290.297 244.275 259.114
3699.77 303.111 287.513 262.794 247.558
3702.69 286.187 285.371 235.606 248.059
3705.62 266.815 273.981 245.778 238.153
3708.54 268.942 269.434 233.076 234.562
3711.46 272.545 273.755 224.831 237.637
3714.38 279.777 268.601 255.005 233.359
3717.3 253.48 271.01 220.242 238.884
3720.22 279.775 255.096 241.405 230.855
3723.14 232.033 255.765 230.919 233.258
3726.06 255.488 249.672 227.45 231.145
3728.98 261.495 253.517 235.065 229.528
3731.9 243.569 245.287 226.071 226.002
3734.83 230.797 228.246 216.869 223.166
3737.75 210.371 225.731 226.559 224.536
3740.67 236.026 230.427 230.18 229.206
3743.59 244.885 228.725 230.88 224.077
3746.51 205.265 226.504 211.171 220.88
3749.43 229.361 212.804 220.589 213.043
3752.35 203.787 223.202 207.37 212.549
3755.27 236.458 216.334 209.686 198.839
3758.19 208.758 205.472 179.461 184.221
3761.11 171.199 196.851 163.517 184.679
3764.03 210.595 206.628 211.058 206.685
3766.95 238.09 218.896 245.481 233.853
3769.87 208.004 214.82 245.019 233.774
3772.79 198.367 208.403 210.822 231.036
3775.71 218.839 205.788 237.266 222.248
3778.63 200.158 217.106 218.654 231.59
3781.55 232.322 220.269 238.85 233.478
3784.47 228.327 238.772 242.929 243.957
3787.39 255.666 255.482 250.091 252.871
3790.31 282.452 247.958 265.595 252.922
3793.23 205.756 248.553 243.079 252.824
3796.15 257.452 229.56 249.797 242.257
3799.07 225.472 245.049 233.894 251.122
3801.99 252.224 256.067 269.675 265.831
3804.91 290.504 286.874 293.926 298.292
3807.83 317.894 297.955 331.277 307.417
3810.75 285.467 305.683 297.048 317.921
3813.67 313.687 306.778 325.438 320.191
3816.59 321.18 319.12 338.087 335.017
3819.51 322.492 317.878 341.525 331.13
3822.43 309.963 317.874 313.777 326.425
3825.35 321.168 317.376 323.972 327.776
3828.27 320.995 327.681 345.581 332.115
3831.19 340.881 345.516 326.792 340.33
3834.11 374.673 373.342 348.617 363.137
3837.03 404.471 384.936 414.001 375.081
3839.95 375.663 381.229 362.625 379.67
3842.87 363.552 382.675 362.384 384.413
3845.79 408.808 391.275 428.232 392.893
3848.7 401.463 392.678 388.062 393.128
3851.62 367.762 394.651 363.091 390.859
3854.54 414.728 383.81 421.423 393.693
3857.46 368.941 394.959 396.566 406.834
3860.38 401.209 386.98 402.514 401.636
3863.3 390.79 399.264 405.827 407.075
3866.22 405.794 405.874 412.884 416.044
3869.14 421.037 429.962 429.42 436.598
3872.06 463.055 434.349 467.49 438.873
3874.98 418.954 450.306 419.708 447.767
3877.89 468.909 458.132 456.102 455.008
3880.81 486.533 505.006 489.213 504.073
3883.73 559.577 560.727 566.905 564.408
3886.65 636.069 593.06 637.106 603.89
3889.57 583.534 609.395 607.66 613.544
3892.49 608.581 601.674 595.866 603.078
3895.41 612.906 629.417 605.708 633.568
3898.32 666.763 643.867 699.13 658.079
3901.24 651.93 668.268 669.4 696.754
3904.16 686.11 678.908 721.73 725.151
3907.08 698.683 711.583 784.323 780.846
3910 749.956 762.456 836.484 850.547
3912.92 838.729 782.403 930.835 875.598
3915.83 758.525 819.436 859.475 897.672
3918.75 861.056 832.657 902.705 895.37
3921.67 878.39 874.391 923.93 913.319
3924.59 883.728 880.105 913.323 898.419
3927.51 878.196 881.505 858.003 883.808
3930.42 882.591 898.837 880.097 878.549
3933.34 935.724 946.997 897.546 919.262
3936.26 1022.68 994.719 980.143 958.706
3939.18 1025.76 1046.19 998.43 1028.9
3942.1 1090.13 1076.34 1108.12 1088.09
3945.01 1113.13 1054.22 1157.72 1089.97
3947.93 959.394 1072.31 1004.07 1102.9
3950.85 1144.4 1095.96 1146.9 1111.95
3953.77 1184.07 1142.87 1184.89 1147.71
3956.68 1100.14 1149.03 1111.35 1136.83
3959.6 1162.87 1139.9 1114.23 1111.91
3962.52 1156.68 1176.95 1110.15 1126.27
3965.44 1211.29 1203.69 1154.43 1158.61
3968.35 1243.11 1262.2 1211.26 1218.9
3971.27 1332.19 1261.03 1291.01 1237.27
3974.19 1207.8 1264.38 1209.54 1247.58
3977.11 1253.14 1230.88 1242.19 1243.28
3980.02 1231.69 1277.26 1278.11 1284.7
3982.94 1346.93 1317.07 1333.8 1330.25
3985.86 1372.58 1354.48 1378.82 1370.24
3988.77 1343.92 1369.98 1398.09 1398.59
3991.69 1393.43 1359.6 1418.86 1399.01
3994.61 1341.45 1354.51 1380.07 1394.19
3997.53 1328.64 1334.79 1383.64 1399.58
4000.44 1334.28 1340.47 1435.02 1405.86
4003.36 1358.5 1360.31 1398.93 1425.89
4006.28 1388.15 1355.73 1443.72 1419
4009.19 1320.53 1381.03 1414.37 1436.27
4012.11 1434.41 1370.38 1450.72 1419.38
4015.03 1356.2 1374.65 1393.07 1416.24
4017.94 1333.34 1344.07 1404.92 1408.6
4020.86 1342.67 1324.24 1427.81 1400.58
4023.78 1296.71 1341.09 1369.01 1401.87
4026.69 1383.9 1292.76 1408.8 1356.17
4029.61 1197.66 1321.86 1290.69 1386.12
4032.53 1384.03 1318.7 1458.87 1394.56
4035.44 1374.43 1341.22 1434.13 1410.23
4038.36 1265.22 1314.58 1337.7 1372.09
4041.27 1304.1 1295.14 1344.43 1349.57
4044.19 1316.12 1292.2 1366.58 1350.22
4047.11 1256.39 1252.76 1339.66 1321.31
4050.02 1185.76 1223.23 1257.69 1312.73
4052.94 1227.54 1223.6 1340.84 1320.44
4055.85 1257.5 1249.78 1362.77 1348.19
4058.77 1264.3 1256.47 1340.96 1338.5
4061.69 1247.6 1255.95 1311.76 1317.02
4064.6 1255.96 1273.95 1298.33 1332.63
4067.52 1318.29 1256.46 1387.82 1326.04
4070.43 1195.12 1270.43 1291.98 1355.23
4073.35 1297.88 1271.47 1385.89 1353.55
4076.26 1321.4 1301.42 1382.79 1373.22
4079.18 1284.98 1297.39 1350.96 1360.46
4082.1 1285.8 1285.98 1347.63 1352.77
4085.01 1287.16 1267.53 1359.73 1342.37
4087.93 1229.64 1285.89 1319.74 1358.57
4090.84 1340.88 1309.66 1396.25 1379.25
4093.76 1358.46 1371.27 1421.78 1434.39
4096.67 1414.47 1405.59 1485.14 1453.78
4099.59 1443.84 1442.61 1454.43 1495.06
4102.5 1469.53 1487.69 1545.62 1529.4
4105.42 1549.69 1505.81 1588.15 1566.5
4108.33 1498.2 1536.98 1565.73 1597.75
4111.25 1563.04 1524.28 1639.37 1618.52
4114.16 1511.6 1566.06 1650.47 1658.11
4117.08 1623.52 1581.32 1684.5 1676.82
4119.99 1608.82 1626.06 1695.49 1700.29
4122.91 1645.83 1629.68 1720.87 1719.53
4125.82 1634.39 1643.54 1742.24 1741.12
4128.74 1650.39 1679.56 1760.24 1801.31
4131.65 1753.89 1720.63 1901.44 1841.2
4134.57 1757.61 1761.53 1861.91 1882.19
4137.48 1773.08 1766.67 1883.2 1884.69
4140.4 1769.31 1805.01 1908.96 1919.67
4143.31 1872.64 1843.68 1966.83 1956.89
4146.23 1889.08 1864 1994.87 1984.71
4149.14 1830.29 1854.79 1992.44 1973.66
4152.05 1845.01 1872.69 1933.68 1998.02
4154.97 1942.78 1925.42 2067.95 2043.57
4157.88 1988.47 1946.9 2129.08 2086.51
4160.8 1909.44 1933.72 2062.51 2088.29
4163.71 1903.25 1909.24 2073.29 2092.33
4166.63 1915.01 1929.17 2141.18 2113.98
4169.54 1969.25 1971.53 2127.45 2154.16
4172.45 2030.34 1999.93 2193.84 2159.42
4175.37 2000.21 1990.76 2156.98 2160.01
4178.28 1941.73 1970.15 2129.21 2130.9
4181.2 1968.51 1948.48 2106.52 2126.22
4184.11 1935.19 1963.15 2142.93 2125.27
4187.02 1985.74 1949.81 2126.37 2129.85
4189.94 1928.5 1939.24 2120.26 2100.02
4192.85 1903.48 1920.96 2053.43 2079.11
4195.76 1930.92 1921.23 2063.63 2067.74
4198.68 1929.29 1911.64 2086.17 2079.21
4201.59 1874.72 1916.29 2087.82 2090.94
4204.5 1944.87 1926.87 2098.82 2100.49
4207.42 1961.02 1921.2 2114.83 2074.95
4210.33 1857.71 1934.2 2011.21 2084.58
4213.24 1983.87 1894.77 2127.71 2044.64
4216.16 1842.73 1898.09 1994.99 2042.12
4219.07 1867.66 1877.74 2003.67 2016.52
4221.98 1922.84 1869.55 2050.9 2005.59
4224.9 1818.17 1846.19 1962.2 1997.52
4227.81 1797.56 1866.22 1979.46 2020.79
4230.72 1982.93 1861.42 2120.7 2036.93
4233.64 1803.77 1885.02 2010.64 2034.71
4236.55 1868.37 1828.06 1972.8 1976.02
4239.46 1812.03 1803.3 1944.61 1925.74
4242.37 1729.51 1804.92 1859.81 1955.88
4245.29 1873.23 1828.84 2063.22 1988.78
4248.2 1883.78 1874.72 2043.32 2050.28
4251.11 1867.14 1893.92 2044.29 2056.04
4254.03 1930.85 1872.96 2080.5 2034.21
4256.94 1820.9 1853.31 1977.84 2016.99
4259.85 1808.16 1798.27 1992.62 1980.79
4262.76 1765.75 1824.6 1971.9 2018.41
4265.68 1899.9 1841.64 2090.71 2032.78
4268.59 1859.27 1858.18 2035.74 2048.8
4271.5 1815.37 1821.38 2019.95 2035.9
4274.41 1789.5 1793.13 2052.01 2006.03
4277.32 1774.52 1775.99 1946.13 1981.23
4280.24 1763.93 1754.72 1945.56 1928.43
4283.15 1725.7 1761.45 1893.59 1928.68
4286.06 1794.71 1770.53 1946.9 1935.22
4288.97 1791.19 1771.11 1965.17 1933.03
4291.88 1727.42 1735.78 1887.01 1897.99
4294.8 1688.73 1688.06 1841.8 1839.86
4297.71 1648.01 1668.99 1790.76 1791.89
4300.62 1670.23 1646.2 1743.12 1764.33
4303.53 1620.37 1637.8 1759.12 1740.23
4306.44 1622.79 1614.15 1718.44 1724.41
4309.35 1599.29 1622.65 1695.69 1714.2
4312.27 1645.86 1616.35 1728.48 1710.6
4315.18 1603.88 1607.22 1707.63 1711.29
4318.09 1571.91 1570.43 1697.77 1690.51
4321 1535.49 1531.85 1666.12 1649.06
4323.91 1488.16 1518.86 1583.28 1640.6
4326.82 1532.93 1488.13 1672.4 1603.58
4329.73 1443.3 1490.3 1555.05 1605.66
4332.64 1494.68 1423.95 1589.54 1546.22
4335.56 1333.89 1428.51 1494.06 1551.83
4338.47 1456.96 1413.19 1571.88 1541.73
4341.38 1448.72 1426.43 1559.25 1548.73
4344.29 1373.62 1421.73 1515.06 1554.9
4347.2 1442.85 1394.08 1590.38 1527
4350.11 1365.77 1389.08 1475.56 1518.09
4353.02 1358.61 1321.09 1488.32 1472.26
4355.93 1238.87 1287.56 1452.88 1445.79
4358.84 1265.21 1257.83 1396.15 1411.06
4361.75 1269.4 1243.66 1384.14 1377.19
4364.66 1196.37 1256.24 1351.27 1400.46
4367.57 1302.93 1237.63 1465.96 1385.44
4370.48 1213.59 1263.06 1339.08 1398.15
4373.39 1272.66 1251.33 1389.4 1379.87
4376.3 1267.73 1255.73 1411.14 1383.64
4379.21 1226.8 1232.65 1350.38 1357.1
4382.12 1203.41 1219.75 1309.78 1337.97
4385.03 1229.03 1237.49 1353.76 1345.01
4387.94 1280.02 1283.8 1371.49 1369.42
4390.85 1342.35 1306.91 1383 1397.66
4393.76 1298.37 1290.66 1438.47 1401.75
4396.67 1231.26 1255.54 1383.78 1379.75
4399.58 1236.98 1288.19 1316.99 1396.68
4402.49 1396.31 1329.42 1489.27 1422.71
4405.4 1354.97 1388.08 1461.86 1501.88
4408.31 1412.96 1384.72 1554.52 1506
4411.22 1386.22 1356.48 1501.62 1514.16
4414.13 1270.25 1361.08 1486.33 1520.63
4417.04 1426.77 1377.03 1573.95 1544.01
4419.95 1434.06 1424 1571.75 1570.48
4422.86 1411.17 1444.43 1565.74 1602.54
4425.77 1488.06 1477.11 1670.14 1644.24
4428.68 1532.09 1507.98 1696.83 1667.88
4431.59 1503.79 1494.38 1636.68 1686.89
4434.5 1447.26 1478.63 1727.17 1711.68
4437.41 1484.83 1523.07 1771.18 1771.67
4440.31 1637.12 1580.86 1816.65 1801.68
4443.22 1620.63 1637.25 1817.21 1813.92
4446.13 1654 1651.16 1807.91 1832.34
4449.04 1678.86 1651.21 1871.91 1847.42
4451.95 1620.76 1678.98 1862.43 1880.8
4454.86 1737.33 1698.31 1908.07 1901.88
4457.77 1736.84 1738.94 1935.14 1912.82
4460.68 1742.64 1741.62 1895.25 1920.03
4463.58 1745.37 1738.92 1929.7 1912.89
4466.49 1728.74 1722.41 1913.73 1897.26
4469.4 1693.11 1698.56 1848.35 1870.96
4472.31 1673.81 1720.8 1850.8 1909.01
4475.22 1795.48 1708.8 2027.89 1912.59
4478.13 1657.1 1719.42 1859.07 1929.65
4481.03 1705.67 1701.73 1901.99 1887.06
4483.94 1742.41 1717.29 1900.11 1894.16
4486.85 1703.8 1682.39 1880.37 1884.71
4489.76 1600.97 1661.25 1873.66 1885.22
4492.67 1678.97 1657.72 1901.63 1887.2
4495.57 1693.22 1675.23 1886.31 1868.05
4498.48 1653.49 1659.51 1816.21 1845.98
4501.39 1631.82 1627.94 1835.41 1813.4
4504.3 1598.51 1616.93 1788.58 1813.21
4507.2 1620.47 1598.13 1815.64 1829.78
4510.11 1575.42 1637.45 1885.1 1874.07
4513.02 1716.46 1626.02 1921.47 1895.27
4515.93 1586.2 1668.02 1879.22 1903.51
4518.83 1701.41 1666.25 1909.84 1901.58
4521.74 1711.13 1658.94 1915.68 1895.26
4524.65 1564.28 1675.97 1860.26 1923.59
4527.56 1752.49 1709.55 1994.84 1960.39
4530.46 1811.89 1776.39 2026.09 1992.85
4533.37 1764.78 1740.34 1957.64 1994.91
4536.28 1644.36 1710.23 2000.99 2004.91
4539.18 1721.55 1741.08 2056.09 2052.95
4542.09 1857.34 1822.1 2101.78 2093.84
4545 1887.41 1890.97 2123.65 2130.4
4547.91 1928.15 1872.02 2165.76 2124.54
4550.81 1800.5 1885.37 2084.2 2130.68
4553.72 1927.45 1906.56 2142.07 2142.6
4556.62 1991.71 2000.64 2201.54 2217.2
4559.53 2082.75 2050.4 2308 2291.87
4562.44 2076.76 2046.51 2366.06 2315.7
4565.34 1980.04 2028.84 2273.04 2305.7
4568.25 2029.72 1990.5 2278.01 2294.3
4571.16 1961.73 2035.86 2331.86 2334.74
4574.06 2116.13 2066.61 2394.33 2371.41
4576.97 2121.98 2079.14 2388.04 2377.42
4579.88 1999.3 2082.8 2349.89 2384.38
4582.78 2127.11 2090.19 2415.2 2390.72
4585.69 2144.17 2148.86 2407.06 2408.55
4588.59 2175.28 2150.24 2403.38 2413.28
4591.5 2131.26 2159.98 2429.4 2419.08
4594.4 2173.4 2183.3 2424.46 2454.6
4597.31 2245.24 2217.76 2509.94 2469.52
4600.22 2234.64 2243.79 2474.15 2510.89
4603.12 2251.5 2229.43 2548.57 2488.77
4606.03 2202.15 2225.05 2443.6 2510.01
4608.93 2221.51 2188.06 2537.86 2469.02
4611.84 2140.52 2202.79 2425.59 2484.1
4614.74 2246.34 2185.65 2488.86 2446.27
4617.65 2170.1 2199.58 2424.35 2460.64
4620.55 2182.3 2200.67 2468.72 2491.11
4623.46 2249.6 2209.3 2580.27 2509.41
4626.36 2195.99 2228.02 2479.25 2536.92
4629.27 2238.46 2251.61 2551.23 2543.36
4632.17 2320.38 2237.33 2599.61 2538.52
4635.08 2153.13 2239.75 2464.72 2533.38
4637.98 2245.73 2203.55 2535.8 2502.41
4640.89 2211.78 2227.15 2506.7 2521.49
4643.79 2223.93 2197.48 2521.99 2495.16
4646.7 2156.73 2238.91 2456.78 2532.87
4649.6 2336.06 2237.55 2619.83 2540.95
4652.51 2219.85 2259.17 2546.23 2559.73
4655.41 2221.58 2246.23 2513.12 2557.88
4658.31 2297.25 2225.37 2614.3 2520.37
4661.22 2157.27 2251.15 2433.69 2558.02
4664.12 2298.93 2239.85 2626.07 2533.62
4667.03 2263.34 2257.85 2541.09 2559.18
4669.93 2211.3 2236.32 2510.38 2522.68
4672.84 2234.33 2197.86 2516.59 2534.71
4675.74 2147.95 2187.5 2577.16 2557.63
4678.64 2180.22 2182.37 2579.14 2602.54
4681.55 2218.95 2226.7 2651.33 2607.09
4684.45 2280.94 2270.29 2590.8 2617.44
4687.35 2310.97 2279.14 2610.17 2601.58
4690.26 2245.52 2250.93 2603.76 2577.28
4693.16 2196.3 2240.09 2517.9 2570.9
4696.06 2278.44 2254.81 2591.05 2575.62
4698.97 2289.69 2243.99 2617.92 2543.05
4701.87 2163.84 2228.69 2420.19 2518
4704.77 2232.54 2210.09 2515.9 2487.59
4707.68 2233.89 2193.09 2526.68 2481.22
4710.58 2112.84 2169.9 2401.09 2452.08
4713.48 2162.98 2138.97 2428.46 2427.59
4716.39 2141.08 2081.16 2453.22 2411.04
4719.29 1939.41 2053.56 2351.43 2405.93
4722.19 2080.2 1997.64 2413.15 2376.88
4725.1 1973.32 2013.07 2366.05 2349.27
4728 1985.69 1965 2268.6 2315.33
4730.9 1935.99 1965.65 2311.33 2299.18
4733.8 1975.27 1975.01 2317.59 2303.78
4736.71 2013.76 1983.48 2282.43 2281.42
4739.61 1961.42 1973.63 2244.23 2268.3
4742.51 1945.7 1970.16 2278.24 2270.3
4745.41 2003.37 1962.41 2288.42 2259.66
4748.32 1938.14 1979.12 2212.32 2281.02
4751.22 1995.84 1958.06 2342.33 2253.51
4754.12 1940.21 1930.78 2205.89 2234.07
4757.02 1856.29 1909.8 2153.98 2203.16
4759.92 1932.89 1880.99 2249.6 2177.95
4762.83 1853.78 1889.19 2130.26 2165.28
4765.73 1880.89 1834.94 2115.97 2137.03
4768.63 1770.16 1784.28 2164.86 2133.58
4771.53 1701.79 1775.42 2119.91 2161.72
4774.43 1854.31 1834.17 2200.38 2181.66
4777.33 1946.42 1888.02 2224.68 2167.28
4780.24 1863.32 1920.17 2076.77 2171.37
4783.14 1950.76 1907.88 2212.66 2164.09
4786.04 1909.55 1895.97 2202.83 2183.66
4788.94 1827.61 1884.36 2135.47 2173.32
4791.84 1915.92 1874.5 2181.66 2163.4
4794.74 1879.96 1886.86 2173.07 2174.37
4797.64 1864.71 1879.38 2168.39 2170.58
4800.54 1893.47 1880 2170.27 2164.51
4803.45 1881.83 1883.34 2154.86 2161.97
4806.35 1874.72 1857.9 2160.77 2133.27
4809.25 1817.17 1854.19 2084.16 2127.03
4812.15 1870.68 1813.06 2136.16 2078.16
4815.05 1751.32 1820.58 2014.16 2098.72
4817.95 1839.74 1790.79 2145.84 2081.09
4820.85 1781.31 1792.84 2083.28 2081.87
4823.75 1757.47 1763.97 2016.49 2045.7
4826.65 1753.14 1746.11 2037.33 2023.65
4829.55 1727.73 1749.45 2017.14 2040.33
4832.45 1767.47 1736.2 2066.54 2037.33
4835.35 1713.41 1766.38 2028.3 2074.31
4838.25 1818.27 1772.58 2128.09 2089.87
4841.15 1786.07 1779.14 2113.22 2079.08
4844.05 1733.08 1735.09 1995.94 2044.73
4846.95 1686.13 1714.33 2025.01 2020.59
4849.85 1723.79 1722.64 2040.81 2048.71
4852.75 1758 1701.57 2080.31 2054.27
4855.65 1622.93 1716 2041.68 2074.01
4858.55 1767.09 1708.93 2100.04 2062.47
4861.45 1736.78 1753.83 2045.68 2058.91
4864.35 1757.63 1730.63 2031 2039.13
4867.25 1697.47 1746.75 2040.71 2038.42
4870.15 1785.16 1739.24 2043.55 2042.29
4873.05 1735.1 1714.1 2042.61 2021.8
4875.95 1622.03 1683.36 1979.24 2012.91
4878.84 1692.95 1664.49 2016.87 1987.65
4881.74 1678.48 1721.19 1966.83 2003.5
4884.64 1792.15 1744.23 2026.81 2011.62
4887.54 1762.08 1754.89 2041.24 2012.54
4890.44 1710.44 1725.64 1969.59 1986.47
4893.34 1704.4 1696.34 1948.59 1971.72
4896.24 1674.17 1660.24 1996.98 1933.65
4899.14 1602.14 1583.17 1855.39 1865.62
4902.03 1473.2 1549.82 1744.51 1824.14
4904.93 1574.13 1416.73 1872.51 1651.85
4907.83 1202.86 1518.11 1338.52 1773.36
4910.73 1777.33 1571.99 2109.06 1855.77
4913.63 1735.8 1770.06 2119.74 2093.54
4916.53 1797.05 1665.93 2051.82 1956.8
4919.42 1464.96 1577.88 1698.84 1831
4922.32 1471.64 1445.86 1742.34 1702.16
4925.22 1400.98 1382.78 1665.29 1669.53
4928.12 1275.71 1364 1600.96 1638.42
4931.01 1415.29 1334.35 1649 1590.54
4933.91 1312.06 1335.96 1521.67 1557.26
4936.81 1280.54 1298.52 1501.11 1518.64
4939.71 1302.97 1301.11 1533.15 1507.15
4942.6 1319.8 1261.74 1487.18 1508.16
4945.5 1162.44 1257.19 1504.15 1512.12
4948.4 1289.34 1220.85 1545.02 1535.08
4951.3 1210.78 1285.29 1556.06 1563.42
4954.19 1355.75 1289.06 1589.17 1571.13
4957.09 1300.66 1327.57 1568.16 1576.36
4959.99 1326.29 1324.98 1571.75 1571.51
4962.88 1348 1308.27 1574.63 1555.45
4965.78 1250.51 1321.87 1519.96 1566.23
4968.68 1367.09 1328.46 1604.12 1580.79
4971.57 1367.77 1370.82 1618.29 1620.1
4974.47 1377.59 1358.44 1637.88 1616.76
4977.37 1329.95 1366.12 1594.11 1638.14
4980.26 1390.82 1339.7 1682.44 1607.67
4983.16 1298.33 1365.95 1546.47 1624.1
4986.06 1408.71 1370.34 1643.4 1624.14
4988.95 1403.97 1435.24 1682.55 1689.82
4991.85 1493.05 1458.41 1743.52 1713.41
4994.75 1478.21 1508.43 1714.18 1763.15
4997.64 1554.04 1496.79 1831.76 1754.61
5000.54 1458.11 1467.26 1717.88 1768.97
5003.43 1389.65 1413.56 1757.28 1750.48
5006.33 1392.92 1464.41 1776.29 1826.48
5009.22 1610.66 1539.01 1945.87 1871.39
5012.12 1613.46 1664.37 1892 1996.01
5015.02 1768.99 1993.73 2150.17 2410.38
5017.91 2598.76 2015.93 3188.98 2446.47
5020.81 1680.03 1953.46 2000.27 2366.76
5023.7 1581.59 1614.95 1911.03 1941.4
5026.6 1583.22 1634.78 1912.91 1965.72
5029.49 1739.53 1664.88 2073.21 1992.5
5032.39 1671.89 1661.08 1991.39 2013.56
5035.28 1571.81 1658.52 1976.07 2005.04
5038.18 1731.85 1645.6 2047.65 1983.45
5041.07 1633.13 1670.06 1926.63 1975.62
5043.97 1645.2 1640.96 1952.58 1952.67
5046.86 1644.56 1656.51 1978.82 1983.64
5049.76 1679.78 1650.99 2019.52 2037.63
5052.65 1628.63 1647.25 2114.54 2024.95
5055.54 1633.34 1657.24 1940.78 2023.8
5058.44 1709.76 1626.31 2016.09 1975.88
5061.33 1535.84 1647.87 1970.76 2005.64
5064.23 1698.02 1648.08 2030.08 2009.58
5067.12 1710.36 1713.36 2027.9 2039.34
5070.02 1731.71 1685.06 2060.03 2044.88
5072.91 1613.12 1663.54 2046.7 2076.07
5075.8 1645.81 1625.49 2121.49 2079
5078.7 1617.54 1633.49 2068.8 2086.63
5081.59 1637.13 1678.88 2069.59 2091.09
5084.48 1781.96 1723.06 2134.87 2090.19
5087.38 1750.08 1778.62 2066.11 2107.63
5090.27 1803.82 1807.94 2121.92 2136.99
5093.16 1869.92 1807.39 2222.95 2187.88
5096.06 1748.43 1811.12 2218.76 2187.47
5098.95 1815.02 1788.81 2120.69 2152.59
5101.84 1802.96 1814.15 2118.33 2128.29
5104.74 1824.47 1791.02 2145.85 2165.7
5107.63 1745.61 1795.57 2232.9 2173.66
5110.52 1816.63 1772.52 2142.22 2158.29
5113.42 1755.32 1793.93 2099.75 2144.74
5116.31 1809.85 1786.03 2192.25 2145.39
5119.2 1792.91 1804.17 2144.16 2157.76
5122.09 1809.74 1800.77 2136.85 2138.68
5124.99 1799.65 1800.92 2135.02 2131.66
5127.88 1793.37 1811.01 2123.11 2154.7
5130.77 1840.03 1800.49 2205.97 2183.9
5133.66 1768.08 1837 2222.62 2245.28
5136.56 1902.89 1840.28 2307.24 2248.06
5139.45 1849.87 1889.53 2214.32 2277.8
5142.34 1915.82 1879.63 2311.85 2261.82
5145.23 1873.2 1925.33 2259.27 2303.67
5148.12 1986.97 1969.93 2339.88 2338.8
5151.02 2049.63 2001.67 2417.26 2359.94
5153.91 1968.4 1997.06 2322.68 2371.13
5156.8 1973.15 1951.98 2373.46 2374.91
5159.69 1914.38 1940.65 2428.59 2383.93
5162.58 1934.41 1926.9 2349.74 2371.57
5165.47 1931.92 1952.53 2336.37 2354.23
5168.36 1991.26 1941.37 2376.57 2331.02
5171.25 1900.93 1976.73 2280.12 2356.8
5174.15 2038 1963.82 2413.72 2347.65
5177.04 1952.53 1990.6 2349.11 2377.07
5179.93 1981.26 1946.47 2368.37 2401.19
5182.82 1905.62 1932.69 2486.08 2453.47
5185.71 1911.18 1900.03 2505.95 2482.38
5188.6 1883.28 1844.01 2455.12 2457.23
5191.49 1737.57 1830.17 2410.61 2431.21
5194.38 1869.64 1831.86 2427.91 2444.74
5197.27 1888.38 1833.74 2495.71 2483.34
5200.16 1743.2 1866.6 2526.4 2545.95
5203.05 1968.21 1879.09 2615.73 2557.69
5205.94 1925.86 1913.15 2530.94 2529.82
5208.83 1845.36 1897.25 2442.79 2501.95
5211.72 1920.53 1863.94 2532.13 2457.68
5214.61 1825.92 1854.42 2398.13 2493.34
5217.5 1816.81 1826.72 2549.75 2459.69
5220.39 1837.43 1846.21 2431.2 2489.53
5223.28 1884.38 1884.33 2487.65 2485.98
5226.17 1931.18 1918.14 2539.09 2535.39
5229.06 1938.85 1939.6 2579.42 2546.47
5231.95 1948.78 1881.47 2520.91 2507.53
5234.84 1756.79 1834.13 2422.25 2487.73
5237.73 1796.82 1806.27 2520.04 2454.55
5240.62 1865.2 1792.32 2421.35 2442.59
5243.51 1714.94 1808.96 2386.38 2411.76
5246.4 1846.74 1822.26 2427.54 2443.78
5249.28 1905.1 1841.82 2517.42 2462.25
5252.17 1773.63 1830.77 2441.78 2454.82
5255.06 1813.59 1794.98 2405.25 2407.17
5257.95 1797.72 1838.77 2374.49 2412.07
5260.84 1905 1827.04 2456.48 2390.25
5263.73 1778.39 1875.22 2339.78 2440.91
5266.62 1942.27 1810.51 2526.46 2406.76
5269.5 1710.85 1829.46 2354.04 2389.47
5272.39 1835.25 1850.22 2287.92 2362.29
5275.28 2004.55 1862.22 2444.93 2339.95
5278.17 1746.86 1839.03 2287.01 2330.34
5281.06 1765.68 1760.52 2259.1 2278.29
5283.94 1769.03 1797.24 2288.77 2262.89
5286.83 1857.01 1823.78 2240.81 2303.66
5289.72 1845.31 1878.3 2381.4 2313.96
5292.61 1932.58 1835.01 2319.68 2318.3
5295.49 1727.12 1847.25 2253.84 2291.96
5298.38 1882.04 1751.11 2302.37 2241.62
5301.27 1644.15 1761.41 2168.64 2266.98
5304.16 1758.03 1696.87 2329.92 2253.98
5307.04 1688.44 1725.06 2263.38 2272.31
5309.93 1728.73 1685.26 2223.64 2250.84
5312.82 1638.61 1707.4 2265.49 2250.42
5315.7 1754.86 1654.2 2262.14 2246.37
5318.59 1569.14 1625.93 2211.48 2237.54
5321.48 1553.8 1606.93 2238.99 2213.88
5324.36 1697.86 1623.98 2191.17 2191.18
5327.25 1620.28 1657.63 2143.39 2174.92
5330.14 1654.74 1612.3 2190.21 2134.17
5333.02 1561.88 1585.94 2068.9 2101.83
5335.91 1541.19 1544.43 2046.37 2051.71
5338.79 1530.22 1537.71 2039.86 2038.45
5341.68 1541.71 1539.72 2029.12 2049.14
5344.57 1547.25 1516.79 2078.43 2010.73
5347.45 1461.42 1523.76 1924.63 2012.69
5350.34 1562.61 1503.61 2035 1975.79
5353.22 1486.8 1502.18 1967.73 1967.34
5356.11 1457.14 1441.67 1899.28 1896.31
5358.99 1381.09 1417.5 1821.91 1861.18
5361.88 1414.27 1378.26 1862.36 1806.01
5364.77 1339.41 1367.48 1733.74 1774.26
5367.65 1348.77 1348.24 1726.68 1750.16
5370.54 1356.55 1369.9 1790.05 1770.94
5373.42 1404.38 1376.26 1796.09 1773.06
5376.31 1367.85 1355.83 1733.03 1776.62
5379.19 1295.27 1333.58 1800.74 1760.8
5382.08 1337.63 1335.16 1748.62 1785.29
5384.96 1372.58 1375.97 1806.52 1800.42
5387.84 1417.69 1398.79 1846.12 1833.4
5390.73 1406.1 1398.09 1847.57 1804.18
5393.61 1370.47 1377.01 1718.86 1786.79
5396.5 1354.47 1364.68 1793.92 1756.77
5399.38 1369.09 1376.85 1757.53 1778.47
5402.27 1406.98 1402.94 1783.96 1796.07
5405.15 1432.74 1375.34 1846.71 1827.31
5408.03 1286.31 1339.69 1851.24 1823.79
5410.92 1300 1328.93 1773.42 1828.96
5413.8 1400.48 1366.08 1862.22 1825.85
5416.68 1397.77 1415.85 1841.91 1874.52
5419.57 1449.31 1440.03 1919.43 1899.34
5422.45 1473 1444.15 1936.67 1913.36
5425.34 1410.15 1404.19 1883.97 1910.47
5428.22 1329.42 1416.08 1910.76 1943.78
5431.1 1508.66 1447.22 2036.61 1984.44
5433.98 1503.58 1470.38 2005.94 2023.27
5436.87 1398.9 1460.78 2027.26 1994.59
5439.75 1479.87 1445.7 1950.57 1977.98
5442.63 1458.34 1449.45 1956.12 1975.57
5445.52 1410.15 1446.72 2020.01 1973.31
5448.4 1471.67 1471.41 1943.81 2004.6
5451.28 1532.43 1510.54 2049.98 2023.97
5454.16 1527.51 1559.05 2078.1 2091.59
5457.05 1617.22 1568.14 2146.69 2092.62
5459.93 1559.7 1578.53 2053.07 2087.26
5462.81 1558.66 1557.42 2062.02 2051.54
5465.69 1553.9 1539.42 2039.54 2042.28
5468.57 1505.7 1557.19 2025.28 2061.91
5471.46 1611.97 1549.45 2120.92 2078.52
5474.34 1530.67 1561.41 2089.35 2083.25
5477.22 1541.6 1577.87 2039.47 2101.33
5480.1 1661.33 1569.95 2175.16 2080.42
5482.98 1506.94 1580.15 2026.64 2088.89
5485.86 1572.17 1569.23 2064.87 2080.3
5488.74 1628.58 1570.74 2149.39 2075.71
5491.63 1511.46 1547.83 2012.88 2051.65
5494.51 1503.45 1479.05 1992.67 2031.71
5497.39 1422.22 1498.29 2089.57 2051.26
5500.27 1569.2 1492.43 2071.53 2051.32
5503.15 1485.85 1507.09 1992.86 2009.25
5506.03 1466.23 1439.76 1963.35 1972.98
5508.91 1367.18 1423.87 1962.73 1942.61
5511.79 1438.19 1436.84 1901.76 1969.9
5514.67 1505.15 1450.73 2045.22 1949.85
5517.55 1408.84 1390.41 1902.57 1946.7
5520.43 1257.22 1368.43 1892.3 1896.29
5523.31 1439.23 1375 1894 1887.46
5526.19 1428.54 1404.49 1876.08 1855
5529.07 1345.7 1390.41 1794.91 1837.42
5531.95 1396.98 1319.14 1841.25 1808.98
5534.83 1214.75 1307.09 1790.77 1805.93
5537.71 1309.55 1249.75 1785.76 1804.86
5540.59 1224.96 1245.31 1838.05 1804.98
5543.47 1201.43 1203.02 1791.14 1800.29
5546.35 1182.66 1242.7 1771.69 1788.06
5549.23 1344 1280.83 1801.37 1783.49
5552.11 1315.83 1330.43 1777.42 1792.8
5554.99 1331.47 1321.16 1799.6 1777.68
5557.87 1316.19 1296.9 1756.02 1751.83
5560.74 1243.05 1229.2 1699.87 1709.69
5563.62 1128.37 1251.56 1673.17 1769.32
5566.5 1383.28 1237.9 1934.92 2015.35
5569.38 1202.05 1215.88 2437.95 2375.59
5572.26 1062.31 1064.2 2753.89 2663.95
5575.14 928.235 1169.89 2800 2591.67
5578.02 1519.12 1283.96 2221.12 2130.63
5580.89 1404.54 1435.69 1370.76 1596.62
5583.77 1383.43 1412.34 1197.98 1343.15
5586.65 1449.06 1347.54 1460.72 1455.5
5589.53 1210.12 1411.83 1707.82 1708.52
5592.4 1576.3 1442.88 1957.03 1831.76
5595.28 1542.23 1582.44 1830.44 1922
5598.16 1628.8 1564.75 1978.52 1907.8
5601.04 1523.22 1597.62 1914.43 1988.33
5603.91 1640.85 1603.49 2072.04 2038.69
5606.79 1646.41 1634.65 2129.6 2119.7
5609.67 1616.68 1627.69 2157.44 2134.69
5612.55 1619.97 1623.26 2117.04 2138.96
5615.42 1633.12 1644.99 2142.4 2158.28
5618.3 1681.87 1667.43 2215.41 2193.74
5621.18 1687.31 1615.65 2223.41 2194.46
5624.05 1477.76 1650.67 2144.56 2225.79
5626.93 1786.95 1688.16 2309.39 2263.75
5629.81 1799.76 1786.91 2337.3 2333.86
5632.68 1774.01 1783.57 2354.9 2340.51
5635.56 1776.94 1786.24 2329.34 2349.77
5638.43 1807.77 1776.41 2365.07 2339.17
5641.31 1744.53 1774.64 2323.1 2346.76
5644.19 1771.6 1792.81 2352.1 2362.37
5647.06 1862.31 1793.16 2411.91 2362.13
5649.94 1745.57 1813.51 2322.37 2388.17
5652.81 1832.66 1763.54 2430.24 2348.11
5655.69 1712.39 1797.57 2291.72 2391.89
5658.56 1847.66 1800.16 2453.72 2387.99
5661.44 1840.44 1792.9 2418.54 2370.97
5664.31 1690.59 1793.56 2240.64 2378.23
5667.19 1849.65 1774.38 2475.51 2353.81
5670.06 1782.89 1727.84 2345.29 2347.6
5672.94 1550.99 1702.33 2221.99 2306.98
5675.81 1773.13 1695.32 2353.65 2307.32
5678.69 1761.85 1775.18 2346.33 2361.69
5681.56 1790.56 1736.03 2385.1 2366.69
5684.44 1655.69 1764.18 2368.64 2383.99
5687.31 1846.31 1741.77 2398.22 2333.87
5690.19 1723.33 1781.22 2234.75 2326.09
5693.06 1774.03 1790.26 2345.3 2366.91
5695.93 1873.41 1812.62 2520.67 2413.12
5698.81 1790.42 1797.56 2373.38 2385.86
5701.68 1728.85 1752.18 2263.54 2307.31
5704.56 1737.26 1737.36 2285.02 2289.02
5707.43 1745.98 1773.84 2318.5 2336.79
5710.3 1838.28 1813.56 2406.84 2384.93
5713.18 1856.41 1839.44 2429.45 2435.34
5716.05 1823.62 1781.19 2469.73 2421.28
5718.92 1663.53 1778.46 2364.66 2409.65
5721.8 1848.24 1782.33 2394.54 2401.96
5724.67 1835.21 1833.88 2446.67 2411.49
5727.54 1818.18 1804.78 2393.26 2393.23
5730.41 1760.96 1773.35 2339.76 2406.84
5733.29 1740.91 1768.05 2487.52 2404.12
5736.16 1802.26 1777.88 2385.09 2475.18
5739.03 1790.47 1805.57 2552.94 2449.44
5741.9 1823.99 1763.87 2410.29 2446.18
5744.78 1677.17 1812.78 2375.31 2426.1
5747.65 1937.2 1776 2492.71 2421.16
5750.52 1713.64 1823.06 2395.46 2424.41
5753.39 1818.35 1796.49 2385.05 2424.29
5756.26 1857.46 1861.3 2492.37 2454.99
5759.14 1908.09 1831.98 2487.55 2477.85
5762.01 1730.4 1783.83 2453.62 2452.19
5764.88 1712.99 1773.32 2415.41 2443.84
5767.75 1876.56 1807.75 2462.48 2422.7
5770.62 1833.7 1817.36 2390.22 2385.18
5773.49 1741.82 1774.48 2302.84 2346.25
5776.36 1747.92 1774.15 2345.7 2339.83
5779.23 1832.72 1787.89 2370.96 2413.84
5782.1 1783.04 1750.95 2524.87 2408.4
5784.98 1637.09 1751.19 2329.38 2423.31
5787.85 1833.44 1760.62 2415.69 2371.13
5790.72 1811.32 1747.22 2368.32 2352.28
5793.59 1596.91 1686.03 2272.85 2330.84
5796.46 1649.87 1692.53 2351.36 2347.53
5799.33 1830.81 1745.79 2418.38 2356.73
5802.2 1756.7 1734.46 2300.44 2355.5
5805.07 1615.86 1694.67 2347.68 2353.56
5807.94 1711.45 1685.57 2412.58 2327.35
5810.81 1729.38 1697.07 2221.8 2272.15
5813.68 1650.37 1668.45 2182.07 2246.76
5816.55 1625.59 1660.23 2336.41 2248.96
5819.41 1704.74 1628.21 2228.4 2273.56
5822.28 1554.29 1638.9 2255.85 2219.12
5825.15 1657.68 1624.77 2173.12 2215.39
5828.02 1662.34 1661.95 2217.2 2203.93
5830.89 1665.83 1665.77 2221.46 2212.32
5833.76 1669.13 1656.63 2198.3 2196.6
5836.63 1634.93 1654.68 2170.04 2202.03
5839.5 1659.97 1587.37 2237.74 2170.25
5842.37 1467.21 1586.26 2102.98 2155.11
5845.23 1631.61 1562.16 2124.62 2113.88
5848.1 1587.67 1578.33 2114.05 2089.29
5850.97 1515.73 1549.48 2029.21 2080.21
5853.84 1545.03 1488.9 2097.37 2056.89
5856.71 1405.94 1530.26 2044.1 2121.4
5859.57 1639.82 1550.36 2222.73 2159.84
5862.44 1605.32 1525.33 2212.68 2185.75
5865.31 1330.86 1518.11 2121.85 2169.52
5868.18 1618.16 1498.1 2174.02 2112.23
5871.04 1545.27 1571.47 2040.83 2068.51
5873.91 1550.98 1564.18 1990.68 2029
5876.78 1596.31 1589.65 2055.49 2063.94
5879.65 1621.68 1606.64 2145.65 2195.49
5882.51 1601.94 1556.06 2385.33 2284.01
5885.38 1444.55 1543.32 2321.04 2409.08
5888.25 1583.46 1399.42 2520.86 2330.8
5891.11 1170.24 1408.92 2150.5 2204.57
5893.98 1473.07 1300.29 1942.36 1964.25
5896.84 1257.55 1415.42 1799.88 1824.92
5899.71 1515.64 1429.73 1732.53 1776.83
5902.58 1516.01 1526.41 1798.08 1790.92
5905.44 1547.57 1528.44 1842.15 1854.89
5908.31 1521.75 1563.68 1924.44 1952.08
5911.17 1621.73 1634.45 2089.66 2100.74
5914.04 1759.87 1666.09 2288.14 2153.11
5916.91 1616.66 1652.03 2081.52 2139.8
5919.77 1579.57 1614.12 2049.74 2081.98
5922.64 1646.13 1637.05 2114.68 2139.61
5925.5 1685.45 1598.4 2254.42 2191.27
5928.37 1463.62 1560.54 2204.69 2246.54
5931.23 1532.55 1543.82 2280.51 2206.16
5934.1 1635.28 1619.12 2133.29 2193.68
5936.96 1689.52 1648.02 2167.25 2137.92
5939.83 1619.27 1665.51 2113.22 2137.32
5942.69 1687.74 1613.79 2131.47 2152.01
5945.55 1534.37 1622.44 2211.33 2188.69
5948.42 1645.2 1641.18 2223.25 2251.58
5951.28 1743.97 1711.91 2320.16 2264.52
5954.15 1746.56 1752.55 2250.15 2277.27
5957.01 1767.12 1777.87 2261.5 2268.32
5959.87 1819.93 1714.15 2293.33 2252.04
5962.74 1555.39 1699.18 2201.28 2220.61
5965.6 1722.22 1669.78 2167.21 2219.5
5968.47 1731.72 1740.69 2289.99 2273.98
5971.33 1768.14 1756.68 2364.75 2331.32
5974.19 1770.18 1766.34 2339.21 2325.28
5977.05 1760.71 1772.69 2271.87 2318.93
5979.92 1787.18 1790.25 2345.69 2319.85
5982.78 1822.86 1780.81 2341.98 2299.86
5985.64 1732.4 1762.89 2211.91 2277.9
5988.51 1733.42 1709.29 2279.8 2275.29
5991.37 1662.05 1732.38 2334.15 2322.32
5994.23 1801.67 1751.63 2353.02 2346.72
5997.09 1791.15 1767.89 2353 2323.21
5999.96 1710.83 1746.81 2263.63 2297.9
6002.82 1738.45 1744.31 2277.09 2286.8
6005.68 1783.65 1763.64 2319.69 2289.2
6008.54 1768.81 1791.09 2270.81 2296.06
6011.4 1820.8 1787.09 2297.67 2293.06
6014.26 1771.64 1793.39 2310.69 2293.76
6017.13 1787.72 1727.26 2272.91 2279.99
6019.99 1622.41 1717.39 2256.36 2285.85
6022.85 1742.05 1714.23 2328.29 2291.67
6025.71 1778.23 1750.75 2290.37 2282.02
6028.57 1731.96 1757.03 2227.39 2265.96
6031.43 1760.91 1745.41 2280.12 2278.62
6034.29 1743.35 1707.14 2328.34 2295.86
6037.15 1617.16 1704.4 2279.11 2287.29
6040.01 1752.68 1673.92 2254.41 2232.72
6042.87 1651.92 1697.46 2164.64 2213.77
6045.73 1687.77 1658.4 2222.25 2177.71
6048.59 1635.5 1697.01 2146.23 2208.77
6051.45 1767.76 1659.83 2257.84 2195.37
6054.31 1576.22 1700.03 2182.04 2232.9
6057.17 1756.1 1651.58 2258.82 2200.48
6060.03 1622.42 1696 2160.59 2211.4
6062.89 1709.48 1678.11 2214.79 2193.66
6065.75 1702.43 1672.88 2205.6 2175.62
6068.61 1606.74 1657.46 2106.48 2164.67
6071.47 1663.22 1604.05 2181.92 2154.36
6074.33 1542.19 1613.32 2174.69 2177.86
6077.19 1634.54 1610.04 2176.98 2166.43
6080.05 1653.39 1635.97 2147.63 2145.73
6082.9 1619.98 1569.02 2112.58 2101.54
6085.76 1433.69 1526.74 2044.42 2046.83
6088.62 1526.57 1519.88 1983.49 2011.68
6091.48 1599.37 1540.24 2007.14 2036.05
6094.34 1494.78 1513.76 2117.53 2003.38
6097.2 1447.13 1482.48 1885.48 2007.63
6100.05 1505.53 1467.26 2019.88 1937.97
6102.91 1449.12 1457.91 1908.56 1923.07
6105.77 1419.07 1405.79 1840.77 1842.38
6108.63 1349.18 1358.95 1777.81 1786.39
6111.48 1308.61 1321.28 1740.59 1737.08
6114.34 1306.04 1327 1692.84 1738.24
6117.2 1366.36 1319.35 1781.3 1715.27
6120.05 1285.66 1283.06 1671.67 1672.96
6122.91 1197.16 1233.77 1565.9 1614.15
6125.77 1218.5 1172.25 1604.89 1596.19
6128.62 1101.1 1112.41 1617.79 1585.16
6131.48 1017.64 1098.37 1532.79 1587.08
6134.34 1176.37 1127.22 1610.67 1587.21
6137.19 1187.66 1150.65 1618.17 1563.29
6140.05 1087.91 1087.55 1461.04 1524.02
6142.91 987.085 1029.55 1492.86 1434.41
6145.76 1013.66 1019.12 1349.34 1409.3
6148.62 1056.63 964.504 1385.7 1338.92
6151.47 823.225 917.281 1281.72 1323.15
6154.33 871.988 890.507 1302.02 1283.24
6157.18 976.31 951.425 1265.99 1299.18
6160.04 1005.98 961.251 1329.53 1277.64
6162.89 901.466 953.148 1237.41 1290.89
6165.75 952.001 912.071 1305.73 1255.49
6168.6 882.745 932.801 1223.35 1263.25
6171.46 963.657 918.375 1260.69 1230.55
6174.31 908.723 899.283 1207.62 1172.44
6177.17 825.469 816.592 1049.03 1128.05
6180.02 715.585 810.521 1127.5 1111.3
6182.88 890.51 819.128 1157.39 1146.27
6185.73 851.29 838.679 1153.93 1129.91
6188.58 774.238 798.756 1078.41 1093.7
6191.44 770.741 730.102 1048.75 1064.1
6194.29 645.328 712.533 1065.16 1052.65
6197.15 721.529 708.342 1044.03 1068.25
6200 758.168 740.318 1095.55 1060.02
6202.85 741.257 749.711 1040.47 1056.42
6205.71 749.707 702.442 1033.23 1033.05
6208.56 616.361 700.121 1025.46 1018.17
6211.41 734.294 691.345 995.824 1003.33
6214.26 723.379 728.39 988.722 997.955
6217.12 727.496 705.258 1009.32 979.128
6219.97 664.899 710.204 939.341 986.971
6222.82 738.218 687.499 1012.25 956.927
6225.67 659.381 692.56 919.187 986.241
6228.53 680.08 674.57 1027.28 1014.32
6231.38 684.25 685.029 1096.48 1063.15
6234.23 690.758 696.812 1065.68 1056.79
6237.08 715.429 691.83 1008.2 990.394
6239.93 669.304 698.97 897.301 921.085
6242.79 712.178 683.431 857.757 906.015
6245.64 668.81 712.719 962.986 930.911
6248.49 757.171 719.908 971.989 976.877
6251.34 733.745 721.342 995.654 1026.89
6254.19 673.111 704.359 1113.01 1075.73
6257.04 706.221 635.555 1118.52 1099.45
6259.89 527.332 663.493 1066.82 1090.74
6262.74 756.925 612.528 1086.87 1051.42
6265.59 553.328 634.28 1000.57 1046.91
6268.44 592.587 634.791 1053.3 1034.82
6271.29 758.458 692.003 1050.59 1036.93
6274.14 724.964 735.073 1006.91 1042.73
6276.99 721.796 707.346 1070.7 1100.59
6279.84 675.279 674.262 1224.15 1182.41
6282.69 625.712 685.083 1252.39 1224.47
6285.54 754.258 740.701 1196.86 1252.55
6288.39 842.132 828.254 1308.4 1539.65
6291.24 888.37 697.097 2113.69 2181.58
6294.09 360.788 721.518 3122.66 2908.1
6296.94 915.396 768.311 3487.95 3071.44
6299.79 1028.75 668.876 2603.72 2290.72
6302.64 62.4827 687.337 780.481 1111.53
6305.49 970.78 677.623 -49.6011 237.603
6308.33 999.606 977.31 -18.0712 109.445
6311.18 961.545 1000.66 396.008 385.19
6314.03 1040.84 1010.43 777.634 705.878
6316.88 1028.91 1017.45 943.991 948.522
6319.73 982.597 1044.83 1123.94 1161.61
6322.57 1122.98 1045.19 1416.89 1333.76
6325.42 1029.99 1071.95 1460.44 1459.16
6328.27 1062.88 1062.97 1500.14 1488.43
6331.12 1096.05 1102.55 1504.71 1522.36
6333.96 1148.73 1133.23 1562.23 1537.05
6336.81 1154.91 1115.17 1544.2 1560.17
6339.66 1041.87 1120.91 1574.06 1572.84
6342.5 1165.94 1135.61 1600.27 1619.71
6345.35 1199.02 1169.21 1684.8 1650.83
6348.2 1142.68 1202.53 1667.42 1714.9
6351.04 1265.91 1113.33 1792.49 1779.88
6353.89 931.416 1166.6 1879.74 1995.69
6356.74 1302.47 1143.45 2314.84 2177.62
6359.58 1196.46 1113.29 2338.28 2256.72
6362.43 840.958 1132.58 2117.03 2064.92
6365.27 1360.31 1165.34 1739.44 1725.49
6368.12 1294.74 1303.09 1319.99 1448.19
6370.97 1254.21 1298.14 1285.13 1391.85
6373.81 1345.47 1314.88 1570.44 1514.45
6376.66 1344.95 1348.69 1687.78 1656
6379.5 1355.65 1360.74 1709.79 1730.54
6382.35 1381.61 1349.9 1794.05 1787.83
6385.19 1312.44 1389.85 1859.65 1863.93
6388.04 1475.51 1377.55 1938.08 1879.96
6390.88 1344.7 1419.95 1842.16 1891.35
6393.72 1439.64 1408.67 1893.8 1893.79
6396.57 1441.66 1393.82 1945.41 1919.38
6399.41 1300.17 1377.11 1918.93 1956.87
6402.26 1389.51 1370.66 2006.27 1962.09
6405.1 1422.29 1415.91 1961.08 1984.23
6407.94 1435.94 1451.14 1985.36 1980.73
6410.79 1495.19 1434.56 1995.77 1995.56
6413.63 1372.55 1414.31 2005.56 2004.7
6416.47 1375.19 1402.33 2012.78 2007.52
6419.32 1459.25 1418.71 2004.22 1986.59
6422.16 1421.7 1443.09 1942.76 1978.17
6425 1448.33 1457.89 1987.52 1979.14
6427.85 1503.64 1492.89 2007.15 2014.96
6430.69 1526.71 1501.2 2050.22 2016.56
6433.53 1473.25 1502.36 1992.32 2019.64
6436.37 1507.13 1482.58 2016.39 1993.23
6439.21 1467.36 1513.43 1970.99 2030.72
6442.06 1565.8 1502.67 2104.78 2031.5
6444.9 1474.84 1487.35 2018.72 2030.44
6447.74 1421.43 1472.68 1967.81 2022.23
6450.58 1521.77 1466.28 2080.15 2059.97
6453.42 1455.66 1446.61 2131.94 2094.04
6456.26 1362.4 1422.37 2070.04 2091.49
6459.11 1449.05 1409.47 2072.48 2058.93
6461.95 1416.97 1389.12 2034.28 2068.32
6464.79 1301.34 1368.75 2098.19 2045.02
6467.63 1387.93 1318.59 2002.59 2001.01
6470.47 1266.5 1339.54 1902.26 1964.19
6473.31 1364.19 1355.9 1987.71 1966.45
6476.15 1437.01 1441.75 2009.4 1992.39
6478.99 1524.03 1497.7 1980.07 1988.11
6481.83 1532.05 1517.7 1974.87 1964.79
6484.67 1497.01 1500.64 1939.45 1969.01
6487.51 1472.86 1489.48 1992.72 2001.98
6490.35 1498.57 1465.47 2073.77 2058.33
6493.19 1424.97 1484.26 2108.5 2120.62
6496.03 1529.23 1505.69 2179.58 2130.89
6498.87 1562.86 1528.04 2104.58 2098.69
6501.71 1492.02 1504.88 2011.91 2016.05
6504.54 1459.76 1431.12 1931.66 1959.88
6507.38 1341.59 1428.83 1936.07 1931.81
6510.22 1485.13 1406.28 1927.72 1938.87
6513.06 1392.12 1409.84 1952.83 1963.74
6515.9 1352.26 1424.17 2010.69 2007.49
6518.74 1528.14 1459.94 2058.95 2024.7
6521.57 1499.42 1497.6 2004.46 2023.92
6524.41 1465.25 1485.93 2008.36 2009.27
6527.25 1493.12 1418.5 2015 2009.5
6530.09 1297.12 1463.78 2005.16 2028.09
6532.92 1601.09 1470.81 2064.12 1999.76
6535.76 1514.21 1450.33 1930 1931.93
6538.6 1235.69 1419.61 1801.69 1896.81
6541.44 1508.92 1388.17 1958.75 1895.37
6544.27 1419.89 1465.22 1925.66 1955.91
6547.11 1466.85 1415.21 1983.32 1981.55
6549.95 1358.9 1409.3 2035.66 1986.32
6552.78 1402.13 1325.13 1939.98 1959.16
6555.62 1214.37 1327.82 1901.83 1880.01
6558.45 1366.96 1324.38 1798.22 1843.5
6561.29 1391.79 1345.51 1830.44 1826.07
6564.13 1277.76 1305.74 1849.56 1833.48
6566.96 1247.67 1274.93 1820.45 1788.54
6569.8 1299.37 1240.49 1695.61 1769.28
6572.63 1174.43 1290.5 1791.78 1765.38
6575.47 1397.69 1273.36 1808.76 1811.47
6578.3 1247.97 1312.91 1833.88 1809.19
6581.14 1293.07 1262.41 1784.94 1799.83
6583.97 1246.2 1310.22 1780.66 1781.34
6586.81 1391.4 1295.54 1778.41 1779.12
6589.64 1249.02 1342.15 1778.28 1783.12
6592.48 1386.02 1313.57 1792.67 1764.01
6595.31 1305.67 1323.07 1721.07 1747.46
6598.14 1277.53 1314.03 1728.64 1759.25
6600.98 1358.88 1353.08 1828.04 1801.8
6603.81 1422.83 1322.88 1848.7 1796.12
6606.65 1186.92 1330.12 1711.61 1765.45
6609.48 1380.6 1291.45 1736.05 1716.85
6612.31 1306.83 1295.65 1702.89 1701.78
6615.14 1199.54 1236.6 1666.41 1704.6
6617.98 1203.43 1182.08 1744.5 1701.63
6620.81 1143.27 1223.51 1693.98 1726.97
6623.64 1323.84 1237.1 1742.43 1697.96
6626.48 1244.18 1253.61 1657.47 1718.93
6629.31 1192.8 1231.33 1756.9 1733.24
6632.14 1257.01 1267.12 1785.36 1769.51
6634.97 1351.54 1255.51 1766.28 1740.45
6637.8 1157.98 1294 1669.72 1729.45
6640.64 1372.47 1302.31 1752.33 1735.66
6643.47 1376.48 1348.39 1784.91 1742.09
6646.3 1296.22 1312.97 1689.04 1726.67
6649.13 1266.21 1269.34 1706.06 1678.15
6651.96 1245.6 1263.08 1639.36 1667.04
6654.79 1277.44 1237.5 1655.68 1630.85
6657.62 1189.46 1237.82 1597.5 1642.12
6660.45 1246.57 1240.2 1673.17 1665.4
6663.28 1284.58 1263.43 1725.53 1679.64
6666.11 1259.15 1275.99 1640.21 1667.4
6668.95 1284.25 1207.37 1636.45 1608.93
6671.78 1078.72 1176.2 1550.12 1605.51
6674.61 1165.65 1195.77 1629.96 1622.4
6677.43 1342.94 1262.46 1687.12 1663.44
6680.26 1278.79 1277.1 1673.22 1665.82
6683.09 1209.59 1264.84 1637.1 1660.27
6685.92 1306.14 1226.78 1670.49 1637.25
6688.75 1164.6 1246.24 1604.16 1635.62
6691.58 1267.97 1247.37 1632.21 1641.26
6694.41 1309.54 1261.37 1687.42 1676.03
6697.24 1206.59 1201.33 1708.44 1666.57
6700.07 1087.87 1199.45 1603.85 1667.13
6702.9 1303.89 1201.81 1689.1 1625.58
6705.72 1213.66 1262.66 1583.8 1647.36
6708.55 1270.43 1247.41 1669.19 1618.14
6711.38 1258.13 1252.02 1601.44 1644.73
6714.21 1227.5 1182.97 1663.55 1600.58
6717.04 1063.28 1156.62 1536.74 1581.91
6719.86 1179.07 1173.48 1545.42 1582.73
6722.69 1278.09 1209.28 1666.02 1578.56
6725.52 1170.67 1235.16 1524.25 1604.99
6728.34 1256.73 1205.9 1624.7 1576.17
6731.17 1190.31 1228.97 1579.56 1597.33
6734 1239.89 1182.1 1587.73 1592.39
6736.82 1116.11 1191.84 1609.88 1600.9
6739.65 1219.51 1173.53 1605.09 1572.84
6742.48 1184.95 1217.96 1503.55 1579.83
6745.3 1249.41 1217.96 1630.85 1575.1
6748.13 1219.53 1208.01 1590.9 1572.18
6750.95 1155.08 1200.03 1494.79 1556.41
6753.78 1225.47 1197.7 1583.55 1556.54
6756.6 1212.54 1204.79 1591.29 1584.77
6759.43 1176.35 1193.56 1579.46 1565.98
6762.26 1191.78 1190.1 1527.18 1553.65
6765.08 1202.16 1193.74 1554.31 1555.36
6767.9 1187.26 1203.54 1584.6 1571.38
6770.73 1221.2 1211.25 1575.22 1576.95
6773.55 1225.28 1231.53 1571.02 1578.94
6776.38 1248.12 1210.71 1590.59 1551.14
6779.2 1158.74 1195.81 1491.81 1531.7
6782.03 1180.57 1185.28 1512.7 1512.99
6784.85 1216.52 1201.91 1534.46 1535.67
6787.67 1208.65 1198.96 1559.85 1534.46
6790.5 1171.73 1184.86 1509.06 1518.11
6793.32 1174.21 1163.43 1485.43 1486.06
6796.14 1144.35 1120.9 1463.69 1483.32
6798.97 1044.14 1115.65 1500.83 1483.94
6801.79 1158.45 1103.93 1487.28 1469.5
6804.61 1109.19 1131.15 1420.39 1451.65
6807.43 1125.8 1127.84 1447.28 1441.66
6810.26 1148.53 1135.8 1457.3 1445.91
6813.08 1133.06 1126.85 1433.14 1428.16
6815.9 1098.95 1145.93 1394.05 1454.57
6818.72 1205.77 1166.53 1536.53 1516.25
6821.54 1194.86 1182.48 1618.17 1570.63
6824.37 1146.79 1155.49 1557.17 1585.07
6827.19 1124.82 1134.1 1579.88 1531.08
6830.01 1130.7 1115.42 1456.2 1485.4
6832.83 1090.73 1088.76 1420.14 1382.89
6835.65 1044.85 1092.1 1272.34 1351.77
6838.47 1140.73 1063.75 1362.82 1346.53
6841.29 1005.68 1087.39 1404.42 1341.21
6844.11 1115.76 1079.57 1256.37 1334.92
6846.93 1117.28 1143.3 1343.98 1334.88
6849.75 1196.88 1131.34 1404.29 1338.85
6852.57 1079.85 1112.08 1268.29 1338.46
6855.39 1059.5 1075.58 1342.81 1342.27
6858.21 1087.39 1085.67 1415.71 1376.25
6861.03 1110.11 1053.59 1370.25 1333.39
6863.85 963.267 1014.41 1214.21 1243.11
6866.67 969.849 926.34 1144.86 1131.01
6869.49 845.904 889 1033.97 1085.4
6872.31 851.246 850.823 1077.38 1050.99
6875.13 855.317 868.752 1041.63 1070.37
6877.94 899.694 920.169 1092.1 1106.78
6880.76 1005.5 938.727 1186.61 1126.28
6883.58 910.992 904.496 1100.14 1140
6886.4 797.001 884.703 1133.25 1125.01
6889.22 946.115 842.309 1141.63 1132.97
6892.03 783.812 887.027 1124.03 1129.15
6894.85 931.154 916.091 1121.77 1156.65
6897.67 1033.31 982.644 1224.14 1180.22
6900.49 983.471 955.233 1194.76 1212.39
6903.3 848.922 889.443 1218.27 1203.7
6906.12 835.937 818.181 1198.08 1170.44
6908.94 769.685 836.949 1094.96 1142.14
6911.75 905.225 913.341 1133.39 1203.97
6914.57 1065.11 984.438 1383.57 1249.62
6917.39 982.974 1024.41 1231.89 1285.42
6920.2 1025.14 1024.32 1240.8 1266.69
6923.02 1064.85 1037.34 1327.37 1273.4
6925.83 1022.03 1020.32 1252.02 1268.05
6928.65 974.077 1006.98 1224.76 1260.65
6931.46 1024.83 973.507 1305.16 1272.13
6934.28 921.619 955.509 1286.49 1311.96
6937.09 920.083 885.337 1344.23 1289.76
6939.91 814.309 918.529 1238.58 1288.85
6942.72 1021.19 970.791 1283.76 1277.33
6945.54 1076.87 1013.9 1309.67 1259.57
6948.35 943.629 958.312 1185.28 1230.32
6951.17 854.436 935.75 1196 1202.69
6953.98 1009.18 947.189 1226.79 1265.45
6956.79 977.945 995.213 1373.55 1280.95
6959.61 998.508 989.751 1242.51 1293.93
6962.42 992.799 998.664 1265.72 1260.75
6965.23 1004.68 1000.25 1274.03 1268.47
6968.05 1003.26 969.555 1265.67 1259.04
6970.86 900.724 958.341 1237.44 1248.51
6973.67 971.043 953.884 1242.42 1223.52
6976.49 989.884 930.602 1190.71 1211.77
6979.3 830.88 884.664 1202.19 1192.74
6982.11 833.226 851.722 1185.33 1208.73
6984.92 891.059 928.413 1238.68 1225.76
6987.73 1060.95 952.594 1253.29 1215.38
6990.55 905.772 990.493 1154.18 1211.12
6993.36 1004.75 962.37 1225.9 1201.61
6996.17 976.585 947.934 1224.76 1198.5
6998.98 862.463 937.767 1144.85 1187.44
7001.79 974.253 926.496 1192.73 1168.69
7004.6 942.773 965.092 1168.48 1174.48
7007.41 978.25 935.528 1162.21 1191.53
7010.22 885.562 905.959 1243.89 1191.06
7013.03 854.064 917.299 1167.08 1208.98
7015.84 1012.27 927.396 1215.98 1173.32
7018.65 915.855 958.199 1136.91 1182.05
7021.46 946.472 911.805 1193.26 1166.36
7024.27 873.09 927.453 1168.91 1179.8
7027.08 962.797 901.547 1177.21 1171.43
7029.89 868.753 930.782 1168.18 1176.68
7032.7 960.795 926.559 1184.64 1167.76
7035.51 950.127 962.214 1150.46 1174.47
7038.32 975.719 945.611 1188.31 1140.77
7041.13 910.988 927.04 1083.52 1130.33
7043.94 894.413 933.118 1119.14 1139.49
7046.74 993.954 945.35 1215.8 1148.59
7049.55 947.683 960.675 1110.83 1167.01
7052.36 940.388 921.7 1174.4 1117.42
7055.17 877.028 910.507 1067.03 1111.62
7057.97 914.104 910.356 1093.43 1098.43
7060.78 939.936 934.328 1134.84 1132.52
7063.59 948.944 900.502 1169.28 1130.33
7066.4 812.625 919.566 1086.87 1135.52
7069.2 997.128 901.121 1150.4 1093.82
7072.01 893.609 943.583 1044.17 1095.72
7074.82 940.013 884.482 1092.57 1056.83
7077.62 819.825 871.564 1033.74 1023.7
7080.43 854.854 874.878 944.784 1012.53
7083.23 949.956 920.209 1059.06 1023.78
7086.04 955.816 925.542 1067.51 1037
7088.85 870.853 865.818 984.434 999.502
7091.65 770.786 844.93 946.565 968.723
7094.46 893.152 880.522 975.17 996.45
7097.26 977.628 916.006 1067.61 1000.74
7100.07 877.238 913.718 959.449 994.203
7102.87 886.289 865.644 955.545 972.731
7105.68 833.404 855.598 1003.2 967.958
7108.48 847.102 860.78 945.132 992.26
7111.28 901.833 876.256 1028.45 979.237
7114.09 879.832 859.028 964.128 978.504
7116.89 795.419 862.574 942.935 962.116
7119.7 912.471 854.313 979.286 996.009
7122.5 855.049 804.388 1065.81 933.745
7125.3 645.644 781.402 756.142 912.471
7128.11 843.512 761.304 915.465 858.335
7130.91 794.755 842.569 903.398 939.936
7133.71 889.441 861.862 1000.94 982.755
7136.51 901.389 887.306 1043.92 1010.34
7139.32 871.088 865.312 986.142 1012.87
7142.12 823.46 848.409 1008.53 1000.85
7144.92 850.679 851.111 1007.86 1000.22
7147.72 879.192 883.943 984.268 1019.51
7150.52 921.957 844.072 1066.41 1010.46
7153.33 731.066 826.799 980.706 1011
7156.13 827.372 808.744 985.88 993.977
7158.93 867.794 856.075 1015.35 1013.23
7161.73 873.059 846.356 1038.47 1026.44
7164.53 798.215 817.026 1025.52 1004.85
7167.33 779.805 780.068 950.556 997.799
7170.13 762.184 770.622 1017.32 1008.18
7172.93 769.876 784.091 1056.65 1017.8
7175.73 820.213 761.326 979.441 994.054
7178.53 693.888 784.657 946.072 987.462
7181.33 839.87 766.142 1036.87 973.063
7184.13 764.668 824.441 936.244 997.008
7186.93 868.785 794.388 1017.91 971.451
7189.73 749.711 805.87 960.202 1006.14
7192.53 799.114 789.76 1040.31 1009.8
7195.33 820.455 761.455 1028.9 995.094
7198.12 664.796 751.796 916.07 974.382
7200.92 770.137 713.982 978.175 945.089
7203.72 707.012 732.528 941.02 957.214
7206.52 720.435 732.293 952.447 964.726
7209.32 769.432 747.764 1000.71 979.855
7212.11 753.426 753.642 986.407 984.357
7214.91 738.07 759.575 965.956 983.139
7217.71 787.228 772.799 997.054 1001.81
7220.51 793.099 792.182 1042.43 1000.79
7223.3 796.218 777.037 962.879 971.058
7226.1 741.794 759.253 907.868 931.79
7228.9 739.747 740.246 924.623 859.774
7231.69 739.197 725.636 746.83 809.481
7234.49 697.964 733.023 756.989 765.044
7237.29 761.908 732.07 791.315 846.616
7240.08 736.34 762.939 991.546 967.739
7242.88 790.569 746.445 1120.36 1064.88
7245.67 712.426 712.841 1082.74 1093.35
7248.47 635.526 673.808 1076.96 1080.3
7251.26 673.472 686.541 1081.19 1051.89
7254.06 750.625 719.822 997.513 1020.37
7256.85 735.368 733.744 982.392 961.243
7259.65 715.239 710.516 903.825 913.545
7262.44 680.939 697.057 854.418 830.747
7265.23 694.993 695.913 733.998 742.587
7268.03 711.809 715.474 639.344 698.471
7270.82 739.619 761.413 722.07 793.678
7273.62 832.811 775.24 1019.62 931.434
7276.41 753.29 740.999 1052.61 1053.31
7279.2 636.896 670.503 1087.7 1034.5
7282 621.323 658.922 963.19 1050.85
7284.79 718.547 654.049 1101.65 992.075
7287.58 622.278 682.914 911.383 983.883
7290.37 707.916 682.283 938.615 907.025
7293.17 716.656 726.173 871.077 894.042
7295.96 753.946 737.849 872.433 901.894
7298.75 742.945 725.232 962.17 898.263
7301.54 678.806 708.162 860.186 891.081
7304.33 702.737 705.625 850.888 805.421
7307.12 735.332 706.711 705.189 731.835
7309.91 682.064 710.254 639.428 768.729
7312.71 713.365 701.111 961.571 881.986
7315.5 707.903 685.473 1044.96 992.387
7318.29 635.15 667.79 970.629 965.155
7321.08 660.317 657.289 879.878 896.37
7323.87 676.399 675.989 838.602 864.225
7326.66 691.251 694.635 874.194 833.083
7329.45 716.256 707.84 786.452 773.158
7332.24 716.014 731.69 658.827 710.787
7335.03 762.8 721.51 687.083 744.199
7337.81 685.717 747.76 886.688 944.837
7340.6 794.762 719.084 1260.74 1086.76
7343.39 676.775 700.161 1112.86 1105.19
7346.18 628.946 663.306 941.968 971.196
7348.97 684.198 638.299 858.757 841.82
7351.76 601.752 646.853 724.737 805.085
7354.55 654.609 658.15 831.762 799.848
7357.33 718.088 684.948 843.044 774.443
7360.12 682.148 693.098 648.524 698.593
7362.91 679.057 675.664 604.21 695.825
7365.7 665.788 677.567 834.741 820.743
7368.48 687.855 713.736 1023.28 1000.51
7371.27 787.566 682.466 1143.52 1023.87
7374.06 571.977 645.853 904.809 964.404
7376.84 578.016 607.407 844.882 847.626
7379.63 672.228 634.117 793.188 785.709
7382.41 652.107 668.468 719.057 756.377
7385.2 681.07 650.01 756.886 742.205
7387.99 616.854 634.976 750.671 727.151
7390.77 607.003 611.479 673.896 702.048
7393.56 610.579 614.041 681.578 685.226
7396.34 624.541 648.076 700.202 778.528
7399.13 709.109 664.766 953.805 885.966
7401.91 660.647 666.098 1003.89 963.24
7404.7 628.536 632.623 932.023 953.505
7407.48 608.684 629.74 924.602 895.555
7410.26 651.998 645.214 830.041 869.455
7413.05 674.96 654.398 853.72 827.731
7415.83 636.235 634.542 799.432 792.831
7418.62 592.432 601.35 725.34 728.484
7421.4 575.382 611.349 660.68 701.704
7424.18 666.233 618.279 719.093 700.466
7426.96 613.221 642.257 721.625 718.095
7429.75 647.316 634.967 713.568 717.179
7432.53 644.364 633.007 716.345 747.074
7435.31 607.341 623.041 811.308 800.156
7438.09 617.418 599.592 872.814 836.703
7440.88 574.018 600.984 825.986 823.748
7443.66 611.517 572.519 772.444 779.004
7446.44 532.021 568.77 738.583 740.634
7449.22 562.771 566.479 710.876 716.182
7452 604.645 589.157 699.087 698.388
7454.78 600.056 605.695 685.201 685.158
7457.56 612.385 604.069 671.186 663.757
7460.34 599.768 604.436 634.882 647.045
7463.12 601.155 589.188 635.065 635.559
7465.9 566.641 584.694 636.729 664.579
7468.68 586.285 578.889 721.942 681.341
7471.46 583.742 569.303 685.353 663.402
7474.24 537.882 555.035 582.911 639.368
7477.02 543.48 565.695 649.84 700.67
7479.8 615.723 562.828 869.259 773.855
7482.58 529.282 570.548 802.464 817.082
7485.36 566.641 549.351 779.523 776.403
7488.14 552.13 540.842 747.222 727.409
7490.92 503.755 527.836 655.483 700.7
7493.69 527.621 533.419 699.395 696.682
7496.47 568.881 539.316 735.169 703.632
7499.25 521.447 548.551 676.334 692.558
7502.03 555.324 536.844 666.173 657.741
7504.8 533.761 549.971 630.718 641.191
7507.58 560.827 536.112 626.682 599.548
7510.36 513.747 536.534 541.244 526.131
7513.14 535.026 522.055 410.468 417.235
7515.91 517.39 537.128 299.994 382.387
7518.69 558.968 522.544 436.698 446.889
7521.46 491.275 521.281 603.973 633.458
7524.24 513.601 495.719 859.703 769.409
7527.02 482.282 496.108 844.549 830.623
7529.79 492.442 497.264 787.617 798.606
7532.57 517.07 529.323 763.653 769.773
7535.34 578.457 540.678 758.048 727.595
7538.12 526.507 525.198 661.084 676.498
7540.89 470.63 515.645 610.363 637.172
7543.66 549.797 511.082 640.069 603.837
7546.44 512.818 515.143 561.08 574.773
7549.21 482.814 504.194 523.171 565.278
7551.99 516.95 479.522 611.584 553.609
7554.76 438.802 478.113 526.072 568.758
7557.53 478.587 464.915 568.62 522.753
7560.31 477.355 463.284 473.568 461.619
7563.08 433.91 441.987 342.669 400.657
7565.85 414.696 440.157 385.732 434.132
7568.63 471.863 456.306 573.993 571.027
7571.4 482.358 456.06 753.354 667.791
7574.17 413.958 459.548 676.027 698.418
7576.94 482.328 435.472 665.874 613.298
7579.71 410.129 454.763 497.994 581.934
7582.48 471.832 431.039 581.934 550.228
7585.26 411.156 437.034 570.756 574.327
7588.03 428.112 401.963 570.291 520.241
7590.8 366.62 358.733 419.675 452.05
7593.57 281.467 298.615 366.184 401.406
7596.34 247.759 240.55 418.36 375.005
7599.11 192.423 192.765 340.471 329.154
7601.88 138.114 155.182 228.632 241.997
7604.65 135.007 143.157 156.887 173.36
7607.42 156.35 165.17 134.562 143.464
7610.19 204.154 206.32 138.942 170.26
7612.96 258.456 252.162 237.275 221.961
7615.73 293.875 279.588 289.665 280.452
7618.5 286.431 288.246 314.417 312.187
7621.26 284.432 272.564 332.478 317.692
7624.03 246.828 263.188 306.181 337.95
7626.8 258.304 253.012 375.192 340.55
7629.57 253.905 266.028 340.278 372.977
7632.34 285.876 261.31 403.46 354.107
7635.1 244.15 265.39 318.582 337.56
7637.87 266.146 248.419 290.636 305.589
7640.64 234.961 261.287 307.548 293.272
7643.4 282.754 281.545 281.631 307.224
7646.17 326.92 318.261 332.492 318.857
7648.94 345.11 327.584 342.447 343.326
7651.7 310.723 327.076 355.037 335.788
7654.47 325.396 329.459 309.88 353.633
7657.24 352.258 363.391 395.982 407.445
7660 412.519 383.733 516.472 483.337
7662.77 386.422 413.867 537.558 531.562
7665.53 442.659 412.377 540.657 528.784
7668.3 408.049 412.346 508.137 514.179
7671.06 386.33 403.264 493.741 482.248
7673.83 415.412 400.917 444.865 446.029
7676.59 401.01 402.356 399.482 412.28
7679.35 390.646 406.448 392.494 411.901
7682.12 427.687 406.453 443.728 436.353
7684.88 401.025 413.733 472.836 460.939
7687.65 412.486 411.757 466.254 474.095
7690.41 421.761 421.939 483.195 495.683
7693.17 431.57 424.498 537.598 515.604
7695.93 420.162 427.719 526.019 504.286
7698.7 431.424 431.97 449.242 396.596
7701.46 444.323 443.81 214.528 180.17
7704.22 455.684 442.82 -123.26 -66.389
7706.98 428.453 434.208 -290.435 -103.697
7709.75 418.486 450.657 102.602 174.814
7712.51 505.032 452.698 712.273 609.071
7715.27 434.577 470.84 1012.34 932.454
7718.03 472.91 436.319 1072.75 978.013
7720.79 401.469 435.657 848.948 902.368
7723.55 432.594 431.809 785.404 794.417
7726.31 461.365 465.675 748.898 709.925
7729.07 503.066 454.586 595.474 623.537
7731.83 399.327 432.015 526.24 536.269
7734.59 393.653 422.015 487.092 457.352
7737.35 473.064 431.878 358.723 258.25
7740.11 428.915 462.745 -71.0643 68.7236
7742.87 486.256 475.506 -81.4875 27.3607
7745.63 511.347 480.587 234.634 259.735
7748.39 444.157 492.372 626.057 603.639
7751.14 521.613 466.413 950.226 803.421
7753.9 433.468 449.786 833.98 844.955
7756.66 394.278 412.403 750.66 799.006
7759.42 409.464 419.179 812.379 747.429
7762.18 453.794 436.22 679.247 662.9
7764.93 445.402 449.325 497.073 551.679
7767.69 448.779 468.15 478.716 465.328
7770.45 510.268 468.379 420.195 438.57
7773.2 446.091 476.819 416.799 465.335
7775.96 474.099 482.038 559.012 526.498
7778.72 525.925 505.404 603.683 553.09
7781.47 516.187 514.827 496.574 427.317
7784.23 502.369 487.332 181.695 265.233
7786.98 443.439 494.258 117.431 250.087
7789.74 536.966 479.489 451.135 453.184
7792.49 458.061 524.629 790.986 738.565
7795.25 578.859 501.903 973.574 800.25
7798 468.79 492.594 636.189 677.381
7800.76 430.133 448.353 422.381 488.623
7803.51 446.137 458.189 407.3 461.78
7806.27 498.297 475.19 555.658 460.343
7809.02 481.137 476.34 418.069 376.991
7811.77 449.585 470.726 157.245 212.842
7814.53 481.455 480.447 63.2124 225.586
7817.28 510.302 503.729 456.302 445.361
7820.03 519.431 502.538 816.568 770.518
7822.79 477.881 496.842 1038.69 921.721
7825.54 493.215 465.593 909.911 848.116
7828.29 425.683 438.927 595.753 634.153
7831.04 397.884 431.199 396.797 445.681
7833.79 470.032 441.336 344.493 379.345
7836.55 456.093 473.352 396.743 379.139
7839.3 493.932 479.86 396.179 330.831
7842.05 489.554 469.049 199.57 155.984
7844.8 423.661 459.916 -127.797 33.1206
7847.55 466.534 476.822 27.5894 107.458
7850.3 540.272 525.03 422.58 437.435
7853.05 568.285 501.399 862.134 721.441
7855.8 395.641 476.668 879.608 822.166
7858.55 466.078 439.632 724.755 723.077
7861.3 457.176 457.621 564.868 582.857
7864.05 449.61 473.08 458.947 538.955
7866.8 512.453 468.772 593.049 562.439
7869.55 444.253 476.574 635.32 625.779
7872.3 473.016 451.613 648.967 610.307
7875.04 437.57 463.396 546.633 555.951
7877.79 479.603 458.607 472.252 493.758
7880.54 458.648 491.733 462.391 481.694
7883.29 536.948 495.022 510.439 522.76
7886.03 489.471 496.225 595.45 600.186
7888.78 462.257 481.002 694.669 707.446
7891.53 491.279 462.948 832.218 729.489
7894.28 435.308 449.5 661.579 684.694
7897.02 421.913 451.272 560.285 520.081
7899.77 496.595 470.714 338.378 280.678
7902.51 493.634 498.543 -56.6297 -47.7417
7905.26 505.399 476.013 -424.973 -251.277
7908.01 429.006 464.112 -272.229 -131.407
7910.75 457.932 484.353 302.982 310.164
7913.5 566.121 487.157 899.74 739.19
7916.24 437.417 483.869 1014.85 957.965
7918.99 448.07 432.611 959.308 915.097
7921.73 412.345 434.763 771.135 766.895
7924.47 443.874 422.524 570.242 633.718
7927.22 411.353 433.368 559.778 582.519
7929.96 444.878 438.963 617.539 619.363
7932.71 460.657 459.979 680.771 623.12
7935.45 474.403 449.734 571.051 545.504
7938.19 414.142 446.679 384.688 434.641
7940.94 451.492 443.312 348.183 355.784
7943.68 464.301 435.019 334.482 388.14
7946.42 389.265 445.808 481.754 471.504
7949.16 483.859 437.357 598.276 487.963
7951.9 438.948 455.101 383.858 334.543
7954.65 442.495 435.039 21.4962 82.9613
7957.39 423.675 454.281 -156.47 25.0743
7960.13 496.672 443.758 210.197 201.016
7962.87 410.926 460.11 549.323 574.511
7965.61 472.731 438.128 964.014 759.284
7968.35 430.727 430.79 764.516 705.247
7971.09 388.912 417.949 387.21 504.515
7973.83 434.208 416.024 361.82 400.536
7976.57 424.953 433.522 452.578 462.682
7979.31 441.406 449.866 573.649 455.526
7982.05 483.238 438.778 340.35 285.054
7984.79 391.69 423.085 -58.8386 74.0126
7987.53 394.328 415.815 -59.4736 90.3972
7990.27 461.429 441.512 389.504 388.528
7993 468.781 429.525 835.555 738.283
7995.74 358.366 403.789 989.791 860.805
7998.48 384.22 364.23 757.068 759.334
8001.22 350.104 384.314 531.144 532.398
8003.95 418.618 391.96 308.981 363.421
8006.69 407.157 409.69 250.138 274.323
8009.43 403.295 349.988 263.851 242.442
8012.17 239.511 336.072 213.338 262.07
8014.9 365.411 341.912 309.022 195.327
8017.64 420.815 392.318 63.6211 164.452
8020.37 390.73 404.105 120.713 203.147
8023.11 400.771 386.621 425.108 436.348
8025.85 368.362 389.911 763.224 660.314
8028.58 400.6 356.757 792.61 715.375
8031.32 301.308 377.139 590.291 646.793
8034.05 429.51 372.469 557.478 528.483
8036.79 386.588 388.021 437.68 447.177
8039.52 347.966 373.405 346.374 356.042
8042.25 385.662 371.821 284.073 311.073
8044.99 381.836 381.864 302.772 313.081
8047.72 378.093 366.224 352.398 311.255
8050.45 338.742 366.401 278.596 302.525
8053.19 382.367 356.962 276.582 272.923
8055.92 349.778 358.043 263.59 278.967
8058.65 341.984 338.761 296.73 337.355
8061.39 324.522 326.505 451.746 430.964
8064.12 313.01 324.228 544.417 487.361
8066.85 335.154 317.397 465.92 484.404
8069.58 304.027 325.998 442.876 435.403
8072.31 338.812 315.114 397.411 396.499
8075.04 302.503 321.995 349.208 368.532
8077.77 324.67 311.828 358.977 348.555
8080.5 308.311 300.994 337.481 328.539
8083.24 270.001 298.238 289.159 312.02
8085.97 316.403 285.452 309.419 309.782
8088.7 269.95 302.205 330.769 324.042
8091.43 320.262 300.179 331.939 337.9
8094.15 310.324 329.782 350.992 343.794
8096.88 358.76 327.579 348.452 357.37
8099.61 313.653 316.27 372.666 384.822
8102.34 276.398 296.488 433.348 409.72
8105.07 299.412 294.186 423.147 403.468
8107.8 306.75 305.85 353.91 393.1
8110.53 311.389 309.745 402.244 367.14
8113.25 311.097 294.212 345.265 361.222
8115.98 260.151 283.07 336.157 327.303
8118.71 277.962 271.255 300.488 329.007
8121.44 275.654 276.928 350.377 318.302
8124.16 277.167 279.688 304.042 338.068
8126.89 286.242 280.54 359.783 317.465
8129.61 278.212 275.713 288.571 302.87
8132.34 262.684 273.684 260.255 284.862
8135.07 280.158 280.079 305.76 297.866
8137.79 297.397 294.738 327.584 337.465
8140.52 306.66 304.768 379.052 344.412
8143.24 310.249 290.569 326.601 328.363
8145.97 254.798 292.777 279.437 327.849
8148.69 313.285 288.585 377.509 333.244
8151.42 297.673 305.42 342.787 358.624
8154.14 305.3 294.163 355.577 332.602
8156.86 279.515 287.123 299.441 330.552
8159.59 276.555 273.862 336.637 309.034
8162.31 265.517 270.989 291.023 302.228
8165.03 270.895 261.064 279.025 281.362
8167.76 246.78 250.579 274.036 272.739
8170.48 234.062 254.921 265.155 275.714
8173.2 283.921 256.521 287.952 277.656
8175.92 251.58 269.626 279.862 286.834
8178.65 273.379 264.405 292.689 282.157
8181.37 268.256 269.243 273.921 271.358
8184.09 266.094 269.408 247.465 264.511
8186.81 273.875 269.292 272.148 277.603
8189.53 267.906 258.351 313.197 284.524
8192.25 233.272 253.951 268.228 297.901
8194.97 260.675 256.865 312.277 289.73
8197.69 276.648 266.573 288.684 289.346
8200.41 262.394 251.433 267.077 277.872
8203.13 215.258 246.543 277.854 259.449
8205.85 261.976 261.904 233.415 275.73
8208.57 308.477 275.326 315.921 289.223
8211.29 255.525 264.76 318.333 291.815
8214.01 230.279 252.55 241.191 284.312
8216.72 271.844 257.713 293.411 266.837
8219.44 271.015 264.875 265.908 274.472
8222.16 251.765 258.148 264.096 279.57
8224.88 251.665 243.421 308.705 288.242
8227.59 226.832 239.138 291.923 282.938
8230.31 238.917 238.351 248.185 276.845
8233.03 249.302 259.531 290.428 274.401
8235.74 290.374 264.191 284.59 273.165
8238.46 252.896 264.021 244.477 260.792
8241.18 248.792 266.05 253.31 269.385
8243.89 296.462 261.731 310.367 281.089
8246.61 239.938 274.829 279.59 293.224
8249.32 288.086 269.238 289.715 290.999
8252.04 279.689 277.045 303.693 312.026
8254.75 263.359 283.286 342.669 318.833
8257.47 306.812 273.176 310.137 312.251
8260.18 249.359 272.547 283.946 298.624
8262.9 261.472 259.613 301.79 280.119
8265.61 268.009 267.69 254.622 262.28
8268.32 273.59 272.497 230.427 204.815
8271.04 275.894 270.092 129.395 115.544
8273.75 260.791 270.717 -13.1896 35.5031
8276.46 275.466 284.455 -9.69634 4.51401
8279.17 317.109 287.814 36.4279 41.9773
8281.89 270.866 279.387 99.2003 128.239
8284.6 250.185 240.449 249.089 202.384
8287.31 200.295 230.662 258.864 263.812
8290.02 241.506 225.053 283.484 251.78
8292.73 233.359 236.942 212.991 239.924
8295.44 235.96 259.616 223.298 299.383
8298.15 309.53 273.107 461.86 405.477
8300.86 273.832 277.926 531.274 484.601
8303.57 250.418 258.761 460.668 425.057
8306.28 252.033 248.481 283.228 338.061
8308.99 242.993 243.87 270.287 281.418
8311.7 236.584 236.617 290.738 302.426
8314.41 230.274 238.312 346.252 312.94
8317.12 248.077 244.437 301.83 318.442
8319.83 254.959 255.75 307.245 295.082
8322.54 264.215 269.446 276.17 281.804
8325.24 289.163 272.843 261.999 258.839
8327.95 265.151 286.114 238.35 247.298
8330.66 304.029 250.076 241.547 183.22
8333.37 181.049 226.87 69.7649 55.4551
8336.07 195.533 214.153 -144.946 -144.501
8338.78 265.878 236.53 -358.322 -211.151
8341.49 248.18 284.412 -130.186 -78.5306
8344.19 339.179 291.629 252.916 224.183
8346.9 287.528 273.899 549.819 472.956
8349.6 194.99 210.745 616.134 536.844
8352.31 149.718 174.15 444.578 501.028
8355.01 177.741 196.333 442.372 409.156
8357.72 261.538 201.6 340.518 333.091
8360.42 165.521 228.44 216.382 266.398
8363.13 258.261 217.758 242.293 237.115
8365.83 229.493 246.926 252.671 274.535
8368.54 253.025 238.206 328.641 292.882
8371.24 232.101 241.249 297.334 292.345
8373.94 238.622 239.05 251.058 238.045
8376.65 246.426 242.335 165.742 189.574
8379.35 241.957 243.716 151.921 178.26
8382.05 242.764 252.84 217.117 232.654
8384.75 273.798 224.925 328.924 278.978
8387.45 158.213 218.855 290.894 283.176
8390.16 224.553 217.628 229.71 188.603
8392.86 270.117 266.221 45.205 128.486
8395.56 303.995 302.331 110.544 78.0017
8398.26 332.881 289.007 78.2562 200.631
8400.96 230.146 255.813 413.092 353.566
8403.66 204.413 210.916 569.35 460.476
8406.36 198.188 201.763 398.986 384.471
8409.06 202.688 213.494 185.078 242.507
8411.76 239.605 245.585 143.456 194.059
8414.46 294.463 276.95 253.642 252.412
8417.16 296.782 282.843 360.138 313.839
8419.86 257.284 252.219 327.737 263.688
8422.55 202.592 239.864 103.19 186.09
8425.25 259.715 269.856 127.343 163.7
8427.95 347.261 269.313 260.566 214.332
8430.65 200.964 239.385 255.087 243.867
8433.35 169.93 188.964 215.947 233.385
8436.04 195.998 199.192 229.12 194.026
8438.74 231.649 226.458 137.011 196.562
8441.44 251.727 234.062 223.555 174.215
8444.13 218.811 252.814 162.078 204.725
8446.83 287.905 255.085 228.543 186.295
8449.52 258.54 272.43 168.265 225.89
8452.22 270.845 270.932 280.862 227.569
8454.91 283.412 242.788 233.579 222.043
8457.61 174.108 220.157 151.687 185.71
8460.3 202.952 223.596 171.863 162.581
8463 293.727 258.508 164.192 182.623
8465.69 278.845 257.548 211.816 193.796
8468.39 200.072 233.519 205.38 227.841
8471.08 221.639 232.371 266.327 249.254
8473.77 275.401 247.296 276.055 256.961
8476.47 244.849 244.771 228.502 239.196
8479.16 214.062 225.979 213.032 227.127
8481.85 219.026 222.309 239.846 227.094
8484.54 233.84 224.839 228.403 231.662
8487.24 221.651 226.099 226.738 220.653
8489.93 222.807 246.082 206.82 229.706
8492.62 293.787 234.774 255.559 228.647
8495.31 187.728 239.101 223.563 232.125
8498 235.789 227.093 217.252 229.849
8500.69 257.763 242.752 248.732 239.481
8503.38 234.704 260.716 252.459 253.874
8506.07 289.681 245.518 260.431 227.704
8508.76 212.17 251.025 170.223 210.717
8511.45 251.225 236.413 201.498 197.974
8514.14 245.843 246.143 222.201 212.02
8516.83 241.36 231.708 212.361 225.46
8519.52 207.92 240.219 241.818 222.52
8522.21 271.376 243.616 213.382 235.512
8524.89 251.554 255.913 251.336 233.707
8527.58 244.81 247.018 236.403 242.908
8530.27 244.691 241.182 240.984 231.815
8532.96 234.044 245.274 218.057 242.613
8535.64 257.088 257.692 268.799 250.734
8538.33 281.944 258.17 265.345 249.708
8541.02 235.48 263.322 214.979 244.75
8543.7 272.543 252.792 253.926 231.555
8546.39 250.353 244.383 225.759 231.017
8549.07 210.253 254.43 213.365 201.976
8551.76 302.685 250.011 166.802 186.919
8554.44 237.096 282.618 180.589 202.706
8557.13 308.074 254.552 260.726 196.369
8559.81 218.486 254.075 147.793 194.23
8562.5 235.665 238.882 174.172 176.942
8565.18 262.497 259.362 208.861 192.333
8567.86 279.923 268.779 193.966 198.899
8570.55 263.918 259.535 193.871 188.651
8573.23 234.763 249.504 178.116 182.926
8575.91 249.833 268.892 176.791 190.779
8578.6 322.08 289.902 217.429 200.264
8581.28 297.792 303.703 206.573 211.42
8583.96 291.238 299.019 210.259 216.676
8586.64 308.029 302.994 233.195 223.86
8589.32 309.716 297.288 228.125 239.439
8592 274.119 267.836 256.996 233.814
8594.68 219.674 266.322 216.322 236.605
8597.36 305.172 267.63 236.498 235.921
8600.05 278.044 283.058 254.944 229.081
8602.73 265.957 274.702 195.8 210.832
8605.4 280.105 272.342 181.751 205.822
8608.08 270.964 289.054 239.913 255.447
8610.76 316.092 302.722 344.676 302.535
8613.44 321.11 305.502 323.016 330.403
8616.12 279.304 311.008 323.518 333.153
8618.8 332.612 295.966 352.925 354.237
8621.48 275.982 306.216 386.268 359.782
8624.15 310.054 287.27 340.153 333.734
8626.83 275.773 298.694 274.779 296.184
8629.51 310.255 281.551 273.619 254.175
8632.19 258.625 278.114 214.127 226.018
8634.86 265.462 279.886 190.307 185.928
8637.54 315.572 281.763 153.35 180.386
8640.21 264.255 301.804 197.502 187.948
8642.89 325.585 305.535 212.993 233.661
8645.57 326.766 326.202 290.489 272.599
8648.24 326.257 319.893 314.317 315.526
8650.91 306.658 308.456 341.771 313.683
8653.59 292.453 287.734 284.962 306.722
8656.26 264.09 272.798 293.433 275.39
8658.94 261.85 284.938 247.776 238.442
8661.61 328.874 317.96 174.118 222.168
8664.28 363.157 326.929 244.609 204.353
8666.96 288.756 309.496 194.331 213.63
8669.63 276.574 302.981 201.95 189.53
8672.3 343.612 311.282 172.309 182.05
8674.98 313.659 320.643 171.891 181.197
8677.65 304.657 298.206 199.391 196.197
8680.32 276.304 291.082 217.309 196.756
8682.99 292.286 293.534 173.57 202.017
8685.66 312.013 294.219 215.172 201.535
8688.33 278.359 298.738 215.865 227.09
8691 305.842 305.776 250.235 238.463
8693.67 333.127 317.438 249.288 257.576
8696.34 313.346 320.412 273.205 271.487
8699.01 314.762 314.377 291.968 274.579
8701.68 315.023 303.697 258.566 268.104
8704.35 281.305 297.751 253.778 253.902
8707.02 296.923 296.107 249.361 233.467
8709.69 310.094 301.189 197.262 243.397
8712.36 296.549 303.14 283.568 229.254
8715.02 302.778 297.032 206.933 238.283
8717.69 291.768 303.535 224.348 230.115
8720.36 316.058 288.311 259.065 239.571
8723.02 257.107 291.849 235.299 255.03
8725.69 302.382 289.778 270.727 242.836
8728.36 309.844 294.77 222.482 237.372
8731.02 272.083 295.072 218.909 222.689
8733.69 303.29 299.211 226.676 226.104
8736.36 322.259 308.441 232.726 226.278
8739.02 299.774 306.088 219.431 245.7
8741.69 296.229 301.635 284.945 252.962
8744.35 308.902 299.943 254.511 270.817
8747.01 294.699 313.01 272.994 271.665
8749.68 335.429 306.83 287.489 280.844
8752.34 290.362 325.869 282.051 391.019
8755.01 351.815 285.682 603.516 645.384
8757.67 214.869 304.527 1050.58 967.414
8760.33 346.896 296.13 1248.14 1235.51
8762.99 326.626 342.168 1407.81 1231.77
8765.66 352.981 334.045 1039.35 960.436
8768.32 322.526 314.868 434.151 527.247
8770.98 269.097 271.354 108.239 120.22
8773.64 222.44 278.436 -181.73 58.7157
8776.3 343.77 292.609 249.639 143.435
8778.96 311.616 292.101 362.397 177.73
8781.62 220.918 245.123 -78.8447 -206.231
8784.28 202.836 228.514 -902.243 -583.896
8786.94 261.79 254.776 -770.6 -686.003
8789.6 299.701 273.853 -385.166 -406.205
8792.26 260.069 277.772 -62.8491 -136.062
8794.92 273.544 265.226 39.8299 -38.7155
8797.58 262.064 285.219 -93.1274 -67.4347
8800.24 320.047 294.677 -149.007 -94.7077
8802.9 301.918 305.989 -41.9892 -35.6168
8805.55 296.001 298.481 84.1454 66.7136
8808.21 297.525 312.562 157.985 180.66
8810.87 344.161 311.382 299.851 235.045
8813.53 292.459 302.61 247.3 258.755
8816.18 271.209 291.177 229.112 280.198
8818.84 309.862 280.773 364.181 522.283
8821.49 261.248 296.448 973.556 1305.26
8824.15 318.233 270.598 2578.03 2216.31
8826.81 232.315 278.197 3097.35 2688.44
8829.46 284.044 293.11 2389.94 2004
8832.11 362.97 309.564 524.709 694.211
8834.77 281.679 304.918 -832.019 -522.289
8837.42 270.104 288.722 -1259.56 -1107.44
8840.08 314.383 259.23 -1230.75 -1320.3
8842.73 193.202 259.886 -1470.58 -1262.89
8845.38 272.074 240.209 -1087.34 -1040.01
8848.04 255.351 262.522 -562.105 -576.014
8850.69 260.141 270.043 -78.6033 -191.522
8853.34 294.638 272.409 66.1426 -14.8228
8855.99 262.449 269.7 -32.0076 -8.54931
8858.65 252.014 255.44 -59.7829 -14.0756
8861.3 251.856 258.209 49.5638 155.645
8863.95 270.756 276.593 477.155 453.593
8866.6 307.166 280.095 834.059 700.061
8869.25 262.362 288.26 788.969 675.788
8871.9 295.251 256.637 404.335 344.654
8874.55 212.298 270.773 -159.341 -19.1459
8877.2 304.771 257.87 -302.432 -177.535
8879.85 256.54 280.335 -70.8321 240.838
8882.5 279.693 260.325 1095.78 998.245
8885.15 244.743 229.811 1969.79 1648.31
8887.79 164.997 213.784 1879.37 1570.6
8890.44 231.612 195.436 862.647 639.369
8893.09 189.699 218.378 -823.913 -423.812
8895.74 233.824 225.947 -1310.17 -1070.16
8898.38 254.317 255.298 -1076.4 -900.006
8901.03 277.752 276.555 -313.453 -361.786
8903.68 297.596 277.418 304.49 146.456
8906.32 256.907 259.47 448.33 242.162
8908.97 223.906 237.082 -26.3352 34.5028
8911.62 230.434 226.857 -318.487 -120.196
8914.26 226.23 237.645 -15.7672 335.255
8916.91 256.269 264.885 1340.02 1175.33
8919.55 312.155 252.922 2201.74 1853.14
8922.2 190.343 244.866 2017.66 1602.11
8924.84 232.1 195.747 586.934 498.16
8927.48 164.796 184.5 -1110.11 -731.551
8930.13 156.602 171.786 -1671.48 -1441.12
8932.77 193.959 200.896 -1541.78 -1465.82
8935.41 252.127 214.56 -1184.22 -1158.05
8938.05 197.594 221.514 -748.147 -626.857
8940.7 214.822 219.96 51.7926 -50.7508
8943.34 247.465 231.665 544.103 425.535
8945.98 232.707 223.98 680.711 519.652
8948.62 191.768 191.105 334.142 319.037
8951.26 148.839 198.831 -57.7425 220.309
8953.9 255.885 197.529 384.529 533.105
8956.54 187.864 237.843 1272.53 1098.64
8959.18 269.779 218.799 1638.86 1336.32
8961.82 198.754 216.392 1097.56 850.018
8964.46 180.641 186.093 -186.372 -31.9024
8967.1 178.885 183.315 -1006.9 -790.368
8969.74 190.419 183.422 -1177.83 -1058.18
8972.38 180.963 183.693 -989.813 -976.814
8975.02 179.697 188.536 -762.793 -767.729
8977.65 204.949 185.729 -550.58 -546.184
8980.29 172.541 191.125 -325.181 -305.337
8982.93 195.884 193.206 -40.2493 -4.49799
8985.57 211.194 203.933 351.936 302.18
8988.2 204.721 188.255 594.854 517.563
8990.84 148.852 164.063 605.9 519.781
8993.47 138.618 158.352 358.588 389.562
8996.11 187.586 165.65 204.198 359.617
8998.75 170.745 173.759 516.064 524.508
9001.38 162.945 170.124 853.262 735.221
9004.02 176.682 146.926 836.336 678.604
9006.65 101.15 156.755 346.215 285.231
9009.28 192.434 153.249 -326.858 -197.941
9011.92 166.164 184.738 -613.179 -506.268
9014.55 195.618 170.776 -578.766 -555.921
9017.18 150.545 160.583 -475.817 -467.786
9019.82 135.586 148.254 -348.776 -359.306
9022.45 158.629 164.304 -253.325 -223.809
9025.08 198.697 176.714 -69.3244 -103.823
9027.71 172.815 191.648 11.1806 11.1383
9030.34 203.43 184.15 91.5589 91.7135
9032.98 176.204 190.254 172.401 205.578
9035.61 191.127 193.731 352.775 302.746
9038.24 213.864 194.989 383.061 379.688
9040.87 179.978 188.589 403.228 360.939
9043.5 171.925 172.897 296.526 343.359
9046.13 166.787 182.641 330.322 374.671
9048.76 209.211 180.397 497.164 472.147
9051.38 165.193 183.056 588.955 493.89
9054.01 174.764 167.558 395.551 348.268
9056.64 162.718 173.799 60.2991 89.0217
9059.27 183.914 169.008 -188.785 -115.256
9061.9 160.393 178.959 -217.284 -189.726
9064.52 192.572 163.959 -163.11 -187.969
9067.15 138.912 141.22 -183.514 -176.098
9069.78 92.1754 77.0292 -181.669 -121.728
