wavelength spectrum_sum 3smoothed_sum spectrum_optimal 3smoothed_optimal
3505.21 117.59 95.3979 123.743 102.418
3508.13 168.604 164.541 183.51 172.331
3511.04 207.43 202.769 209.739 213.58
3513.96 232.273 232.584 247.49 237.529
3516.87 258.051 246.517 255.357 247.863
3519.79 249.227 263.445 240.743 265.737
3522.71 283.059 261.311 301.112 262.771
3525.62 251.646 250.871 246.459 246.261
3528.54 217.908 226.472 191.213 204.218
3531.46 209.861 206.553 174.982 187.965
3534.37 191.889 201.277 197.7 188.654
3537.29 202.081 211.702 193.281 203.012
3540.2 241.135 227.934 218.054 221.398
3543.12 240.584 236.779 252.857 232.847
3546.04 228.617 233.537 227.63 237.212
3548.95 231.411 229.04 231.148 239.065
3551.87 227.092 232.333 258.417 246.127
3554.78 238.497 244.401 248.817 269.479
3557.7 267.615 252.02 301.205 272.632
3560.62 249.947 251.699 267.874 266.55
3563.53 237.534 251.163 230.571 255.999
3566.45 266.009 245.486 269.553 247.591
3569.36 232.916 254.57 242.649 257.377
3572.28 264.787 250.928 259.929 259.105
3575.2 255.083 265.12 274.737 267.614
3578.11 275.491 269.31 268.176 271.863
3581.03 277.355 279.4 272.675 272.775
3583.95 285.354 284.32 277.473 270.469
3586.86 290.251 298.231 261.258 278.884
3589.78 319.088 285.296 297.92 268.712
3592.69 246.548 279.735 246.958 274.375
3595.61 273.568 262.495 278.248 267.84
3598.52 267.367 278.696 278.315 286.21
3601.44 295.153 283.221 302.066 290.473
3604.36 287.144 286.905 291.039 286.444
3607.27 278.418 295.611 266.228 295.953
3610.19 321.271 303.316 330.593 299.038
3613.1 310.26 325.236 300.292 331.005
3616.02 344.177 309.394 362.131 309.515
3618.94 273.746 320.871 266.122 320.17
3621.85 344.69 302.614 332.257 296.137
3624.77 289.405 293.342 290.032 294.463
3627.68 245.932 276.241 261.099 285.462
3630.6 293.386 282.456 305.256 288.841
3633.52 308.049 320.371 300.168 319.68
3636.43 359.678 320.381 353.616 316.129
3639.35 293.415 317.662 294.602 317.827
3642.26 299.892 297.271 305.264 298.036
3645.18 298.507 289.463 294.241 291.463
3648.09 269.988 287.577 274.884 286.193
3651.01 294.237 272.396 289.453 276.26
3653.93 252.962 260.118 264.444 266.061
3656.84 233.155 250.518 244.285 265.597
3659.76 265.439 252.86 288.063 270.585
3662.67 259.987 267.604 279.408 277.452
3665.59 277.385 263.05 264.884 266.65
3668.5 251.777 256.741 255.658 257.701
3671.42 241.062 255.198 252.561 259.233
3674.33 272.754 267.607 269.48 270.264
3677.25 289.006 255.305 288.75 251.626
3680.17 204.153 248.098 196.649 248.699
3683.08 251.134 221.709 260.697 221.132
3686 209.839 229.061 206.049 227.501
3688.91 226.208 218.3 215.757 206.874
3691.83 218.853 226.64 198.816 216.592
3694.74 234.86 226.934 235.204 224.911
3697.66 227.09 236.014 240.713 238.509
3700.57 246.093 232.392 239.609 240.511
3703.49 223.994 231.268 241.21 235.941
3706.41 223.717 206.147 227.003 220.042
3709.32 170.729 200.733 191.914 210.847
3712.24 207.754 200.022 213.625 206.229
3715.15 221.583 204.892 213.147 202.09
3718.07 185.339 186.156 179.499 178.556
3720.98 151.545 165.671 143.023 166.669
3723.9 160.128 174.764 177.484 177.435
3726.81 212.618 180.073 211.799 185.753
3729.73 167.473 187.127 167.975 193.009
3732.64 181.289 166.706 199.255 180.943
3735.56 151.357 169.058 175.601 186.015
3738.47 174.527 171.816 183.19 177.639
3741.39 189.563 176.401 174.126 173.519
3744.3 165.114 175.614 163.241 182.007
3747.22 172.164 170.278 208.655 190.227
3750.13 173.556 163.634 198.785 184.464
3753.05 145.181 161.16 145.951 173.476
3755.96 164.742 154.619 175.693 155
3758.88 153.935 173.203 143.356 176.974
3761.79 200.933 177.57 211.872 178.483
3764.71 177.841 185.792 180.222 195.505
3767.62 178.602 174.127 194.421 176.953
3770.54 165.937 167.736 156.215 178.995
3773.45 158.67 174.532 186.349 191.881
3776.37 198.99 168.517 233.079 200.563
3779.28 147.89 182.148 182.261 219.718
3782.2 199.564 179.466 243.813 216.052
3785.11 190.944 188.982 222.081 225.731
3788.03 176.438 188.669 211.3 214.526
3790.94 198.626 193.625 210.197 216.392
3793.86 205.812 201.313 227.678 215.566
3796.77 199.5 200.679 208.823 223.623
3799.69 196.725 200.16 234.368 218.226
3802.6 204.255 208.789 211.488 232.486
3805.52 225.386 220.364 251.601 240.89
3808.43 231.451 214.688 259.582 242.089
3811.35 187.226 210.153 215.082 246.741
3814.26 211.781 216.883 265.559 258.332
3817.18 251.64 238.711 294.353 284.643
3820.09 252.712 242.321 294.017 285.656
3823.01 222.611 234.303 268.597 286.372
3825.92 227.586 238.303 296.503 292.357
3828.84 264.712 256.007 311.97 309.273
3831.75 275.723 261.574 319.346 307.766
3834.66 244.288 263.991 291.98 302.075
3837.58 271.961 264.217 294.898 300.979
3840.49 276.402 272.538 316.06 306.754
3843.41 269.249 270.515 309.303 310.489
3846.32 265.895 263.406 306.104 305.543
3849.24 255.075 260.096 301.223 298.258
3852.15 259.32 266.667 287.446 310.932
3855.07 285.605 275.895 344.127 321.715
3857.98 282.762 278.468 333.571 335.119
3860.89 267.037 285.343 327.658 342.52
3863.81 306.229 297.331 366.332 353.361
3866.72 318.725 309.898 366.093 366.092
3869.64 304.74 321.04 365.851 377.891
3872.55 339.653 310.941 401.728 364.654
3875.47 288.428 320.216 326.384 374.393
3878.38 332.566 335.762 395.067 390.968
3881.29 386.292 350.425 451.452 418.885
3884.21 332.417 377.635 410.136 439.668
3887.12 414.194 398.748 457.416 460.622
3890.04 449.632 429.23 514.312 490.499
3892.95 423.864 442.199 499.769 499.439
3895.87 453.102 443.675 484.236 495.892
3898.78 454.058 458.744 503.67 508.582
3901.69 469.072 470.784 537.839 534.444
3904.61 489.22 479.272 561.824 548.626
3907.52 479.524 500.927 546.215 574.883
3910.44 534.035 520.286 616.611 603.136
3913.35 547.299 546.928 646.583 643.701
3916.26 559.451 561.451 667.911 663.029
3919.18 577.602 587.792 674.594 690.728
3922.09 626.322 603.64 729.678 708.981
3925 606.996 608.318 722.671 714.011
3927.92 591.637 606.462 689.684 695.892
3930.83 620.754 631.209 675.321 701.019
3933.75 681.236 653.939 738.053 713.8
3936.66 659.825 689.863 728.027 759.075
3939.57 728.527 693.883 811.144 785.791
3942.49 693.298 720.955 818.2 823.578
3945.4 741.041 735.714 841.388 852.944
3948.31 772.803 764.999 899.243 879.295
3951.23 781.154 786.288 897.253 920.495
3954.14 804.907 793.904 964.99 925.817
3957.05 795.65 813.648 915.209 942.25
3959.97 840.386 819.917 946.55 931.732
3962.88 823.715 837.704 933.437 941.949
3965.8 849.01 856.468 945.861 948.53
3968.71 896.68 872.674 966.294 973.587
3971.62 872.332 881.096 1008.61 988.53
3974.54 874.277 870.816 990.689 993.813
3977.45 865.838 885.545 982.145 998.043
3980.36 916.52 908.521 1021.29 1021.31
3983.28 943.206 939.072 1060.5 1054.45
3986.19 957.491 930.227 1081.57 1050.01
3989.1 889.985 933.219 1007.97 1060.81
3992.02 952.181 948.753 1092.9 1077.21
3994.93 1004.09 966.088 1130.77 1102.27
3997.84 941.99 981.487 1083.15 1108.85
4000.75 998.379 972.175 1112.62 1097.5
4003.67 976.155 991.057 1096.74 1110.12
4006.58 998.637 987.059 1120.99 1114.69
4009.49 986.386 994.972 1126.33 1133.72
4012.41 999.894 1007.56 1153.84 1150.9
4015.32 1036.4 990.607 1172.53 1129.31
4018.23 935.528 976.154 1061.55 1107.05
4021.15 956.535 938.258 1087.08 1067.11
4024.06 922.71 948.617 1052.69 1073.39
4026.97 966.606 944.837 1080.39 1063.71
4029.88 945.196 945.865 1058.04 1076.6
4032.8 925.793 918.543 1091.37 1061.21
4035.71 884.641 894.229 1034.21 1061.79
4038.62 872.252 876.365 1059.8 1041.67
4041.53 872.203 887.633 1031 1048.15
4044.45 918.445 904.487 1053.65 1039.46
4047.36 922.813 893.586 1033.72 1035.74
4050.27 839.499 877.591 1019.86 1035.38
4053.19 870.46 859.498 1052.55 1020.44
4056.1 868.535 868.386 988.906 1021.38
4059.01 866.163 873.512 1022.68 1015.83
4061.92 885.838 862.703 1035.91 1003.15
4064.84 836.108 867.461 950.87 1007.56
4067.75 880.438 865.776 1035.89 998.207
4070.66 880.783 904.023 1007.86 1034.13
4073.57 950.847 926.316 1058.62 1061.08
4076.48 947.318 966.695 1116.76 1103.28
4079.4 1001.92 961.098 1134.45 1112.95
4082.31 934.057 950.495 1087.64 1100.2
4085.22 915.51 922.189 1078.51 1079.49
4088.13 917 918.552 1072.31 1072.68
4091.05 923.147 941.397 1067.22 1095.23
4093.96 984.044 937.172 1146.15 1091.14
4096.87 904.326 972.724 1060.06 1130.69
4099.78 1029.8 988.572 1185.86 1142.54
4102.69 1031.59 1054.28 1181.68 1212.56
4105.61 1101.45 1071.83 1270.14 1232.82
4108.52 1082.44 1091.73 1246.64 1265.43
4111.43 1091.31 1113.46 1279.51 1295.3
4114.34 1166.63 1141.21 1359.76 1319.19
4117.25 1165.69 1178.51 1318.3 1355.3
4120.17 1203.2 1183.06 1387.85 1355.71
4123.08 1180.29 1192.26 1360.96 1373.82
4125.99 1193.28 1192.26 1372.64 1381.1
4128.9 1203.21 1201.93 1409.7 1398.1
4131.81 1209.3 1208.55 1411.96 1411.64
4134.72 1213.13 1233.53 1413.27 1439.68
4137.64 1278.17 1244.91 1493.81 1442.67
4140.55 1243.43 1288.5 1420.94 1483
4143.46 1343.9 1307.3 1534.24 1498.24
4146.37 1334.58 1339.05 1539.55 1545.06
4149.28 1338.66 1328.23 1561.4 1543.63
4152.19 1311.45 1331.57 1529.95 1537.16
4155.11 1344.58 1329.26 1520.12 1524.7
4158.02 1331.75 1367.5 1524.02 1562.24
4160.93 1426.17 1387.02 1642.59 1609.64
4163.84 1403.13 1418.92 1662.32 1664.54
4166.75 1427.45 1406.35 1688.73 1649.59
4169.66 1388.48 1366.84 1597.72 1614.58
4172.57 1284.61 1344.68 1557.29 1598.39
4175.48 1360.97 1366 1640.15 1621.31
4178.4 1452.43 1375.11 1666.5 1622.55
4181.31 1311.94 1376.19 1561 1617.06
4184.22 1364.2 1357.7 1623.67 1616.68
4187.13 1396.97 1395.23 1665.36 1648.8
4190.04 1424.53 1394.24 1657.38 1650.57
4192.95 1361.21 1377.26 1628.95 1615.81
4195.86 1346.04 1323.67 1561.09 1572.26
4198.77 1263.75 1314.03 1526.73 1550.26
4201.68 1332.29 1299.2 1562.96 1530.75
4204.59 1301.54 1327 1502.55 1539.88
4207.5 1347.18 1333.41 1554.13 1537.74
4210.42 1351.52 1364.05 1556.55 1579.74
4213.33 1393.45 1349.51 1628.53 1572.85
4216.24 1303.56 1337.6 1533.47 1562.42
4219.15 1315.78 1326.45 1525.25 1545.93
4222.06 1360 1344.17 1579.08 1554.66
4224.97 1356.72 1365.97 1559.66 1574.66
4227.88 1381.2 1346.81 1585.24 1552.51
4230.79 1302.5 1354.8 1512.63 1565.47
4233.7 1380.7 1318.61 1598.55 1520.66
4236.61 1272.65 1350.31 1450.8 1564.28
4239.52 1397.59 1333.76 1643.5 1549.66
4242.43 1331.03 1353.15 1554.66 1576.23
4245.34 1330.83 1307.76 1530.53 1528.8
4248.25 1261.43 1299.84 1501.22 1516.82
4251.16 1307.27 1311.68 1518.71 1530.6
4254.07 1366.35 1307.16 1571.89 1534.82
4256.98 1247.87 1296.2 1513.85 1540.48
4259.89 1274.37 1292.56 1535.71 1535.29
4262.8 1355.43 1320.95 1556.32 1542.01
4265.71 1333.04 1317.48 1534.02 1532.12
4268.62 1263.97 1300.6 1506.03 1524.1
4271.53 1304.78 1282.83 1532.24 1514.25
4274.44 1279.75 1266.34 1504.48 1482.82
4277.35 1214.49 1267.13 1411.73 1468.91
4280.26 1307.16 1273.49 1490.54 1472.67
4283.17 1298.81 1271 1515.75 1473.22
4286.08 1207.03 1247.9 1413.38 1475.47
4288.99 1237.86 1223.05 1497.29 1480.01
4291.9 1224.27 1238.54 1529.37 1503.16
4294.81 1253.5 1238.94 1482.82 1495.28
4297.72 1239.06 1224.58 1473.64 1468.38
4300.63 1181.19 1190.28 1448.66 1427.23
4303.54 1150.59 1139.75 1359.38 1382.02
4306.45 1087.47 1116.94 1338.03 1325.8
4309.36 1112.76 1100.35 1279.99 1302.46
4312.27 1100.81 1110.26 1289.35 1291.17
4315.18 1117.2 1110.17 1304.17 1300.77
4318.08 1112.5 1085.64 1308.8 1298.69
4320.99 1027.23 1085.41 1283.09 1306.26
4323.9 1116.5 1062 1326.89 1279.99
4326.81 1042.28 1049.79 1229.98 1272.2
4329.72 990.603 1027.93 1259.74 1251.47
4332.63 1050.9 1014.63 1264.68 1235.35
4335.54 1002.4 1005.26 1181.63 1202.23
4338.45 962.493 970.725 1160.38 1164.75
4341.36 947.285 956.344 1152.25 1159.62
4344.27 959.254 954.037 1166.23 1173.07
4347.17 955.571 935.269 1200.73 1160.76
4350.08 890.981 943.246 1115.33 1146.74
4352.99 983.187 918.075 1124.17 1119.31
4355.9 880.058 935.629 1118.45 1140.5
4358.81 943.642 923.831 1178.89 1149.18
4361.72 947.792 906.649 1150.19 1148.45
4364.63 828.512 880.002 1116.29 1111.75
4367.54 863.703 856.966 1068.76 1089.66
4370.44 878.684 870.964 1083.93 1075.89
4373.35 870.505 902.626 1074.98 1099.53
4376.26 958.689 906.499 1139.69 1097.65
4379.17 890.304 907.151 1078.27 1087.74
4382.08 872.46 889.036 1045.27 1090.18
4384.99 904.343 860.329 1147 1078.32
4387.89 804.183 864.705 1042.68 1076.93
4390.8 885.589 861.239 1041.11 1063.17
4393.71 893.947 914.306 1105.72 1102.82
4396.62 963.383 942.352 1161.65 1141.61
4399.53 969.726 950.447 1157.47 1178.06
4402.43 918.233 955.452 1215.05 1173.27
4405.34 978.399 945.456 1147.29 1166.42
4408.25 939.736 941.743 1136.92 1161.16
4411.16 907.094 929.638 1199.28 1162.92
4414.07 942.085 955.379 1152.57 1200.6
4416.97 1016.96 988.481 1249.95 1200.59
4419.88 1006.4 997.642 1199.25 1206.53
4422.79 969.566 1003.34 1170.4 1198.02
4425.7 1034.05 1039.01 1224.41 1247.82
4428.6 1113.42 1081.03 1348.66 1296.58
4431.51 1095.62 1124.43 1316.67 1360.22
4434.42 1164.23 1119.89 1415.35 1362.42
4437.33 1099.81 1120.15 1355.26 1396.47
4440.23 1096.39 1136.55 1418.8 1416.96
4443.14 1213.43 1163.77 1476.81 1437.82
4446.05 1181.49 1188.37 1417.86 1436.68
4448.96 1170.18 1190.12 1415.36 1434.28
4451.86 1218.68 1174.31 1469.62 1455.29
4454.77 1134.07 1198.11 1480.88 1483.24
4457.68 1241.58 1190.9 1499.23 1471.74
4460.58 1197.04 1190.21 1435.1 1455.62
4463.49 1132.01 1168.93 1432.53 1460.1
4466.4 1177.75 1178.95 1512.67 1474.09
4469.3 1227.09 1237.23 1477.08 1517.59
4472.21 1306.85 1255.93 1563.02 1510.21
4475.12 1233.85 1231.27 1490.54 1514.35
4478.02 1153.1 1181.56 1489.5 1459.02
4480.93 1157.73 1163.69 1397.01 1437.41
4483.84 1180.23 1155.22 1425.71 1429.06
4486.74 1127.7 1165.2 1464.47 1453.6
4489.65 1187.67 1190.61 1470.62 1484.98
4492.56 1256.45 1200.63 1519.83 1475.74
4495.46 1157.76 1208.02 1436.75 1461.1
4498.37 1209.84 1189.18 1426.71 1429.19
4501.28 1199.94 1177.18 1424.1 1419.42
4504.18 1121.76 1182.46 1407.45 1428.71
4507.09 1225.66 1182.08 1454.57 1427.39
4510 1198.81 1194.59 1420.14 1421.89
4512.9 1159.29 1149.36 1390.96 1415.68
4515.81 1089.97 1159.86 1435.94 1450.52
4518.71 1230.32 1151.28 1524.65 1447.08
4521.62 1133.56 1187.8 1380.63 1449.89
4524.53 1199.51 1168.44 1444.38 1446.55
4527.43 1172.23 1226.65 1514.65 1506.18
4530.34 1308.2 1255.28 1559.5 1543.63
4533.24 1285.39 1264.23 1556.74 1559.15
4536.15 1199.1 1264.36 1561.2 1567.55
4539.06 1308.58 1263.24 1584.7 1561.37
4541.96 1282.06 1320.16 1538.21 1589.96
4544.87 1369.84 1333.29 1646.97 1608.74
4547.77 1347.96 1360.24 1641.03 1641.41
4550.68 1362.93 1369.05 1636.22 1657.19
4553.58 1396.26 1355.04 1694.32 1672.18
4556.49 1305.92 1359.77 1685.99 1677.3
4559.39 1377.13 1364.74 1651.6 1679.62
4562.3 1411.17 1420.13 1701.26 1706.37
4565.2 1472.08 1408.21 1766.25 1734.55
4568.11 1341.37 1405.62 1736.14 1738.97
4571.01 1403.4 1423.95 1714.52 1764.34
4573.92 1527.07 1457.61 1842.37 1767.74
4576.82 1442.36 1485.58 1746.33 1800.44
4579.73 1487.31 1472.91 1812.62 1782.83
4582.63 1489.06 1493.6 1789.54 1804.89
4585.54 1504.41 1472.83 1812.5 1813.49
4588.44 1425.02 1493.6 1838.43 1836.93
4591.35 1551.36 1485.18 1859.84 1862.02
4594.25 1479.16 1523.75 1887.8 1877.92
4597.16 1540.74 1534.11 1886.11 1898.84
4600.06 1582.43 1554.7 1922.61 1926.87
4602.97 1540.92 1584.7 1971.87 1946.56
4605.87 1630.75 1549.82 1945.19 1939.28
4608.78 1477.78 1571.34 1900.78 1921.27
4611.68 1605.48 1512.2 1917.83 1892.71
4614.58 1453.34 1513.5 1859.51 1892.95
4617.49 1481.69 1508.48 1901.52 1889.62
4620.39 1590.42 1561.17 1907.83 1920.65
4623.3 1611.4 1625.73 1952.61 1956.72
4626.2 1675.36 1600.29 2009.72 1963.2
4629.11 1514.1 1608.26 1927.26 1977.08
4632.01 1635.31 1584.7 1994.27 1954.99
4634.91 1604.67 1590.77 1943.44 1963.64
4637.82 1532.31 1577.04 1953.22 1940.05
4640.72 1594.15 1597.68 1923.5 1965.96
4643.62 1666.58 1610.72 2021.17 1957.68
4646.53 1571.44 1613.11 1928.38 1970.55
4649.43 1601.3 1555.06 1962.12 1921.24
4652.34 1492.43 1540.57 1873.21 1889.05
4655.24 1527.99 1538.54 1831.83 1874.85
4658.14 1595.21 1585.11 1919.5 1908.64
4661.05 1632.11 1619.05 1974.58 1957.08
4663.95 1629.81 1635.02 1977.16 1981.68
4666.85 1643.12 1606.72 1993.29 1963.11
4669.76 1547.22 1599.64 1918.88 1961.21
4672.66 1608.57 1589.82 1971.46 1941.91
4675.56 1613.67 1656.76 1935.39 1993.96
4678.47 1748.05 1683.7 2075.04 2012.65
4681.37 1689.37 1681.35 2027.54 2004.73
4684.27 1606.63 1632.4 1911.62 1964.96
4687.17 1601.19 1614.25 1955.74 1946.67
4690.08 1634.95 1645.78 1972.65 2001.63
4692.98 1701.21 1611.58 2076.49 1998.86
4695.88 1498.57 1589.39 1947.44 2010.99
4698.78 1568.39 1540.38 2009.05 1952.74
4701.69 1554.18 1590.37 1901.72 1965.57
4704.59 1648.53 1581.16 1985.95 1920.74
4707.49 1540.76 1583.77 1874.55 1911.09
4710.4 1562.01 1559.46 1872.77 1869.68
4713.3 1575.6 1537.38 1861.73 1852.51
4716.2 1474.53 1538.95 1823.03 1863.31
4719.1 1566.73 1497.68 1905.17 1830.78
4722 1451.79 1498.79 1764.13 1807.43
4724.91 1477.86 1450.12 1752.98 1769.22
4727.81 1420.7 1452.03 1790.56 1767.11
4730.71 1457.53 1376.34 1757.78 1728.73
4733.61 1250.78 1380.2 1637.84 1708.67
4736.51 1432.28 1330.34 1730.39 1688.68
4739.42 1307.94 1377.11 1697.8 1707.71
4742.32 1391.11 1370.01 1694.93 1699.99
4745.22 1410.99 1411.94 1707.24 1721.85
4748.12 1433.73 1395.95 1763.38 1702.79
4751.02 1343.14 1385.7 1637.73 1687.91
4753.92 1380.24 1315.61 1662.6 1644.83
4756.83 1223.46 1279.55 1634.14 1644.57
4759.73 1234.94 1282.05 1636.96 1661.89
4762.63 1387.73 1290.59 1714.57 1655.8
4765.53 1249.1 1338.12 1615.88 1673.83
4768.43 1377.52 1332.94 1691.03 1658.05
4771.33 1372.21 1377.96 1667.23 1686
4774.23 1384.14 1364.14 1699.75 1682.07
4777.13 1336.06 1323.6 1679.23 1662.19
4780.04 1250.58 1306.63 1607.6 1646.86
4782.94 1333.25 1296.55 1653.76 1614.65
4785.84 1305.82 1348.93 1582.59 1643.81
4788.74 1407.72 1368.67 1695.07 1654.56
4791.64 1392.47 1370.58 1686.01 1661.63
4794.54 1311.55 1334.58 1603.8 1638.61
4797.44 1299.74 1294.14 1626.01 1622.85
4800.34 1271.12 1281.82 1638.75 1603.49
4803.24 1274.61 1291.82 1545.7 1611.75
4806.14 1329.73 1308.1 1650.81 1596.81
4809.04 1319.97 1311.06 1593.92 1614.12
4811.94 1283.47 1280.56 1597.64 1613.74
4814.84 1238.25 1273.46 1649.67 1609.01
4817.74 1298.65 1273.98 1579.72 1599.82
4820.64 1285.04 1294.81 1570.06 1586.46
4823.54 1300.75 1310.76 1609.6 1605.52
4826.44 1346.5 1278.28 1636.89 1571.07
4829.34 1187.61 1250.18 1466.71 1540.01
4832.24 1216.45 1207.92 1516.41 1506.13
4835.14 1219.7 1219.97 1535.28 1526.67
4838.04 1223.75 1190.75 1528.32 1520.18
4840.94 1128.79 1237.48 1496.95 1561.8
4843.84 1359.89 1234.3 1660.13 1553.9
4846.74 1214.22 1287.22 1504.64 1585.08
4849.64 1287.56 1259.48 1590.46 1556.74
4852.54 1276.65 1255.35 1575.11 1555.32
4855.44 1201.83 1244.19 1500.38 1545.06
4858.34 1254.1 1222.5 1559.7 1528.65
4861.24 1211.58 1237.75 1525.87 1543.15
4864.14 1247.56 1211.8 1543.87 1553.47
4867.03 1176.26 1226.11 1590.66 1566.48
4869.93 1254.52 1184.35 1564.9 1551.52
4872.83 1122.28 1204.35 1498.98 1534.9
4875.73 1236.26 1217.92 1540.8 1551.01
4878.63 1295.22 1262.42 1613.26 1591.88
4881.53 1255.79 1242.66 1621.59 1572.86
4884.43 1176.97 1191.55 1483.73 1510.11
4887.33 1141.91 1149.62 1425.02 1486.14
4890.22 1130 1183.37 1549.67 1527.73
4893.12 1278.2 1187.94 1608.51 1566.23
4896.02 1155.62 1217.53 1540.51 1545.86
4898.92 1218.78 1184.71 1488.55 1504.95
4901.82 1179.74 1183.96 1485.8 1470.45
4904.72 1153.37 1164.15 1437 1451.98
4907.61 1159.35 1157.32 1433.15 1434.78
4910.51 1159.25 1092.08 1434.18 1395.34
4913.41 957.645 1084.03 1318.69 1390.18
4916.31 1135.2 1075.85 1417.68 1383.67
4919.21 1134.72 1103.85 1414.64 1386.26
4922.1 1041.62 1063.18 1326.45 1335.95
4925 1013.19 1003.01 1266.77 1258.87
4927.9 954.236 1004.09 1183.38 1241.97
4930.8 1044.84 947.8 1275.76 1212.94
4933.69 844.323 990.839 1179.69 1261.89
4936.59 1083.35 969.871 1330.21 1239.3
4939.49 981.935 1006.48 1208.01 1236.09
4942.39 954.159 923.574 1170.05 1171.94
4945.28 834.627 902.49 1137.78 1137.03
4948.18 918.684 914.282 1103.26 1150.59
4951.08 989.534 959.386 1210.75 1161.97
4953.97 969.94 948.189 1171.92 1158
4956.87 885.092 920.523 1091.34 1130.1
4959.77 906.537 908.381 1127.05 1122.7
4962.66 933.514 943.283 1149.72 1147.37
4965.56 989.799 963.979 1165.35 1170.42
4968.46 968.625 996.693 1196.18 1191.66
4971.35 1031.66 1025.98 1213.44 1233.85
4974.25 1077.66 1042.19 1291.94 1243.23
4977.15 1017.27 1017.19 1224.32 1230.59
4980.04 956.654 1004.78 1175.52 1213.19
4982.94 1040.43 979.656 1239.73 1216.23
4985.84 941.885 986.541 1233.45 1249.79
4988.73 977.308 968.934 1276.21 1241.91
4991.63 987.609 997.593 1216.07 1244.11
4994.52 1027.86 1016.22 1240.04 1229.18
4997.42 1033.18 1026.1 1231.44 1239.14
5000.32 1017.26 1000.67 1245.95 1238.55
5003.21 951.565 1007.28 1238.25 1279.94
5006.11 1053.01 1026.38 1355.61 1288.53
5009 1074.56 1052.27 1271.71 1328.98
5011.9 1029.23 1090.53 1359.61 1336.65
5014.79 1167.81 1124.6 1378.65 1378.07
5017.69 1176.77 1137 1395.97 1390.31
5020.59 1066.43 1116.41 1396.3 1381.48
5023.48 1106.03 1123.65 1352.16 1396.31
5026.38 1198.5 1121.94 1440.48 1387.47
5029.27 1061.3 1150.07 1369.76 1408.81
5032.17 1190.41 1129.77 1416.18 1441.17
5035.06 1137.61 1179.62 1537.56 1469.62
5037.96 1210.83 1197.56 1455.13 1492.32
5040.85 1244.25 1231.67 1484.26 1477.16
5043.75 1239.95 1254.78 1492.1 1508.89
5046.64 1280.14 1245.45 1550.31 1510.13
5049.53 1216.28 1269.43 1487.96 1546.09
5052.43 1311.87 1222.81 1599.99 1499.2
5055.32 1140.29 1241.03 1409.66 1523.84
5058.22 1270.93 1194.72 1561.86 1467.56
5061.11 1172.93 1246.1 1431.15 1534.64
5064.01 1294.43 1251.38 1610.9 1554.68
5066.9 1286.77 1283.47 1622 1591.68
5069.79 1269.22 1273.14 1542.13 1570.16
5072.69 1263.42 1270.71 1546.34 1555.42
5075.58 1279.49 1256.47 1577.78 1549.61
5078.48 1226.51 1268.68 1524.71 1574.9
5081.37 1300.04 1253.96 1622.22 1572.42
5084.26 1235.31 1219 1570.32 1583.56
5087.16 1121.64 1196.19 1558.14 1567.29
5090.05 1231.62 1228.54 1573.42 1605.88
5092.94 1332.35 1256.8 1686.07 1598.14
5095.84 1206.43 1270.72 1534.93 1612.76
5098.73 1273.38 1263.01 1617.29 1595.3
5101.62 1309.23 1293.16 1633.68 1633.9
5104.52 1296.89 1293.95 1650.72 1632.65
5107.41 1275.74 1289.59 1613.54 1642.43
5110.3 1296.15 1276.48 1663.03 1618.14
5113.2 1257.57 1291.77 1577.86 1639.9
5116.09 1321.58 1280.86 1678.79 1658.5
5118.98 1263.43 1264.47 1718.85 1694.09
5121.88 1208.4 1297.92 1684.63 1729.91
5124.77 1421.94 1325.76 1786.26 1727.75
5127.66 1346.94 1367.74 1712.34 1738.51
5130.55 1334.34 1330.27 1716.94 1693.64
5133.45 1309.52 1342 1651.63 1714.88
5136.34 1382.15 1352.73 1776.08 1737.88
5139.23 1366.53 1372.93 1785.91 1774.07
5142.12 1370.1 1313.5 1760.22 1733.16
5145.01 1203.87 1323.48 1653.35 1724.65
5147.91 1396.46 1298.22 1760.37 1717.8
5150.8 1294.32 1377.39 1739.69 1774.92
5153.69 1441.38 1375.53 1824.71 1780.9
5156.58 1390.88 1422.02 1778.3 1859.61
5159.47 1433.79 1396.59 1975.81 1872.63
5162.36 1365.09 1410.54 1863.79 1899.79
5165.26 1432.75 1384.67 1859.78 1826.04
5168.15 1356.17 1422.65 1754.54 1829.19
5171.04 1479.02 1403.21 1873.25 1833.5
5173.93 1374.43 1426.43 1872.72 1858.8
5176.82 1425.86 1427.18 1830.44 1873.75
5179.71 1481.24 1451.39 1918.09 1850.79
5182.6 1447.08 1441.07 1803.85 1871.06
5185.49 1394.88 1416.85 1891.23 1880.59
5188.39 1408.59 1456.95 1946.69 1935.79
5191.28 1567.37 1487.29 1969.45 1937.65
5194.17 1485.9 1521.98 1896.81 1926.16
5197.06 1512.67 1448.87 1912.2 1909.87
5199.95 1348.03 1473.32 1920.6 1939.35
5202.84 1559.25 1479.53 1985.25 1951.28
5205.73 1531.31 1496.24 1947.99 1947.25
5208.62 1398.15 1474.05 1908.51 1910.77
5211.51 1492.7 1435.24 1875.8 1905.06
5214.4 1414.87 1481.73 1930.87 1915.78
5217.29 1537.62 1474.61 1940.65 1904.05
5220.18 1471.33 1487.73 1840.62 1877.94
5223.07 1454.23 1486.73 1852.54 1870.93
5225.96 1534.63 1483.53 1919.62 1871.77
5228.85 1461.75 1455.71 1843.16 1881.69
5231.74 1370.75 1448.49 1882.27 1873.64
5234.63 1512.98 1464.99 1895.5 1892.5
5237.52 1511.23 1510.65 1899.74 1901.53
5240.41 1507.75 1476.25 1909.35 1874.13
5243.3 1409.77 1453.76 1813.29 1841.52
5246.19 1443.76 1424.89 1801.91 1805.51
5249.08 1421.13 1382.33 1801.34 1793.84
5251.96 1282.09 1405.04 1778.27 1819.31
5254.85 1511.88 1414.87 1878.34 1841.2
5257.74 1450.64 1467.14 1867 1858.71
5260.63 1438.89 1474.84 1830.79 1879.87
5263.52 1534.98 1464.6 1941.82 1894.21
5266.41 1419.91 1433 1910.01 1882.73
5269.3 1344.12 1429.68 1796.36 1874.78
5272.19 1525.01 1388.6 1917.99 1821.63
5275.07 1296.68 1438.59 1750.55 1848
5277.96 1494.1 1428.12 1875.45 1839.17
5280.85 1493.6 1482.37 1891.51 1862.75
5283.74 1459.4 1479.7 1821.28 1852.12
5286.63 1486.09 1488.99 1843.58 1844.45
5289.51 1521.46 1490.64 1868.5 1838.22
5292.4 1464.37 1489.09 1802.59 1831.44
5295.29 1481.45 1486.7 1823.23 1845.46
5298.18 1514.29 1489.22 1910.57 1859.31
5301.07 1471.93 1464.63 1844.12 1850.97
5303.95 1407.69 1381.39 1798.23 1789.31
5306.84 1264.54 1336.19 1725.59 1783.75
5309.73 1336.33 1311.53 1827.42 1782.15
5312.61 1333.72 1312.53 1793.45 1776.19
5315.5 1267.54 1290.2 1707.71 1745.16
5318.39 1269.34 1253.09 1734.32 1703.66
5321.28 1222.41 1209.65 1668.95 1655.01
5324.16 1137.21 1168.89 1561.76 1589.84
5327.05 1147.05 1134.76 1538.81 1547.6
5329.94 1120.01 1136.87 1542.23 1552.23
5332.82 1143.54 1131.97 1575.65 1551.58
5335.71 1132.37 1108.99 1536.85 1522.97
5338.6 1051.06 1085.21 1456.41 1482.66
5341.48 1072.2 1058.43 1454.72 1435.33
5344.37 1052.02 1046.26 1394.85 1419.39
5347.26 1014.55 1056.43 1408.6 1417.41
5350.14 1102.71 1074.12 1448.77 1453.41
5353.03 1105.1 1082.38 1502.87 1450.31
5355.91 1039.33 1068.32 1399.29 1440.05
5358.8 1060.53 1029.41 1418 1389.22
5361.69 988.369 1001.83 1350.37 1353.14
5364.57 956.602 933.681 1291.06 1313.94
5367.46 856.071 930.445 1300.4 1289.94
5370.34 978.661 962.086 1278.36 1317.84
5373.23 1051.53 1007.83 1374.77 1339.33
5376.11 993.299 1012.73 1364.85 1354.77
5379 993.372 1009.31 1324.69 1361.57
5381.88 1041.27 1020.3 1395.16 1368.87
5384.77 1026.26 1024.34 1386.75 1378.44
5387.65 1005.49 1018.55 1353.43 1357.89
5390.54 1023.89 1012.78 1333.49 1344.6
5393.42 1008.97 1010.27 1346.89 1339.34
5396.31 997.961 977.947 1337.66 1310.73
5399.19 926.912 961.27 1247.63 1320.09
5402.08 958.936 969.834 1374.98 1335.65
5404.96 1023.65 1030.86 1384.34 1407.53
5407.85 1109.98 1044.65 1463.27 1378.95
5410.73 1000.32 1045.15 1289.24 1357.54
5413.61 1025.15 1011.02 1320.1 1299.65
5416.5 1007.58 1024.11 1289.62 1300.21
5419.38 1039.59 1014.15 1290.91 1284.56
5422.27 995.271 1038.08 1273.17 1303.47
5425.15 1079.38 1071.24 1346.34 1347.86
5428.03 1139.07 1064.89 1424.06 1392.77
5430.92 976.215 1042.85 1407.91 1373.49
5433.8 1013.27 981.857 1288.51 1355.92
5436.68 956.086 1016.99 1371.34 1352.1
5439.57 1081.61 998.98 1396.44 1381.59
5442.45 959.245 1065.6 1376.97 1401.41
5445.33 1155.96 1104.87 1430.82 1433.54
5448.22 1199.41 1163.63 1492.81 1454.65
5451.1 1135.52 1146.95 1440.32 1436.07
5453.98 1105.93 1122.82 1375.09 1414.59
5456.86 1127.01 1095.63 1428.36 1390.75
5459.75 1053.96 1117.21 1368.8 1432.4
5462.63 1170.66 1126.99 1500.04 1443.73
5465.51 1156.37 1147.4 1462.34 1461.38
5468.4 1115.16 1143.71 1421.76 1457.15
5471.28 1159.6 1135.87 1487.35 1457.68
5474.16 1132.84 1096.79 1463.93 1449.37
5477.04 997.937 1037.45 1396.83 1419.75
5479.92 981.575 1058.52 1398.48 1430.2
5482.81 1196.04 1124.05 1495.29 1467.59
5485.69 1194.54 1171.74 1509 1477.29
5488.57 1124.65 1157.44 1427.58 1468.19
5491.45 1153.13 1122.46 1467.98 1401.5
5494.33 1089.58 1152.22 1308.93 1433.46
5497.21 1213.95 1125.24 1523.47 1389.92
5500.1 1072.17 1068.47 1337.37 1382.6
5502.98 919.292 1016.46 1286.95 1308.39
5505.86 1057.9 983.104 1300.84 1309.95
5508.74 972.117 1018.97 1342.05 1302.12
5511.62 1026.9 1015.3 1263.48 1295.48
5514.5 1046.9 1027.84 1280.9 1314.14
5517.38 1009.73 1050.22 1398.04 1335.43
5520.26 1094.04 987.73 1327.34 1306.98
5523.14 859.427 998.794 1195.58 1264.21
5526.02 1042.92 957.54 1269.7 1218.92
5528.9 970.271 1002.03 1191.48 1244.24
5531.78 992.895 1002.44 1271.56 1259.41
5534.66 1044.16 1036.79 1315.2 1323.67
5537.54 1073.32 1041.14 1384.25 1318.11
5540.42 1005.94 1018.38 1254.89 1270.63
5543.3 975.873 982.698 1172.76 1210.47
5546.18 966.285 980.238 1203.76 1195.42
5549.06 998.555 978.664 1209.75 1213.14
5551.94 971.152 987.02 1225.91 1212.04
5554.82 991.354 984.507 1200.46 1217.88
5557.7 991.017 981.146 1227.27 1213.28
5560.58 961.067 955.468 1212.1 1243.03
5563.46 914.319 972.012 1289.72 1272.06
5566.34 1040.65 995.517 1314.37 1284.91
5569.22 1031.58 1043.31 1250.65 1264.11
5572.1 1057.7 1053.94 1227.3 1249.95
5574.98 1072.53 1049.31 1271.88 1215.06
5577.85 1017.7 1033.43 1146 1232.02
5580.73 1010.07 1031.47 1278.16 1232.29
5583.61 1066.64 1041.56 1272.69 1286.9
5586.49 1047.98 1067.22 1309.83 1341.54
5589.37 1087.05 1074.98 1442.11 1363.75
5592.25 1089.92 1073.35 1339.31 1377.7
5595.12 1043.09 1076.67 1351.68 1358.29
5598 1096.99 1072.11 1383.88 1350.3
5600.88 1076.26 1143.2 1315.34 1418.81
5603.76 1256.34 1137.44 1557.21 1454.87
5606.64 1079.73 1155.45 1492.06 1484.39
5609.51 1130.29 1145.07 1403.91 1462.39
5612.39 1225.2 1189.5 1491.21 1453.67
5615.27 1213.02 1194.81 1465.88 1511.2
5618.15 1146.21 1191.72 1576.5 1522.35
5621.02 1215.92 1196.23 1524.67 1552.82
5623.9 1226.56 1230.15 1557.28 1552.16
5626.78 1247.97 1260.19 1574.52 1587.94
5629.65 1306.04 1245.7 1632.01 1571.59
5632.53 1183.08 1231.5 1508.24 1588.08
5635.41 1205.38 1236.51 1623.99 1598.26
5638.28 1321.06 1253.97 1662.56 1611.34
5641.16 1235.48 1260.35 1547.47 1579.31
5644.04 1224.52 1267.58 1527.9 1577.36
5646.91 1342.73 1265.44 1656.72 1568.31
5649.79 1229.06 1282.25 1520.3 1599.32
5652.67 1274.95 1264.4 1620.94 1592.65
5655.54 1289.18 1279.25 1636.72 1601.42
5658.42 1273.64 1300.02 1546.6 1616.96
5661.29 1337.23 1301.09 1667.56 1617.24
5664.17 1292.39 1305.35 1637.55 1643.33
5667.04 1286.44 1273.75 1624.89 1610.86
5669.92 1242.43 1268.05 1570.13 1586.27
5672.8 1275.29 1256.6 1563.8 1561.22
5675.67 1252.07 1228.67 1549.72 1583.48
5678.55 1158.67 1186.73 1636.91 1597.15
5681.42 1149.46 1200.4 1604.81 1621.14
5684.3 1293.08 1272.48 1621.71 1653.98
5687.17 1374.89 1351.95 1735.43 1716.44
5690.05 1387.88 1307.29 1792.17 1703.94
5692.92 1159.09 1299.25 1584.23 1681.98
5695.79 1350.78 1296.55 1669.53 1635.12
5698.67 1379.78 1335.19 1651.59 1635.34
5701.54 1275.02 1316.59 1584.92 1618.93
5704.42 1294.97 1288.54 1620.28 1610.1
5707.29 1295.63 1318.9 1625.11 1644.32
5710.17 1366.11 1336.57 1687.57 1670.76
5713.04 1347.98 1343.91 1699.59 1678.63
5715.91 1317.64 1346 1648.73 1679.89
5718.79 1372.39 1327.35 1691.35 1653.77
5721.66 1292.03 1286.06 1621.24 1650.47
5724.53 1193.76 1280.66 1638.84 1649.43
5727.41 1356.18 1286.51 1688.23 1667.25
5730.28 1309.59 1351.8 1674.7 1685.97
5733.15 1389.63 1336.92 1694.99 1686.63
5736.03 1311.53 1339.96 1690.21 1655.29
5738.9 1318.7 1263.52 1580.67 1605.9
5741.77 1160.34 1228.86 1546.83 1584.49
5744.64 1207.55 1239.16 1625.97 1596.6
5747.52 1349.6 1255.68 1616.99 1631.69
5750.39 1209.9 1299.46 1652.1 1663.73
5753.26 1338.87 1293.26 1722.1 1672.9
5756.13 1331.01 1320.26 1644.5 1649.24
5759.01 1290.9 1307.9 1581.12 1617
5761.88 1301.78 1327.98 1625.37 1648.68
5764.75 1391.27 1316.81 1739.57 1683.58
5767.62 1257.39 1274.77 1685.81 1684.98
5770.49 1175.66 1250.08 1629.56 1665.42
5773.37 1317.2 1276.69 1680.88 1653.2
5776.24 1337.22 1343.47 1649.16 1681.81
5779.11 1375.98 1367.15 1715.4 1690.86
5781.98 1388.25 1369.53 1708.03 1693.29
5784.85 1344.36 1356.58 1656.43 1660.7
5787.72 1337.13 1336.5 1617.62 1634.14
5790.59 1328 1309.1 1628.37 1588.28
5793.46 1262.15 1268.86 1518.86 1607.78
5796.33 1216.43 1267.68 1676.1 1613.06
5799.21 1324.45 1288.9 1644.21 1654.52
5802.08 1325.82 1320.27 1643.26 1630.68
5804.95 1310.54 1321.05 1604.55 1623.19
5807.82 1326.79 1305.1 1621.74 1608.31
5810.69 1277.98 1277.09 1598.64 1572.28
5813.56 1226.5 1251 1496.46 1549.8
5816.43 1248.53 1214.31 1554.3 1499.83
5819.3 1167.89 1181.84 1448.75 1532.58
5822.17 1129.09 1149.49 1594.68 1531.91
5825.04 1151.48 1169.82 1552.29 1555.91
5827.91 1228.88 1232.61 1520.75 1554.34
5830.78 1317.47 1244.9 1589.99 1525.87
5833.64 1188.34 1202.72 1466.88 1506.14
5836.51 1102.36 1163.98 1461.56 1473.31
5839.38 1201.25 1175.84 1491.49 1469.19
5842.25 1223.91 1198.58 1454.51 1442.41
5845.12 1170.58 1200.81 1381.23 1446.48
5847.99 1207.93 1200.74 1503.69 1457.66
5850.86 1223.72 1180.44 1488.08 1502.42
5853.73 1109.69 1153.76 1515.49 1448.85
5856.59 1127.89 1119.23 1342.99 1409.64
5859.46 1120.11 1126.63 1370.43 1365.36
5862.33 1131.9 1149.24 1382.66 1401.84
5865.2 1195.69 1114.27 1452.42 1425.02
5868.07 1015.23 1067.34 1439.97 1434.66
5870.94 991.11 1022.93 1411.59 1464.02
5873.8 1062.46 1115.24 1540.5 1519.75
5876.67 1292.15 1196.61 1607.17 1552.23
5879.54 1235.22 1299.61 1509.04 1585.59
5882.41 1371.47 1265.03 1640.55 1543.98
5885.27 1188.39 1145.93 1482.34 1493.5
5888.14 877.932 1080.3 1357.61 1425
5891.01 1174.59 1053.6 1435.03 1381.86
5893.87 1108.3 1126.11 1352.94 1392.19
5896.74 1095.46 1123.67 1388.58 1419.13
5899.61 1167.26 1070.49 1515.87 1459.18
5902.47 948.744 1097.62 1473.11 1473.23
5905.34 1176.87 1103.77 1430.71 1445.06
5908.21 1185.7 1117.23 1431.37 1435.15
5911.07 989.135 1103.28 1443.37 1421.08
5913.94 1135 1074.38 1388.51 1462.95
5916.8 1098.99 1140.36 1556.97 1451.33
5919.67 1187.09 1194.68 1408.51 1520.61
5922.54 1297.95 1251.81 1596.37 1512.69
5925.4 1270.41 1247.19 1533.2 1505.59
5928.27 1173.2 1182.09 1387.19 1492.9
5931.13 1102.67 1187.3 1558.32 1487.29
5934 1286.04 1201.56 1516.35 1514.43
5936.86 1215.96 1250.94 1468.63 1505.13
5939.73 1250.81 1228.38 1530.4 1495.71
5942.59 1218.37 1261.46 1488.1 1545.24
5945.46 1315.2 1251.87 1617.23 1526.31
5948.32 1222.04 1289.07 1473.61 1565.85
5951.19 1329.96 1299.51 1606.71 1582.5
5954.05 1346.53 1247.23 1667.19 1605.18
5956.92 1065.22 1180.37 1541.66 1578.94
5959.78 1129.35 1144.14 1527.97 1547.31
5962.64 1237.84 1145.48 1572.3 1533.03
5965.51 1069.24 1168.92 1498.82 1573.71
5968.37 1199.68 1122.02 1650.01 1557.52
5971.24 1097.14 1158.34 1523.72 1595.19
5974.1 1178.2 1163.65 1611.84 1525.54
5976.96 1215.62 1167.04 1441.05 1527.83
5979.83 1107.29 1127.86 1530.61 1485.44
5982.69 1060.67 1141.07 1484.66 1514.15
5985.55 1255.24 1198.14 1527.19 1513.78
5988.42 1278.51 1277.86 1529.48 1538.47
5991.28 1299.82 1292.05 1558.73 1541.05
5994.14 1297.81 1296.91 1534.95 1547.67
5997 1293.09 1300.74 1549.33 1557.6
5999.87 1311.32 1290.28 1588.51 1556.39
6002.73 1266.42 1292.52 1531.32 1571.12
6005.59 1299.83 1231.38 1593.52 1559.5
6008.45 1127.9 1258.6 1553.67 1587.34
6011.32 1348.07 1251.73 1614.84 1569.98
6014.18 1279.23 1335.26 1541.42 1613
6017.04 1378.5 1308.93 1682.75 1588.76
6019.9 1269.07 1311 1542.1 1604.07
6022.76 1285.43 1281.12 1587.37 1560.6
6025.63 1288.87 1297.6 1552.32 1584.2
6028.49 1318.5 1293.72 1612.91 1574.4
6031.35 1273.79 1314.18 1557.97 1606.31
6034.21 1350.24 1305.12 1648.06 1573.77
6037.07 1291.34 1291.64 1515.28 1558.39
6039.93 1233.35 1211.13 1511.82 1503.13
6042.79 1108.7 1208.9 1482.28 1518.4
6045.65 1284.65 1195.9 1561.11 1497.68
6048.51 1194.34 1250.82 1449.64 1531.91
6051.37 1273.45 1208.49 1584.98 1528.49
6054.23 1157.66 1206.61 1550.85 1532.5
6057.09 1188.72 1193.84 1461.66 1491.73
6059.95 1235.15 1177.39 1462.67 1455.17
6062.81 1108.32 1206.32 1441.19 1472.45
6065.67 1275.5 1196.89 1513.49 1471.85
6068.53 1206.86 1218.07 1460.88 1469.13
6071.39 1171.85 1159.43 1433.03 1450.47
6074.25 1099.59 1169.25 1457.5 1467.53
6077.11 1236.32 1118.92 1512.05 1447.93
6079.97 1020.85 1162.53 1374.25 1443.58
6082.83 1230.43 1141.89 1444.46 1397.2
6085.69 1174.39 1159.05 1372.88 1382.03
6088.55 1072.32 1099.43 1328.75 1335.52
6091.41 1051.58 1103.34 1304.94 1342.32
6094.26 1186.12 1088.96 1393.28 1355.08
6097.12 1029.18 1114.64 1367.01 1363.58
6099.98 1128.61 1024.08 1330.46 1304.71
6102.84 914.457 998.582 1216.64 1217.37
6105.7 952.683 979.61 1104.99 1195.43
6108.55 1071.69 993.982 1264.65 1173.79
6111.41 957.572 986.538 1151.72 1172.33
6114.27 930.35 932.918 1100.62 1121.51
6117.13 910.832 931.225 1112.18 1101.26
6119.98 952.494 955.723 1090.98 1119.41
6122.84 1003.84 961.027 1155.07 1106.95
6125.7 926.743 911.777 1074.8 1055.05
6128.56 804.743 873.822 935.269 1007.33
6131.41 889.979 858.124 1011.92 977.492
6134.27 879.652 833.312 985.292 992.506
6137.13 730.306 786.864 980.31 969.727
6139.98 750.635 751.131 943.58 946.744
6142.84 772.452 752.983 916.341 896.754
6145.7 735.862 699.966 830.339 867.545
6148.55 591.583 720.187 855.953 888.908
6151.41 833.115 733.885 980.431 908.805
6154.26 776.955 796.921 890.03 921.023
6157.12 780.692 764.984 892.608 875.43
6159.97 737.304 753.014 843.651 860.312
6162.83 741.047 680.904 844.677 814.042
6165.69 564.361 675.828 753.799 799.657
6168.54 722.076 639.073 800.494 745.853
6171.4 630.781 691.209 683.265 755.328
6174.25 720.771 667.425 782.225 734.744
6177.11 650.724 665.318 738.741 740.016
6179.96 624.46 602.039 699.083 722.229
6182.81 530.934 588.58 728.864 713.327
6185.67 610.347 589.083 712.036 707.933
6188.52 625.967 610.855 682.901 677.155
6191.38 596.25 600.498 636.529 652.452
6194.23 579.277 610.139 637.926 670.149
6197.09 654.891 614.862 735.993 692.657
6199.94 610.419 631.556 704.051 721.903
6202.79 629.357 614.067 725.664 710.741
6205.65 602.426 606.802 702.508 690.713
6208.5 588.623 568.561 643.967 624.189
6211.35 514.635 529.232 526.091 605.548
6214.21 484.438 527.013 646.585 597.466
6217.06 581.966 542.625 619.723 636.172
6219.91 561.472 563.655 642.208 624.993
6222.76 547.526 549.768 613.047 626.685
6225.62 540.307 552.069 624.799 619.583
6228.47 568.373 563.152 620.903 617.743
6231.32 580.777 558.775 607.527 604.677
6234.17 527.174 572.151 585.601 626.89
6237.03 608.502 574.714 687.542 628.132
6239.88 588.467 619.019 611.252 686.009
6242.73 660.088 613.221 759.234 679.8
6245.58 591.108 610.179 668.914 690.322
6248.43 579.342 592.11 642.818 679.237
6251.29 605.882 590.762 725.979 682.815
6254.14 587.062 609.841 679.648 701.044
6256.99 636.58 602.489 697.504 666.639
6259.84 583.824 604.485 622.766 653.313
6262.69 593.052 621.166 639.671 673.606
6265.54 686.623 642.7 758.382 703.157
6268.39 648.425 616.686 711.417 727.332
6271.24 515.012 583.91 712.196 692.779
6274.09 588.293 576.49 654.724 690.957
6276.94 626.165 627.133 705.95 697.201
6279.79 666.942 661.46 730.928 726.106
6282.64 691.273 705.37 741.441 764.129
6285.49 757.894 697.773 820.018 765.217
6288.34 644.152 696.478 734.192 792.263
6291.19 687.388 721.983 822.579 787.281
6294.04 834.408 464.162 805.073 731.651
6296.89 -129.311 495.692 567.3 664.129
6299.74 781.978 495.088 620.015 671.811
6302.59 832.596 734.196 828.119 687.428
6305.44 588.016 754.632 614.149 830.458
6308.29 843.285 789.003 1049.11 933.701
6311.13 935.708 853.621 1137.85 1056.98
6313.98 781.871 837.894 983.993 1038.05
6316.83 796.103 837.426 992.303 1040.23
6319.68 934.303 862.159 1144.4 1050.66
6322.53 856.071 878.742 1015.26 1040.83
6325.37 845.853 797.149 962.834 988.222
6328.22 689.523 803.113 986.57 993.864
6331.07 873.962 828.467 1032.19 1023.98
6333.92 921.914 898.146 1053.17 1044.81
6336.76 898.56 934.071 1049.06 1078.16
6339.61 981.737 947.295 1132.25 1099.54
6342.46 961.587 902.548 1117.3 1094.76
6345.31 764.319 831.89 1034.72 1077.3
6348.15 769.765 833.835 1079.87 1076.92
6351 967.422 911.744 1116.16 1131.17
6353.85 998.045 1020.79 1197.47 1192.79
6356.69 1096.89 1045.65 1264.75 1196.82
6359.54 1042.01 1051.23 1128.24 1151.8
6362.38 1014.79 897.487 1062.41 1088.92
6365.23 635.665 871.533 1076.1 1081.54
6368.08 964.145 838.555 1106.11 1083.47
6370.92 915.855 1007.55 1068.21 1168.69
6373.77 1142.65 1069.34 1331.77 1256.88
6376.61 1149.51 1136.88 1370.67 1347.19
6379.46 1118.48 1115.66 1339.14 1322.41
6382.3 1079 1062.27 1257.42 1292.21
6385.15 989.32 991.907 1280.05 1212.63
6387.99 907.403 961.481 1100.41 1209.05
6390.84 987.72 945.383 1246.68 1188.81
6393.68 941.025 932.812 1219.35 1250.72
6396.53 869.692 951.579 1286.13 1249.17
6399.37 1044.02 983.376 1242.03 1290.11
6402.22 1036.42 1039.61 1342.18 1309.12
6405.06 1038.4 1044.45 1343.15 1343.91
6407.9 1058.54 1046.44 1346.4 1341.37
6410.75 1042.38 1053.46 1334.54 1332.56
6413.59 1059.45 1048.45 1316.72 1327.72
6416.43 1043.53 1050.53 1331.91 1335.92
6419.28 1048.61 1066.04 1359.13 1349.88
6422.12 1105.96 1050.13 1358.61 1355.65
6424.96 995.825 1035.98 1349.22 1374.09
6427.81 1006.15 1042.45 1414.45 1396.18
6430.65 1125.38 1019.78 1424.86 1371.68
6433.49 927.798 1039.45 1275.73 1384.46
6436.33 1065.17 974.281 1452.79 1345.71
6439.18 929.872 1007.39 1308.61 1345.16
6442.02 1027.13 1017.95 1274.06 1317.57
6444.86 1096.86 1086.21 1370.03 1344.41
6447.7 1134.63 1103.13 1389.14 1361.11
6450.54 1077.91 1112.43 1324.17 1362.12
6453.39 1124.75 1071.64 1373.05 1355.42
6456.23 1012.27 1058.8 1369.04 1349.81
6459.07 1039.39 1053.45 1307.33 1359.7
6461.91 1108.71 1020.81 1402.74 1358.13
6464.75 914.32 1032.21 1364.31 1352.49
6467.59 1073.61 1023.55 1290.42 1322.59
6470.43 1082.73 1090.65 1313.04 1301.19
6473.27 1115.6 1044.86 1300.11 1299.05
6476.11 936.254 1063.18 1284 1321.93
6478.95 1137.69 1055.04 1381.67 1320.56
6481.79 1091.18 1124.4 1296 1363.47
6484.63 1144.32 1087.39 1412.74 1339.75
6487.47 1026.67 1066.66 1310.5 1345.48
6490.31 1029 1067.64 1313.2 1342.65
6493.15 1147.26 1047.87 1404.26 1352.06
6495.99 967.338 1098.08 1338.73 1387.68
6498.83 1179.64 1027.51 1420.05 1397.02
6501.67 935.563 1078.3 1432.27 1426.47
6504.51 1119.71 1051.99 1427.08 1401.77
6507.35 1100.69 1080.6 1345.95 1345.64
6510.19 1021.41 1088.89 1263.89 1342.9
6513.03 1144.58 1066.1 1418.85 1331.33
6515.86 1032.31 1092.65 1311.27 1355.3
6518.7 1101.07 1067.15 1335.78 1331.41
6521.54 1068.07 1089.2 1347.18 1342.36
6524.38 1098.48 1081.96 1344.12 1330.97
6527.22 1079.32 1092.52 1301.62 1339.03
6530.05 1099.78 1025.78 1371.35 1327.2
6532.89 898.251 968.565 1308.63 1327.95
6535.73 907.666 965.341 1303.88 1328.09
6538.57 1090.11 990.93 1371.75 1354.37
6541.4 975.017 1028 1387.47 1340.53
6544.24 1018.87 1019.1 1262.36 1330.77
6547.08 1063.41 1023.13 1342.48 1306.76
6549.91 987.094 1038.87 1315.45 1337.86
6552.75 1066.12 1007.11 1355.67 1293.97
6555.59 968.114 1011.26 1210.78 1273.7
6558.42 999.537 925.675 1254.66 1236.31
6561.26 809.375 883.595 1243.5 1232.62
6564.09 841.875 879.379 1199.69 1225.51
6566.93 986.887 914.526 1233.33 1244.58
6569.76 914.818 950.449 1300.72 1234.25
6572.6 949.643 979.485 1168.69 1265.45
6575.44 1074 967.716 1326.95 1264.25
6578.27 879.511 988.381 1297.12 1295.75
6581.11 1011.64 928.228 1263.19 1275.65
6583.94 893.537 968.251 1266.63 1268.18
6586.77 999.579 942.863 1274.71 1270.32
6589.61 935.473 972.751 1269.61 1254.44
6592.44 983.2 991.814 1219 1256.19
6595.28 1056.77 1008.37 1279.95 1250.4
6598.11 985.141 966.038 1252.24 1256.07
6600.95 856.203 945.569 1236.01 1236.91
6603.78 995.361 945.638 1222.47 1222.94
6606.61 985.35 979.865 1210.34 1216.31
6609.45 958.885 970.066 1216.13 1229.92
6612.28 965.962 980.634 1263.28 1243.17
6615.11 1017.06 968.215 1250.11 1222.88
6617.95 921.627 943.004 1155.24 1220.09
6620.78 890.33 937.542 1254.92 1225.42
6623.61 1000.67 954.128 1266.11 1236.4
6626.44 971.386 928.682 1188.17 1216.6
6629.28 813.991 925.511 1195.51 1211.85
6632.11 991.157 935.992 1251.86 1237.54
6634.94 1002.83 971.543 1265.24 1248.42
6637.77 920.641 965.339 1228.15 1252.83
6640.6 972.546 940.772 1265.12 1238.72
6643.44 929.129 939.935 1222.91 1197.85
6646.27 918.131 943.012 1105.54 1174.2
6649.1 981.776 915.275 1194.17 1163.7
6651.93 845.919 927.405 1191.41 1180.98
6654.76 954.521 920.245 1157.37 1213.63
6657.59 960.295 989.619 1292.12 1249.49
6660.42 1054.04 961.676 1298.99 1254.95
6663.25 870.693 934.893 1173.74 1193.71
6666.08 879.945 908.864 1108.4 1179.64
6668.91 975.954 954.243 1256.8 1212.45
6671.74 1006.83 923.866 1272.15 1214.03
6674.57 788.814 930.674 1113.13 1199.89
6677.4 996.38 905.986 1214.38 1166.34
6680.23 932.764 948.111 1171.5 1180.06
6683.06 915.189 897.504 1154.28 1167.74
6685.89 844.559 853.711 1177.44 1152.78
6688.72 801.385 859.83 1126.61 1151.43
6691.55 933.545 884.344 1150.25 1138.53
6694.38 918.102 945.789 1138.74 1168.97
6697.21 985.721 920.868 1217.91 1162.56
6700.04 858.781 940.635 1131.01 1189.24
6702.86 977.404 912.406 1218.81 1168.25
6705.69 901.033 935.074 1154.92 1188.89
6708.52 926.785 894.755 1192.94 1155.71
6711.35 856.448 889.871 1119.26 1153.1
6714.18 886.38 852.903 1147.1 1146.13
6717 815.882 875.882 1172.03 1161.4
6719.83 925.384 891.987 1165.07 1170.59
6722.66 934.695 911.1 1174.66 1157.73
6725.48 873.223 907.756 1133.47 1158.27
6728.31 915.351 907.315 1166.7 1158.46
6731.14 933.373 928.521 1175.23 1188.25
6733.97 936.841 935.122 1222.82 1208.44
6736.79 935.154 924.139 1227.28 1211.68
6739.62 900.423 865.815 1184.92 1182.1
6742.44 761.868 861.838 1134.08 1158.73
6745.27 923.224 870.956 1157.19 1150.33
6748.1 927.777 888.291 1159.71 1157.87
6750.92 813.87 871.429 1156.71 1172.4
6753.75 872.639 876.719 1200.78 1162.73
6756.57 943.646 898.306 1130.69 1188.16
6759.4 878.633 908.846 1233 1178.62
6762.22 904.258 908.078 1172.18 1189.5
6765.05 941.344 885.88 1163.32 1173.52
6767.87 812.037 885.48 1185.06 1156
6770.7 903.058 836.865 1119.62 1144.32
6773.52 795.501 861.563 1128.26 1126.53
6776.35 886.128 796.783 1131.71 1098.66
6779.17 708.719 824.426 1036 1106.41
6781.99 878.432 803.553 1151.51 1122.82
6784.82 823.508 862.422 1180.94 1160.56
6787.64 885.326 854.751 1149.21 1133.21
6790.46 855.42 879.553 1069.48 1121.54
6793.29 897.912 881.547 1145.94 1100.72
6796.11 891.309 880.575 1086.75 1108.37
6798.93 852.504 880.928 1092.43 1093.95
6801.76 898.972 856.714 1102.67 1074.56
6804.58 818.668 856.713 1028.58 1056.07
6807.4 852.5 846.654 1036.96 1046.63
6810.22 868.793 813.53 1074.35 1047.57
6813.04 719.297 780.308 1031.41 1060.03
6815.87 752.832 792.089 1074.33 1084.17
6818.69 904.137 830.584 1146.76 1092.88
6821.51 834.784 883.25 1057.56 1111.1
6824.33 910.83 835.414 1128.99 1040.4
6827.15 760.628 846.963 934.667 1041.17
6829.97 869.429 818.391 1059.86 1002.78
6832.8 825.117 856.068 1013.82 1045.41
6835.62 873.659 845.486 1062.55 1021.54
6838.44 837.683 835.779 988.236 1025.03
6841.26 795.994 835.535 1024.3 1024.59
6844.08 872.929 831.58 1061.24 1027.13
6846.9 825.817 836.753 995.865 1017.81
6849.72 811.512 829.418 996.335 1012.85
6852.54 850.926 833.874 1046.35 1024.03
6855.36 839.185 767.816 1029.42 1013.74
6858.18 613.338 666.129 965.457 975.232
6861 545.863 677.551 930.822 980.072
6863.81 873.451 702.008 1043.94 918.609
6866.63 686.709 686.435 781.068 869.36
6869.45 499.146 604.182 783.074 780.204
6872.27 626.691 568.483 776.472 798.402
6875.09 579.611 643.757 835.659 849.65
6877.91 724.968 674.209 936.82 885.238
6880.73 718.048 727.92 883.234 906.227
6883.54 740.745 736.91 898.627 894.41
6886.36 751.939 727.282 901.368 892.948
6889.18 689.162 720.844 878.848 891.854
6892 721.431 715.236 895.345 893.445
6894.81 735.116 746.141 906.142 918.254
6897.63 781.876 758.216 953.276 929.128
6900.45 757.655 756.251 927.966 922.482
6903.26 729.221 766.424 886.204 925.493
6906.08 812.396 751.593 962.308 895.519
6908.9 713.162 767.364 838.045 925.012
6911.71 776.535 714.616 974.682 928.468
6914.53 654.153 731.975 972.676 961.406
6917.35 765.239 655.318 936.86 938.193
6920.16 546.563 690.303 905.042 903.57
6922.98 759.107 682.287 868.807 874.305
6925.79 741.193 706.373 849.064 878.622
6928.61 618.818 716.229 917.994 890.114
6931.42 788.675 718.755 903.283 922.65
6934.24 748.773 771.16 946.673 928.921
6937.05 776.031 776.51 936.808 939.251
6939.87 804.726 767.112 934.27 906.305
6942.68 720.577 743.305 847.836 876.498
6945.5 704.611 674.546 847.388 885.937
6948.31 598.449 669.846 962.586 878.411
6951.12 706.478 647.693 825.26 905.782
6953.94 638.15 706.329 929.5 903.253
6956.75 774.359 760.464 954.998 967.728
6959.57 868.882 806.298 1018.68 967.38
6962.38 775.653 793.705 928.457 951.264
6965.19 736.582 768.766 906.652 921.264
6968 794.062 764.417 928.684 901.993
6970.82 762.608 761.284 870.644 897.091
6973.63 727.181 669.698 891.945 863.99
6976.44 519.306 611.848 829.382 862.313
6979.25 589.057 616.782 865.612 875.839
6982.07 741.982 694.951 932.524 897.781
6984.88 753.812 690.554 895.208 889.258
6987.69 575.868 695.804 840.043 865.319
6990.5 757.733 653.599 860.707 861.506
6993.31 627.196 718.025 883.768 895.47
6996.12 769.147 693.75 941.936 863.266
6998.93 684.908 721.732 764.094 836.601
7001.75 711.14 680.805 803.774 822.182
7004.56 646.368 718.857 898.678 882.886
7007.37 799.062 718.498 946.208 893.046
7010.18 710.065 736.271 834.254 883.815
7012.99 699.687 703.747 870.983 856.333
7015.8 701.489 697.445 863.764 844.65
7018.61 691.16 699.188 799.205 825.298
7021.42 704.915 680.982 812.926 807.921
7024.23 646.87 695.639 811.631 826.43
7027.04 735.132 711.41 854.733 838.586
7029.84 752.227 755.823 849.392 878.831
7032.65 780.11 758.346 932.367 893.526
7035.46 742.7 730.92 898.819 877.118
7038.27 669.949 713.734 800.17 844.165
7041.08 728.552 676.279 833.507 835
7043.89 630.336 669.966 871.324 827.573
7046.69 651.01 658.716 777.889 830.268
7049.5 694.802 679.483 841.591 851.332
7052.31 692.637 694.637 934.517 874.627
7055.12 696.473 699.281 847.773 851.313
7057.93 708.734 725.073 771.65 838.758
7060.73 770.012 748.919 896.852 860.636
7063.54 768.011 745.699 913.407 889.708
7066.35 699.073 741.175 858.864 883.606
7069.15 756.44 707.925 878.547 848.669
7071.96 668.262 692.837 808.596 835.526
7074.77 653.808 682.633 819.436 818.656
7077.57 725.83 693.344 827.937 829.635
7080.38 700.394 722.219 841.532 843.354
7083.18 740.435 710.555 860.592 830.082
7085.99 690.836 661.701 788.122 817.194
7088.79 553.833 657.377 802.868 816.891
7091.6 727.462 658.668 859.684 825.441
7094.4 694.709 707.801 813.77 835.798
7097.21 701.233 714.374 833.941 835.673
7100.01 747.179 703.773 859.307 818.095
7102.82 662.908 682.958 761.036 797.588
7105.62 638.787 673.587 772.421 779.436
7108.43 719.065 653.919 804.851 797.287
7111.23 603.906 664.049 814.588 820.454
7114.03 669.176 653.066 841.924 828.277
7116.84 686.116 680.221 828.318 820.13
7119.64 685.371 673.066 790.149 787.695
7122.44 647.709 659.271 744.616 774.246
7125.25 644.732 638.143 787.973 747.998
7128.05 621.988 653.806 711.403 780.369
7130.85 694.698 684.386 841.731 806.828
7133.66 736.473 711.586 867.351 835.061
7136.46 703.586 709.645 796.102 834.704
7139.26 688.876 683.789 840.658 810.162
7142.06 658.905 678.924 793.725 824.29
7144.86 688.992 664.611 838.488 795.679
7147.66 645.937 623.122 754.823 778.507
7150.47 534.438 620.718 742.211 755.492
7153.27 681.78 624.254 769.442 768.056
7156.07 656.544 662.532 792.514 763.988
7158.87 649.273 663.816 730.01 773.22
7161.67 685.631 680.611 797.138 769.26
7164.47 706.928 672.429 780.632 780.094
7167.27 624.728 670.542 762.513 786.495
7170.07 679.969 644.855 816.338 791.764
7172.87 629.867 630.904 796.441 763.995
7175.67 582.875 606.284 679.206 730.031
7178.47 606.109 609.85 714.447 714.496
7181.27 640.565 612.385 749.834 731.557
7184.07 590.48 603.086 730.39 731.534
7186.87 578.214 589.441 714.378 717.946
7189.67 599.63 594.875 709.071 702.608
7192.47 606.78 624.001 684.376 717.032
7195.26 665.594 621.639 757.65 708.983
7198.06 592.544 632.506 684.924 722.121
7200.86 639.379 605.73 723.789 699.833
7203.66 585.267 628.079 690.788 734.217
7206.46 659.592 631.826 788.076 742.343
7209.25 650.62 629.48 748.165 737.98
7212.05 578.23 623.25 677.7 722.324
7214.85 640.902 611.885 741.106 720.608
7217.64 616.523 588.146 743.019 725.185
7220.44 507.015 587.61 691.43 727.547
7223.24 639.291 593.641 748.191 727.053
7226.03 634.618 622.968 741.537 735.004
7228.83 594.994 617.319 715.282 723.869
7231.63 622.345 608.166 714.787 703.649
7234.42 607.159 600.445 680.877 676.778
7237.22 571.832 594.821 634.669 665.918
7240.01 605.472 625.186 682.207 700.641
7242.81 698.254 647.007 785.046 730.699
7245.6 637.295 638.862 724.843 718.771
7248.4 581.037 584.171 646.424 695.823
7251.19 534.182 524.753 716.203 701.284
7253.99 459.039 514.826 741.225 687.596
7256.78 551.259 515.019 605.361 659.475
7259.58 534.76 539.841 631.838 622.514
7262.37 533.505 514.672 630.342 649.075
7265.16 475.749 521.398 685.045 654.437
7267.96 554.939 482.631 647.925 682.812
7270.75 417.205 408.28 715.465 665.368
7273.54 252.697 439.165 632.712 691.804
7276.34 647.593 373.295 727.235 668.386
7279.13 219.596 489.957 645.209 705.826
7281.92 602.682 452.785 745.034 665.644
7284.72 536.077 565.417 606.688 668.231
7287.51 557.493 578.173 652.97 656.653
7290.3 640.95 585.203 710.3 668.366
7293.09 557.165 598.828 641.828 677.614
7295.88 598.368 565.201 680.714 628.772
7298.68 540.068 511.984 563.773 617.73
7301.47 397.515 488.768 608.703 585.495
7304.26 528.722 451.977 584.008 620.51
7307.05 429.694 444.764 668.821 628.623
7309.84 375.876 451.525 633.041 632.427
7312.63 549.006 505.039 595.42 629.163
7315.42 590.234 574.555 659.029 649.692
7318.21 584.425 514.706 694.627 654.677
7321 369.459 501.172 610.376 651.802
7323.79 549.633 483.58 650.402 615.135
7326.58 531.649 566.916 584.628 632.298
7329.37 619.466 559.206 661.865 613.577
7332.16 526.504 566.335 594.237 639.76
7334.95 553.035 529.586 663.177 579.627
7337.74 509.219 548.13 481.467 598.515
7340.53 582.135 531.51 650.902 603.534
7343.31 503.177 530.981 678.234 667.106
7346.1 507.632 498.746 672.183 676.932
7348.89 485.43 486.201 680.38 660.438
7351.68 465.54 496.483 628.752 658.887
7354.47 538.479 490.024 667.528 637.063
7357.25 466.053 502.703 614.908 639.922
7360.04 503.576 514.127 637.329 633.801
7362.83 572.752 532.174 649.165 640.761
7365.61 520.192 555.747 635.789 647.883
7368.4 574.298 513.309 658.696 629.118
7371.19 445.437 487.646 592.871 626.192
7373.97 443.205 452.346 627.01 617.655
7376.76 468.397 471.248 633.084 640.02
7379.55 502.143 485.99 659.966 629.776
7382.33 487.428 498.039 596.279 599.129
7385.12 504.546 491.423 541.142 582.697
7387.9 482.294 481.663 610.671 558.223
7390.69 458.149 484.6 522.855 571.964
7393.47 513.357 518.174 582.365 574.789
7396.26 583.017 519.855 619.146 612.968
7399.04 463.192 516.935 637.394 636.746
7401.83 504.596 468.66 653.697 615.497
7404.61 438.191 484.765 555.399 604.974
7407.39 511.509 471.899 605.826 588.532
7410.18 465.998 480.858 604.373 575.061
7412.96 465.067 466.254 514.984 542.139
7415.75 467.699 473.753 507.059 537.753
7418.53 488.493 463.271 591.215 535.983
7421.31 433.622 457.702 509.674 558.807
7424.09 450.991 465.579 575.532 553.556
7426.88 512.124 498.919 575.46 587.902
7429.66 533.642 498.328 612.715 578.962
7432.44 449.219 494.445 548.712 585.495
7435.22 500.473 490.063 595.058 584.287
7438.01 520.496 496.83 609.09 599.226
7440.79 469.522 487.269 593.529 602.669
7443.57 471.788 477.593 605.388 598.874
7446.35 491.47 464.237 597.706 557.993
7449.13 429.452 450.298 470.886 537.482
7451.91 429.97 431.653 543.853 523.194
7454.69 435.536 437.542 554.844 550.888
7457.47 447.12 452.438 553.969 564.013
7460.25 474.658 449.991 583.226 551.488
7463.03 428.193 442.695 517.267 547.624
7465.81 425.234 411.52 542.379 519.19
7468.59 381.131 416.139 497.923 548.182
7471.37 442.051 421.928 604.243 563.981
7474.15 442.601 447.024 589.776 591.092
7476.93 456.422 434.665 579.257 556.288
7479.71 404.974 441.866 499.832 568.571
7482.49 464.202 451.44 626.625 568.527
7485.27 485.145 468.313 579.125 584.728
7488.04 455.591 448.361 548.434 558.084
7490.82 404.346 423.871 546.692 540.196
7493.6 411.676 383.955 525.461 507.378
7496.38 335.842 382.324 449.981 489.761
7499.15 399.455 405.403 493.842 510.188
7501.93 480.913 443.084 586.742 534.323
7504.71 448.884 449.198 522.384 548.307
7507.49 417.796 427.043 535.794 509.965
7510.26 414.45 410.806 471.717 502.988
7513.04 400.171 413.106 501.452 473.581
7515.81 424.698 427.066 447.573 504.063
7518.59 456.33 445.43 563.163 507.726
7521.37 455.261 450.983 512.442 540.801
7524.14 441.358 435.671 546.799 521.218
7526.92 410.392 441.738 504.412 533.11
7529.69 473.463 417.81 548.117 514.984
7532.47 369.574 412.521 492.422 497.304
7535.24 394.525 404.597 451.372 475.429
7538.02 449.693 412.404 482.491 449.053
7540.79 392.992 412.009 413.294 449.495
7543.56 393.34 401.745 452.701 458.057
7546.34 418.902 398.281 508.176 465.636
7549.11 382.601 394.046 436.031 482.768
7551.89 380.635 388.108 504.097 467.07
7554.66 401.089 382.013 461.083 454.415
7557.43 364.315 395.163 398.064 444.555
7560.21 420.085 382.937 474.518 420.368
7562.98 364.411 398.749 388.521 447.599
7565.75 411.75 399.655 479.759 419.223
7568.52 422.803 397.424 389.389 430.477
7571.3 357.72 382.356 422.282 422.135
7574.07 366.546 348.148 454.732 446.647
7576.84 320.177 333.53 462.928 437.285
7579.61 313.866 336.102 394.195 436.879
7582.38 374.262 349.415 453.516 421.531
7585.15 360.115 339.792 416.882 421.825
7587.92 284.999 309.493 395.078 384.42
7590.69 283.365 280.412 341.299 359.189
7593.46 272.871 252.423 341.189 321.907
7596.23 201.033 199.387 283.233 274.14
7599 124.256 148.283 197.997 207.565
7601.77 119.56 109.792 141.464 161.06
7604.54 85.5585 104.83 143.718 130.076
7607.31 109.37 118.081 105.047 136.677
7610.08 159.314 161.052 161.266 168.092
7612.85 214.473 192.933 237.963 220.925
7615.62 205.011 206.077 263.547 250.606
7618.39 198.747 208.425 250.308 261.684
7621.16 221.517 190.981 271.196 264.503
7623.93 152.68 192.337 272.004 258.925
7626.69 202.814 163.679 233.574 239.171
7629.46 135.543 167.755 211.933 214.421
7632.23 164.908 166.829 197.756 204.444
7635 200.035 183.4 203.643 217.413
7637.76 185.257 209.884 250.839 245.132
7640.53 244.36 212.731 280.913 255.543
7643.3 208.575 231.023 234.877 269.27
7646.06 240.134 232.538 292.019 264.226
7648.83 248.906 242.892 265.781 272.766
7651.59 239.634 252.33 260.499 281.456
7654.36 268.449 267.536 318.088 311.585
7657.13 294.524 270.057 356.169 338.512
7659.89 247.198 275.004 341.28 352.528
7662.66 283.289 289.802 360.136 368.432
7665.42 338.919 307.5 403.879 376.889
7668.19 300.293 315.122 366.65 380.128
7670.95 306.155 313.858 369.853 377.176
7673.72 335.127 331.022 395.024 394.644
7676.48 351.783 339.249 419.055 386.111
7679.24 330.838 351.801 344.254 379.898
7682.01 372.784 351.65 376.385 377.606
7684.77 351.327 352.668 412.179 374.595
7687.53 333.893 334.38 335.219 378.867
7690.3 317.92 340.934 389.203 368.603
7693.06 370.987 330.59 381.387 387.511
7695.82 302.863 341.576 391.944 388.907
7698.58 350.878 359.202 393.391 394.062
7701.35 423.864 406.989 396.852 389.744
7704.11 446.226 471.197 378.99 376.321
7706.87 543.5 443.225 353.121 356.867
7709.63 339.948 436.853 338.489 350.772
7712.39 427.112 372.313 360.705 386.711
7715.15 349.88 396.74 460.938 446.184
7717.92 413.229 366.032 516.909 483.977
7720.68 334.986 357.662 474.083 471.703
7723.44 324.77 339.741 424.116 434.598
7726.2 359.467 358.507 405.594 435.535
7728.96 391.282 354.643 476.894 421.18
7731.72 313.18 358.333 381.051 404.943
7734.48 370.536 349.121 356.883 363.34
7737.24 363.647 368.496 352.087 358.662
7740 371.306 368.012 367.016 352.655
7742.75 369.082 375.052 338.863 364.158
7745.51 384.769 388.069 386.595 366.268
7748.27 410.356 394.045 373.346 370.79
7751.03 387.009 385.091 352.43 404.727
7753.79 357.907 370.609 488.406 420.602
7756.55 366.913 357.642 420.97 464.151
7759.3 348.107 358.56 483.076 447.028
7762.06 360.659 358.759 437.037 467.804
7764.82 367.51 367.019 483.297 463.205
7767.58 372.888 361.903 469.28 454.013
7770.33 345.309 373.195 409.46 420.621
7773.09 401.388 370.627 383.123 388.704
7775.84 365.184 397.991 373.529 404.349
7778.6 427.4 392.898 456.393 406.505
7781.36 386.11 373.453 389.594 400.692
7784.11 306.849 366.015 356.089 366.798
7786.87 405.086 344.427 354.711 350.225
7789.62 321.346 353.308 339.874 351.82
7792.38 333.492 336.726 360.875 369.11
7795.13 355.339 368.525 406.582 424.246
7797.89 416.743 360.035 505.28 423.747
7800.64 308.024 377.041 359.38 435.539
7803.4 406.356 365.633 441.956 401.118
7806.15 382.518 396.259 402.02 417.451
7808.9 399.904 380.599 408.376 408.548
7811.66 359.374 378.955 415.249 391.97
7814.41 377.586 374.715 352.286 372.827
7817.16 387.184 340.466 350.946 324.168
7819.92 256.629 330.511 269.273 336.001
7822.67 347.721 328.88 387.784 405.342
7825.42 382.29 362.893 558.97 458.303
7828.17 358.666 363.779 428.156 468.336
7830.93 350.381 349.696 417.881 413.767
7833.68 340.04 349.922 395.263 382.549
7836.43 359.344 378.709 334.504 384.944
7839.18 436.742 410.867 425.064 387.338
7841.93 436.514 409.166 402.446 389.882
7844.68 354.243 378.67 342.135 336.485
7847.43 345.254 363.204 264.873 325.233
7850.18 390.116 407.241 368.69 352.177
7852.93 486.354 414.536 422.969 383.821
7855.68 367.138 409.524 359.805 395.833
7858.43 375.079 387.486 404.726 409.716
7861.18 420.241 369.099 464.618 419.26
7863.93 311.977 371.998 388.435 431.037
7866.68 383.776 368.26 440.059 419.135
7869.43 409.028 389.119 428.911 410.922
7872.18 374.552 373.702 363.797 412.658
7874.93 337.527 363.805 445.265 407.504
7877.67 379.337 350.001 413.449 421.864
7880.42 333.141 355.783 406.876 392.957
7883.17 354.873 356.368 358.544 398.799
7885.92 381.089 364.058 430.977 399.284
7888.67 356.212 348.846 408.331 392.11
7891.41 309.236 328.097 337.022 359.663
7894.16 318.842 330.554 333.635 342.462
7896.91 363.583 357.645 356.728 372.257
7899.65 390.509 387.482 426.408 407.964
7902.4 408.356 373.148 440.756 386.529
7905.14 320.579 392.954 292.422 360.672
7907.89 449.929 377.232 348.837 306.331
7910.64 361.189 390.536 277.732 311.464
7913.38 360.489 341.083 307.824 305.789
7916.13 301.571 326.425 331.81 349.384
7918.87 317.215 344.638 408.517 401.889
7921.61 415.129 377.359 465.34 438.956
7924.36 399.732 378.806 443.011 421.09
7927.1 321.558 374.866 354.921 409.734
7929.85 403.307 370.79 431.27 401.245
7932.59 387.504 386.179 417.545 397.886
7935.33 367.727 369.098 344.842 386.323
7938.08 352.062 331.72 396.582 346.861
7940.82 275.371 323.164 299.16 359.16
7943.56 342.06 315.939 381.74 325.281
7946.31 330.386 350.605 294.945 347.861
7949.05 379.371 354.486 366.898 351.491
7951.79 353.7 360.676 392.628 373.922
7954.53 348.958 344.394 362.24 365.841
7957.27 330.525 362.581 342.655 369.877
7960.01 408.259 368.13 404.734 342.032
7962.76 365.605 389.044 278.706 349.831
7965.5 393.268 366.247 366.051 353.214
7968.24 339.867 362.201 414.883 392.347
7970.98 353.467 337.192 396.107 378.01
7973.72 318.241 337.326 323.039 334.635
7976.46 340.269 341.069 284.76 319.202
7979.2 364.698 346.616 349.805 322.097
7981.94 334.88 327.828 331.725 313.617
7984.68 283.906 327.843 259.32 286.399
7987.41 364.742 351.951 268.151 264.384
7990.15 407.206 369.65 265.682 267.343
7992.89 337.003 340.021 268.195 318.299
7995.63 275.855 313.012 421.021 374.314
7998.37 326.179 308.119 433.725 416.224
8001.11 322.322 321.562 393.926 399.381
8003.84 316.184 318.495 370.49 358.23
8006.58 316.981 289.305 310.274 308.482
8009.32 234.749 297.559 244.682 275.058
8012.06 340.948 289.646 270.218 276.105
8014.79 293.242 319.52 313.415 310.347
8017.53 324.369 317.653 347.408 321.281
8020.26 335.348 328.014 303.019 299.983
8023 324.325 302.768 249.523 282.613
8025.74 248.63 286.896 295.296 293.612
8028.47 287.732 284.513 336.016 333.717
8031.21 317.177 293.183 369.838 330.671
8033.94 274.639 302.372 286.158 322.163
8036.68 315.3 294.211 310.492 298.749
8039.41 292.694 318.917 299.597 311.55
8042.15 348.756 299.722 324.559 296.722
8044.88 257.715 294.287 266.009 290.215
8047.61 276.391 272.598 280.076 273.477
8050.35 283.689 283.555 274.347 282.188
8053.08 290.586 294.996 292.143 301.912
8055.81 310.713 292.105 339.247 306.438
8058.55 275.016 282.902 287.925 313.488
8061.28 262.976 249.275 313.291 284.204
8064.01 209.832 253.48 251.395 290.486
8066.74 287.631 271.492 306.771 289.877
8069.48 317.012 279.05 311.466 297.71
8072.21 232.507 278.185 274.892 295.485
8074.94 285.035 264.556 300.097 280.732
8077.67 276.125 280.024 267.206 286.254
8080.4 278.913 272.556 291.459 264.619
8083.13 262.631 255.636 235.192 262.81
8085.86 225.363 243.883 261.78 257.283
8088.59 243.654 251.275 274.878 278.173
8091.32 284.808 260.238 297.861 266.887
8094.05 252.252 273.59 227.923 252.065
8096.78 283.71 271.561 230.413 226.99
8099.51 278.719 283.208 222.635 234.456
8102.24 287.195 290.399 250.32 252.849
8104.97 305.281 267.492 285.593 256.683
8107.7 210.001 240.557 234.137 248.157
8110.43 206.39 226.804 224.741 236.988
8113.16 264.02 249.731 252.087 241.595
8115.88 278.782 279.09 247.956 264.234
8118.61 294.467 273.979 292.658 255.444
8121.34 248.687 263.374 225.718 245.47
8124.07 246.968 252.049 218.033 232.701
8126.79 260.491 249.392 254.352 236.683
8129.52 240.716 250.747 237.664 235.104
8132.25 251.033 246.6 213.295 233.067
8134.97 248.051 246.91 248.24 227.238
8137.7 241.645 244.56 220.178 235.224
8140.43 243.983 230.902 237.253 207.755
8143.15 207.078 228.289 165.834 228.499
8145.88 233.808 225.385 282.409 223.311
8148.6 235.271 234.962 221.691 230.11
8151.33 235.806 233.645 186.232 214.28
8154.05 229.859 239.048 234.916 221.366
8156.77 251.48 229.839 242.951 229.734
8159.5 208.177 232.714 211.334 212.774
8162.22 238.485 225.862 184.036 201.13
8164.95 230.923 234.576 208.02 205.912
8167.67 234.319 245.645 225.679 226.614
8170.39 271.694 250.35 246.143 238.186
8173.12 245.037 245.86 242.737 243.024
8175.84 220.85 232.594 240.192 224.592
8178.56 231.896 220.9 190.847 211.767
8181.28 209.955 224.763 204.261 197.701
8184 232.437 226.466 197.994 196.058
8186.73 237.006 231.797 185.918 195.951
8189.45 225.947 223.164 203.942 203.091
8192.17 206.538 224.954 219.412 231.24
8194.89 242.378 204.458 270.365 222.113
8197.61 164.458 205.071 176.562 226.039
8200.33 208.378 200.677 231.19 214.979
8203.05 229.196 213.184 237.184 235.981
8205.77 201.978 212.981 239.569 231.102
8208.49 207.768 205.284 216.553 223.758
8211.21 206.106 209.922 215.152 217.213
8213.93 215.892 207.163 219.933 208.962
8216.65 199.492 223.519 191.802 208.709
8219.37 255.173 223.64 214.392 207.833
8222.09 216.255 229.936 217.305 219.796
8224.8 218.38 214.963 227.692 219.257
8227.52 210.255 204.53 212.775 212.419
8230.24 184.955 193.018 196.791 199.624
8232.96 183.843 198.448 189.307 193.657
8235.67 226.545 207.76 194.874 205.991
8238.39 212.891 230.331 233.791 210.936
8241.11 251.556 216.472 204.143 210.213
8243.82 184.967 221.182 192.704 206.152
8246.54 227.022 218.714 221.61 207.068
8249.26 244.152 240.112 206.889 222.851
8251.97 249.161 235.363 240.054 223.549
8254.69 212.777 205.07 223.705 220.421
8257.4 153.272 191.471 197.505 212.451
8260.12 208.364 181.842 216.144 214.379
8262.83 183.891 202.658 229.486 214.821
8265.55 215.72 207.337 198.834 206.28
8268.26 222.4 215.142 190.52 190.344
8270.98 207.306 211.579 181.68 187.986
8273.69 205.032 210.347 191.759 177.595
8276.4 218.704 197.086 159.348 171.217
8279.12 167.523 187.301 162.543 190.473
8281.83 175.676 164.108 249.529 201.309
8284.54 149.125 170.812 191.855 193.019
8287.25 187.634 162.155 137.673 155.779
8289.97 149.705 183.324 137.809 157.346
8292.68 212.634 188.443 196.555 179.921
8295.39 202.989 227.201 205.401 231.475
8298.1 265.98 206.332 292.469 216.325
8300.81 150.028 204.96 151.105 222.167
8303.52 198.874 183.155 222.927 205.209
8306.24 200.563 197.176 241.595 195.75
8308.95 192.091 189.434 122.728 175.677
8311.66 175.65 195.78 162.707 160.474
8314.37 219.598 197.768 195.987 186.432
8317.08 198.054 192.401 200.603 193.406
8319.79 159.55 197.477 183.627 194.082
8322.49 234.827 196.629 198.015 189.904
8325.2 195.509 204.189 188.069 191.775
8327.91 182.231 194.598 189.239 194.241
8330.62 206.053 184.385 205.414 172.733
8333.33 164.872 196.349 123.547 161.742
8336.04 218.124 216.743 156.266 158.395
8338.74 267.232 255.273 195.372 170.74
8341.45 280.462 254.486 160.581 168.027
8344.16 215.765 208.584 148.129 155.465
8346.87 129.525 147.925 157.685 181.677
8349.57 98.4848 138.945 239.218 206.149
8352.28 188.825 135.025 221.543 210.892
8354.99 117.766 136.151 171.915 196.78
8357.69 101.861 108.906 196.883 179.961
8360.4 107.089 113.631 171.085 173.658
8363.1 131.942 134.335 153.005 160.69
8365.81 163.973 153.874 157.978 178.034
8368.51 165.706 187.495 223.118 200.973
8371.22 232.808 194.428 221.823 211.768
8373.92 184.771 230.065 190.361 220.892
8376.63 272.616 234.826 250.492 186.386
8379.33 247.092 223.669 118.305 181.904
8382.03 151.299 188.551 176.913 142.602
8384.74 167.263 160.471 132.587 141.895
8387.44 162.85 167.793 116.185 144.353
8390.14 173.265 197.98 184.285 171.245
8392.85 257.825 214.476 213.265 179.759
8395.55 212.34 190.023 141.728 186.555
8398.25 99.9046 174.471 204.673 180.856
8400.95 211.167 175.001 196.165 199.89
8403.65 213.932 190.256 198.833 181.558
8406.35 145.669 172.005 149.677 167.121
8409.06 156.415 171.268 152.852 136.339
8411.76 211.721 159.486 106.488 130.467
8414.46 110.322 163.821 132.061 119.363
8417.16 169.419 139.541 119.54 112.943
8419.86 138.883 168.614 87.2272 126.51
8422.56 197.54 167.866 172.762 121.202
8425.26 167.176 219.728 103.618 137.856
8427.96 294.468 258.65 137.189 130.973
8430.66 314.307 257.805 152.112 118.028
8433.35 164.64 209.233 64.7835 129.943
8436.05 148.752 159.448 172.934 147.162
8438.75 164.953 169.795 203.767 176.536
8441.45 195.68 180.186 152.906 172.586
8444.15 179.925 190.699 161.085 160.016
8446.84 196.491 188.883 166.057 153.079
8449.54 190.233 191.064 132.095 152.005
8452.24 186.468 187.041 157.864 156.525
8454.93 184.421 170.434 179.617 171.642
8457.63 140.412 185.659 177.445 185.534
8460.33 232.144 191.383 199.539 166.258
8463.02 201.592 189.992 121.791 152.309
8465.72 136.241 179.742 135.598 137.494
8468.41 201.394 130.978 155.093 139.061
8471.11 55.2998 146.408 126.492 120.584
8473.8 182.529 133.175 80.1657 113.268
8476.5 161.697 174.085 133.148 111.089
8479.19 178.028 178.073 119.953 141.118
8481.89 194.494 180.159 170.254 135.718
8484.58 167.954 198.819 116.948 161.237
8487.27 234.01 204.389 196.509 149.458
8489.97 211.202 193.335 134.918 141.753
8492.66 134.792 201.766 93.8312 139.167
8495.35 259.304 210.54 188.752 142.288
8498.05 237.525 233.342 144.28 158.572
8500.74 203.197 242.718 142.685 140.147
8503.43 287.431 247.734 133.477 129.672
8506.12 252.573 252.793 112.854 128.627
8508.81 218.375 218.333 139.549 143.295
8511.5 184.051 188.678 177.483 135.561
8514.19 163.608 179.279 89.6509 137.939
8516.88 190.18 190.774 146.684 128.438
8519.58 218.534 202.531 148.979 144.017
8522.27 198.881 203.812 136.387 138.66
8524.96 194.023 197.024 130.613 143.944
8527.64 198.167 198.582 164.83 150.291
8530.33 203.557 211.396 155.429 141.245
8533.02 232.465 208.879 103.475 147.016
8535.71 190.614 217.246 182.145 142.002
8538.4 228.66 213.381 140.386 155.907
8541.09 220.867 213.461 145.189 142.738
8543.78 190.855 202.93 142.638 151.875
8546.46 197.067 193.425 167.799 157.405
8549.15 192.353 198.769 161.777 154.649
8551.84 206.886 206.206 134.371 151.141
8554.53 219.378 197.937 157.273 129.999
8557.21 167.546 198.388 98.3516 128.204
8559.9 208.239 197.392 128.987 128.268
8562.58 216.392 207.457 157.466 149.52
8565.27 197.74 214.035 162.108 154.811
8567.96 227.972 223.077 144.859 152.576
8570.64 243.519 227.966 150.762 164.941
8573.33 212.409 229.127 199.201 172.471
8576.01 231.454 232.243 167.45 177.274
8578.69 252.866 238.877 165.17 156.22
8581.38 232.311 232.579 136.042 151.126
8584.06 212.561 214.507 152.167 135.173
8586.75 198.648 213.725 117.309 158.64
8589.43 229.965 213.378 206.444 162.978
8592.11 211.522 226.334 165.182 180.247
8594.8 237.515 218.487 169.116 165.925
8597.48 206.423 227.293 163.478 168.513
8600.16 237.94 221.549 172.946 160.354
8602.84 220.285 243.447 144.639 154.317
8605.52 272.118 240.21 145.365 149.928
8608.21 228.227 233.734 159.78 147.87
8610.89 200.857 224.378 138.467 153.75
8613.57 244.05 234.775 163.005 163.581
8616.25 259.416 253.187 189.273 168.182
8618.93 256.095 243.352 152.268 169.489
8621.61 214.545 232.441 166.928 170.591
8624.29 226.683 212.242 192.577 173.914
8626.97 195.499 215.101 162.238 167.323
8629.65 223.12 206.031 147.155 139.008
8632.33 199.475 211.201 107.631 143.022
8635.01 211.008 188.07 174.282 117.22
8637.68 153.726 206.033 69.7477 133.071
8640.36 253.366 215.386 155.182 121.439
8643.04 239.066 248.547 139.388 132.078
8645.72 253.209 235.1 101.664 132.409
8648.4 213.026 261.633 156.175 136.432
8651.07 318.664 279.76 151.458 170.657
8653.75 307.59 286.709 204.337 159.15
8656.43 233.873 268.946 121.655 158.568
8659.1 265.375 245.125 149.71 119.211
8661.78 236.127 248.935 86.267 147.079
8664.45 245.304 264.959 205.26 149.581
8667.13 313.447 271.725 157.215 175.843
8669.8 256.424 275.313 165.054 152.027
8672.48 256.067 238.599 133.812 136.063
8675.15 203.307 226.622 109.322 116.359
8677.83 220.492 208.951 105.943 115.296
8680.5 203.054 225.137 130.623 139.592
8683.18 251.864 231.845 182.211 157.705
8685.85 240.617 246.971 160.282 167.512
8688.52 248.431 239.804 160.042 153.375
8691.2 230.365 245.479 139.801 152.047
8693.87 257.642 254.415 156.299 151.298
8696.54 275.236 266.461 157.796 170.085
8699.21 266.504 271.24 196.161 175.445
8701.89 271.981 260.121 172.377 158.701
8704.56 241.878 249.461 107.564 124.543
8707.23 234.525 235.42 93.6875 122.9
8709.9 229.857 242.159 167.448 129.801
8712.57 262.094 242.9 128.267 139.316
8715.24 236.748 237.776 122.235 118.372
8717.91 214.486 227.494 104.614 111.814
8720.58 231.25 233.317 108.594 117.309
8723.25 254.216 252.613 138.718 139.573
8725.92 272.374 255.341 171.408 150.748
8728.59 239.433 247.651 142.117 152.377
8731.26 231.145 241.265 143.608 137.013
8733.93 253.217 244.098 125.315 136.551
8736.59 247.934 249.046 140.731 147.08
8739.26 245.987 245.195 175.194 148.983
8741.93 241.663 239.402 131.023 131.674
8744.6 230.554 227.995 88.8059 100.816
8747.26 211.769 239.977 82.6199 90.5617
8749.93 277.606 245.508 100.259 106.781
8752.6 247.15 244.172 137.465 118.882
8755.26 207.761 217.626 118.921 152.761
8757.93 197.967 207.563 201.898 122.055
8760.6 216.959 226.334 45.3471 94.7815
8763.26 264.076 237.68 37.0993 -5.82825
8765.93 232.004 234.463 -99.9312 -36.0405
8768.59 207.307 190.142 -45.2896 -96.0713
8771.26 131.114 190.116 -142.993 -38.9073
8773.92 231.927 211.433 71.5607 4.29279
8776.58 271.257 245.077 84.3108 29.1902
8779.25 232.047 254.997 -68.3008 -3.41207
8781.91 261.688 241.605 -26.2461 -58.1887
8784.57 231.08 238.694 -80.019 -2.81178
8787.24 223.313 214.563 97.8298 19.6428
8789.9 189.295 202.379 41.1176 45.9303
8792.56 194.528 209.539 -1.15659 38.524
8795.22 244.794 201.7 75.6109 31.0345
8797.89 165.779 224.821 18.6494 67.025
8800.55 263.891 218.522 106.815 61.0941
8803.21 225.896 235.723 57.8183 72.9511
8805.87 217.382 220.185 54.2203 48.84
8808.53 217.277 222.358 34.4814 37.1692
8811.19 232.416 232.516 22.8059 24.6637
8813.85 247.855 255.351 16.7037 41.2637
8816.51 285.781 262.896 84.2815 59.4239
8819.17 255.053 269.34 77.2866 108.675
8821.83 267.187 275.603 164.458 43.9751
8824.49 304.568 327.278 -109.819 -24.9791
8827.15 410.08 305.848 -129.576 -183.805
8829.8 202.896 296.46 -312.02 -179.378
8832.46 276.404 242.233 -96.5394 -98.9809
8835.12 247.398 256.878 111.616 -0.00903234
8837.78 246.832 274.695 -15.104 41.2406
8840.44 329.856 255.636 27.2095 59.2834
8843.09 190.222 244.708 165.745 86.4149
8845.75 214.045 205.991 66.2907 116.943
8848.41 213.705 229.279 118.795 71.2271
8851.06 260.085 251.874 28.5959 24.2894
8853.72 281.832 251.445 -74.5224 14.2964
8856.37 212.42 235.812 88.8156 16.7768
8859.03 213.185 218.665 36.0372 48.2666
8861.68 230.39 237.239 19.9468 12.5354
8864.34 268.143 235.415 -18.3778 1.50798
8866.99 207.711 246.163 2.95499 -6.45307
8869.65 262.636 255.671 -3.93637 -5.29872
8872.3 296.666 260.416 -14.9148 39.1239
8874.95 221.947 247.899 136.223 43.2711
8877.61 225.084 203.857 8.50541 44.6486
8880.26 164.542 207.172 -10.7823 -33.0402
8882.91 231.891 220.121 -96.8438 -23.4982
8885.56 263.929 233.519 37.1316 7.10427
8888.22 204.737 208.915 81.025 108.625
8890.87 158.08 157.069 207.719 138.136
8893.52 108.391 141.622 125.666 136.412
8896.17 158.395 159.883 75.8528 52.0351
8898.82 212.865 200.854 -45.4132 -8.88784
8901.47 231.303 197.776 -57.1031 -46.44
8904.12 149.159 204.296 -36.8038 -16.0921
8906.77 232.425 189.867 45.6307 -0.980837
8909.42 188.017 210.125 -11.7694 9.69757
8912.07 209.933 174.772 -4.76856 -59.6789
8914.72 126.367 191.477 -162.499 -86.1948
8917.37 238.133 214.792 -91.3173 -41.7095
8920.02 279.877 210.218 128.687 -30.2473
8922.66 112.645 183.229 -128.112 37.1893
8925.31 157.166 127.143 110.992 -53.7729
8927.96 111.619 153.088 -144.199 -20.2512
8930.61 190.478 151.994 -27.5471 -55.6903
8933.25 153.885 191.134 4.67496 -34.7479
8935.9 229.037 199.215 -81.3717 -22.932
8938.55 214.722 233.297 7.90085 -40.8972
8941.19 256.134 214.89 -49.2208 -10.2841
8943.84 173.815 214.522 10.4678 14.3988
8946.49 213.617 197.228 81.9494 -17.1677
8949.13 204.251 171.977 -143.92 -99.9176
8951.78 98.0638 158.229 -237.782 -199.747
8954.42 172.372 165.297 -217.538 -122.383
8957.06 225.454 224.171 88.1696 12.4724
8959.71 274.687 227.531 166.786 78.6477
8962.35 182.451 181.265 -19.012 -67.7125
8965 86.6577 125.554 -350.911 -219.252
8967.64 107.554 108.6 -287.834 -288.763
8970.28 131.588 139.12 -227.545 -185.425
8972.92 178.22 170.806 -40.8964 -80.6368
8975.57 202.612 183.892 26.531 1.01321
8978.21 170.845 176.433 17.405 29.2835
8980.85 155.843 174.329 43.9145 32.7353
8983.49 196.298 178.59 36.8865 43.0573
8986.13 183.63 183.534 48.3709 66.3678
8988.77 170.675 182.152 113.846 81.5019
8991.41 192.153 183.071 82.2887 70.6853
8994.05 186.387 187.654 15.9214 -11.3633
8996.69 184.422 178.424 -132.3 44.5436
8999.33 164.464 175.485 250.009 110.873
9001.97 177.568 177.827 214.909 226.228
9004.61 191.449 161.21 213.766 92.4091
9007.25 114.613 153.978 -151.447 -119.776
9009.89 155.872 139.364 -421.647 -250.434
9012.53 147.607 161.207 -178.208 -222.184
9015.17 180.144 159.656 -66.6981 -67.9572
9017.8 151.218 170.961 41.0345 27.8085
9020.44 181.52 167.457 109.089 63.0753
9023.08 169.633 159.904 39.1021 76.4873
9025.71 128.559 148.908 81.2708 88.8288
9028.35 148.534 147.656 146.114 122.968
9030.99 165.876 156.824 141.52 125.106
9033.62 156.062 170.159 87.6843 139.885
9036.26 188.539 171.457 190.449 159.058
9038.89 169.77 170.655 199.041 154.594
9041.53 153.655 164.294 74.2915 99.211
9044.16 169.457 177.532 24.3006 81.0054
9046.8 209.485 185.645 144.424 152.43
9049.43 177.994 185.628 288.565 180.792
9052.06 169.405 172.017 109.388 135.586
9054.7 168.652 161.326 8.80479 -13.2628
9057.33 145.923 162.074 -157.981 -87.6961
9059.96 171.647 168.996 -113.912 -88.5822
9062.6 189.419 174.35 6.1466 -13.7362
9065.23 161.985 159.876 66.5566 62.3929
9067.86 128.224 135.048 114.475 77.6463
9070.49 114.936 81.0534 51.9069 55.4608
