wavelength spec_sum spec_optimal
3524.16 138.371 112.089
3527.08 137.977 114.961
3530.01 139.932 118.999
3532.93 140.007 121.893
3535.86 136.418 118.926
3538.78 127.182 120.676
3541.71 145.849 134.45
3544.63 136.706 128.297
3547.56 131.247 127.286
3550.48 121.786 106.806
3553.41 150.182 146.08
3556.33 137.208 129.456
3559.26 141.816 123.352
3562.18 145.763 125.515
3565.11 151.915 135.738
3568.03 153.997 131.872
3570.96 148.48 127.596
3573.88 144.884 126.195
3576.81 155.026 128.824
3579.73 150.294 125.312
3582.66 153.209 129.644
3585.58 155.701 134.034
3588.5 143.662 121.303
3591.43 132.507 113.013
3594.35 144.952 130.308
3597.28 127.265 108.054
3600.2 153.574 130.988
3603.13 146.093 128.711
3606.05 148.725 127.167
3608.97 154.823 135.277
3611.9 150.599 130.021
3614.82 157.486 138.657
3617.75 152.65 131.705
3620.67 142.296 122.417
3623.59 149.732 129.024
3626.52 132.803 119.936
3629.44 151.582 136.827
3632.36 146.352 130.904
3635.29 155.173 137.928
3638.21 128.8 121.344
3641.13 136.537 117.226
3644.06 148.136 130.489
3646.98 126.259 109.702
3649.91 124.706 108.09
3652.83 106.992 102.476
3655.75 127.317 118.904
3658.68 126.697 112.936
3661.6 111.421 98.2006
3664.52 117.237 102.678
3667.45 99.4698 90.0207
3670.37 112.511 96.3856
3673.29 93.3865 86.0555
3676.21 99.536 87.3327
3679.14 97.5498 85.8805
3682.06 101.244 84.4592
3684.98 96.4989 76.7197
3687.91 86.2567 71.381
3690.83 72.8641 66.6059
3693.75 76.2962 70.0102
3696.67 70.0645 62.6386
3699.6 76.9521 66.716
3702.52 71.9455 59.2285
3705.44 66.4277 61.1902
3708.36 66.3222 57.4773
3711.29 66.5789 54.9247
3714.21 67.7189 61.7241
3717.13 60.8025 52.8286
3720.05 66.513 57.3917
3722.98 54.6816 54.4194
3725.9 59.6962 53.1442
3728.82 60.5885 54.4636
3731.74 55.9718 51.9499
3734.67 56.2517 49.4327
3737.59 54.662 51.2323
3740.51 57.4967 51.6442
3743.43 62.9616 51.4007
3746.35 47.748 46.6523
3749.28 50.2838 48.3599
3752.2 44.3362 45.116
3755.12 49.496 45.2729
3758.04 44.7289 38.4516
3760.96 36.3998 34.7671
3763.88 44.4309 44.529
3766.81 49.8398 51.387
3769.73 43.1986 50.8864
3772.65 40.87 43.4349
3775.57 44.7216 48.4871
3778.49 37.6262 44.3156
3781.41 46.6906 48.003
3784.34 48.4481 48.404
3787.26 52.7321 49.3963
3790.18 55.2892 51.991
3793.1 42.9964 47.1497
3796.02 49.4722 48.0009
3798.94 42.9128 44.5157
3801.86 47.5348 50.8237
3804.78 54.2 54.8388
3807.7 58.7046 61.1752
3810.63 52.1662 54.2814
3813.55 56.7181 58.8421
3816.47 54.8978 60.4782
3819.39 59.0369 60.4386
3822.31 54.2638 54.9313
3825.23 55.6202 56.1064
3828.15 57.9539 59.207
3831.07 59.7217 55.3908
3833.99 62.8351 58.465
3836.91 69.6341 68.7036
3839.83 61.6966 59.5562
3842.75 61.5116 58.9115
3845.67 68.4545 68.9214
3848.59 63.9812 61.8459
3851.51 58.0524 57.3141
3854.43 64.8566 65.9039
3857.35 59.6699 61.4574
3860.27 61.6345 61.8348
3863.19 61.7485 61.819
3866.12 63.8786 62.3835
3869.04 65.6684 64.3801
3871.96 68.9111 69.571
3874.87 64.3894 62.025
3877.79 68.839 66.9589
3880.71 73.4296 71.3738
3883.63 81.1607 82.2248
3886.55 89.3437 91.8977
3889.47 80.6703 87.1952
3892.39 86.9014 85.0845
3895.31 87.1127 86.0906
3898.23 94.3562 98.9364
3901.15 91.8776 94.3397
3904.07 96.318 101.319
3906.99 93.2574 109.701
3909.91 104.528 116.588
3912.83 112.673 129.307
3915.75 108.976 119.017
3918.67 118.874 124.625
3921.59 123.975 127.185
3924.51 121.311 125.374
3927.43 120.226 117.462
3930.34 122.634 120.171
3933.26 127.439 122.239
3936.18 138.931 133.152
3939.1 139.003 135.299
3942.02 147.36 149.793
3944.94 147.018 156.112
3947.86 132.398 135.057
3950.78 153.547 153.882
3953.69 158.466 158.577
3956.61 146.855 148.351
3959.53 154.82 148.344
3962.45 153.581 147.403
3965.37 160.391 152.863
3968.29 166.447 159.936
3971.21 177.9 169.974
3974.12 161.872 158.776
3977.04 163.995 162.562
3979.96 164.435 166.735
3982.88 171.95 173.433
3985.8 177.875 178.684
3988.71 173.555 180.553
3991.63 174.947 182.577
3994.55 167.394 176.924
3997.47 169.674 176.699
4000.39 174.483 182.53
4003.3 172.084 177.207
4006.22 175.089 182.099
4009.14 165.824 177.607
4012.06 179.298 181.338
4014.97 168.722 173.309
4017.89 165.065 173.926
4020.81 170.41 175.863
4023.73 163.778 167.736
4026.64 163.921 171.683
4029.56 150.403 156.42
4032.48 166.785 175.804
4035.4 164.676 171.83
4038.31 150.712 159.347
4041.23 154.43 159.206
4044.15 154.929 160.869
4047.06 147.02 156.764
4049.98 132.658 146.293
4052.9 146.923 155.034
4055.81 144.536 156.636
4058.73 144.458 153.217
4061.65 141.712 149.002
4064.56 137.381 146.623
4067.48 143.414 155.832
4070.4 137.94 144.252
4073.31 139.328 153.885
4076.23 145.929 152.709
4079.15 141.156 148.405
4082.06 140.522 147.281
4084.98 139.97 147.862
4087.9 133.07 142.822
4090.81 144.438 150.403
4093.73 145.68 152.471
4096.64 151.045 158.591
4099.56 153.552 154.679
4102.48 155.671 163.733
4105.39 163.545 167.604
4108.31 157.531 164.632
4111.22 163.765 171.763
4114.14 157.822 172.322
4117.06 168.926 175.271
4119.97 166.831 175.818
4122.89 170.093 177.849
4125.8 168.343 179.452
4128.72 169.416 180.693
4131.63 184.482 194.522
4134.55 179.183 189.818
4137.46 180.123 191.311
4140.38 179.09 193.225
4143.29 188.845 198.344
4146.21 189.77 200.398
4149.13 183.132 199.357
4152.04 183.846 192.681
4154.96 192.756 205.175
4157.87 196.407 210.297
4160.79 187.72 202.769
4163.7 180.394 202.836
4166.61 191.86 208.412
4169.53 195.586 205.969
4172.44 190.266 211.223
4175.36 191.478 206.486
4178.27 189.928 202.634
4181.19 186.217 199.272
4184.1 187.401 201.484
4187.02 185.551 198.692
4189.93 184.032 196.89
4192.85 170.492 189.49
4195.76 172.119 189.241
4198.67 175.818 190.115
4201.59 169.781 189.082
4204.5 175.053 188.91
4207.42 170.516 189.192
4210.33 165.197 178.848
4213.24 175.382 188.099
4216.16 161.97 175.355
4219.07 163.247 175.136
4221.99 167.161 178.294
4224.9 152.252 169.694
4227.81 159.275 170.331
4230.73 169.811 181.61
4233.64 158.216 171.404
4236.55 158.594 167.459
4239.47 153.194 164.404
4242.38 145.674 156.649
4245.29 152.484 173.18
4248.21 157.605 170.954
4251.12 150.932 170.519
4254.03 160.601 173.049
4256.95 151.052 164.071
4259.86 149.618 164.882
4262.77 150.385 162.778
4265.69 156.474 172.189
4268.6 148.081 167.293
4271.51 153.548 165.64
4274.42 151.201 167.915
4277.34 144.905 158.919
4280.25 138.887 158.542
4283.16 140.33 153.983
4286.07 145.629 157.979
4288.99 140.211 159.109
4291.9 139.541 152.433
4294.81 136.091 148.427
4297.72 132.478 143.954
4300.64 133.909 139.754
4303.55 129.549 140.643
4306.46 129.359 136.984
4309.37 127.084 134.745
4312.29 130.343 136.887
4315.2 126.564 134.752
4318.11 123.575 133.469
4321.02 120.235 130.465
4323.93 116.053 123.472
4326.84 119.04 129.871
4329.76 106.87 120.234
4332.67 115.057 122.359
4335.58 102.219 114.494
4338.49 106.231 119.912
4341.4 110.014 118.408
4344.31 103.835 114.527
4347.22 108.573 119.674
4350.14 102.307 110.531
4353.05 101.315 110.988
4355.96 97.3392 107.869
4358.87 88.2542 103.209
4361.78 93.4434 101.89
4364.69 87.7058 99.0631
4367.6 95.1406 107.044
4370.51 88.2785 97.4069
4373.42 92.2381 100.699
4376.33 91.563 101.921
4379.25 88.3164 97.2136
4382.16 86.3691 94.0041
4385.07 82.9582 96.8877
4387.98 91.3738 97.9041
4390.89 95.5977 98.4934
4393.8 92.2667 102.223
4396.71 92.1498 98.1436
4399.62 87.5735 93.2386
4402.53 93.6929 105.262
4405.44 95.6246 103.168
4408.35 99.5773 109.554
4411.26 97.5672 105.69
4414.17 94.6051 104.487
4417.08 100.186 110.521
4419.99 100.588 110.246
4422.9 98.8792 109.71
4425.81 104.16 116.905
4428.72 107.132 118.652
4431.63 105.045 114.328
4434.54 100.989 120.521
4437.45 109.244 123.457
4440.35 113.981 126.48
4443.26 112.694 126.364
4446.17 114.863 125.552
4449.08 116.425 129.812
4451.99 117.53 128.957
4454.9 120.093 131.896
4457.81 119.842 133.524
4460.72 120.005 130.514
4463.63 119.939 132.606
4466.54 118.529 131.213
4469.45 115.811 126.43
4472.35 114.206 126.283
4475.26 122.191 138.008
4478.17 106.643 126.179
4481.08 115.446 128.734
4483.99 117.596 128.24
4486.9 108.984 126.538
4489.8 113.161 125.712
4492.71 106.39 127.203
4495.62 112.915 125.792
4498.53 109.925 120.742
4501.44 108.146 121.638
4504.35 100.08 118.164
4507.25 106.723 119.577
4510.16 109.181 123.764
4513.07 112.34 125.757
4515.98 109.153 122.612
4518.88 110.67 124.228
4521.79 105.566 124.23
4524.7 101.139 120.275
4527.61 112.974 128.598
4530.51 116.47 130.239
4533.42 113.122 125.485
4536.33 111.337 127.91
4539.24 115.515 131.077
4542.14 118.092 133.635
4545.05 119.69 134.671
4547.96 121.958 136.987
4550.86 119.105 131.492
4553.77 121.294 134.8
4556.68 125.022 138.194
4559.59 130.409 144.513
4562.49 129.709 147.779
4565.4 123.359 141.614
4568.31 126.138 141.568
4571.21 121.607 144.552
4574.12 130.847 148.049
4577.02 130.875 147.284
4579.93 128.594 144.558
4582.84 130.512 148.188
4585.74 131.212 147.3
4588.65 132.759 146.68
4591.56 129.717 147.863
4594.46 126.473 147.154
4597.37 135.889 151.91
4600.27 134.858 149.313
4603.18 135.474 153.349
4606.09 132.105 146.589
4608.99 132.859 151.778
4611.9 127.617 144.613
4614.8 133.508 147.922
4617.71 128.571 143.634
4620.61 128.888 145.804
4623.52 126.478 151.913
4626.42 128.886 145.511
4629.33 130.972 149.272
4632.23 135.352 151.64
4635.14 125.218 143.339
4638.04 130.221 147.041
4640.95 122.377 144.937
4643.85 123.054 145.416
4646.76 124.02 141.275
4649.66 128.557 150.262
4652.57 127.005 145.679
4655.47 126.806 143.448
4658.38 125.403 148.891
4661.28 122.608 138.318
4664.19 130.407 148.965
4667.09 128.163 143.892
4669.99 125.019 141.928
4672.9 120.639 142.079
4675.8 126.775 145.323
4678.71 128.288 145.286
4681.61 124.889 149.225
4684.52 122.928 145.715
4687.42 129.9 146.718
4690.32 126.161 146.288
4693.23 123.346 141.408
4696.13 127.916 145.467
4699.03 128.51 146.932
4701.94 121.413 135.797
4704.84 125.233 141.128
4707.74 125.272 141.691
4710.65 118.443 134.602
4713.55 121.204 136.081
4716.45 119.918 137.401
4719.36 114.074 131.621
4722.26 116.354 134.978
4725.16 115.986 132.229
4728.07 105.177 126.651
4730.97 113.316 128.879
4733.87 109.983 129.043
4736.77 111.939 126.875
4739.68 108.822 124.513
4742.58 107.716 126.126
4745.48 110.637 126.379
4748.38 106.74 121.84
4751.29 109.582 128.606
4754.19 106.176 120.715
4757.09 95.7752 117.46
4759.99 99.3982 122.221
4762.89 100.33 115.293
4765.8 101.395 114.067
4768.7 95.0438 116.236
4771.6 96.5641 113.364
4774.5 103.894 117.194
4777.4 103.256 118.017
4780.31 98.4607 109.74
4783.21 97.6036 116.478
4786.11 100.156 115.538
4789.01 95.5262 111.618
4791.91 94.8143 113.661
4794.81 97.6492 112.874
4797.71 96.5927 112.324
4800.62 97.8454 112.149
4803.52 97.042 111.122
4806.42 96.5119 111.238
4809.32 88.2893 107.156
4812.22 96.0984 109.736
4815.12 89.9331 103.43
4818.02 94.4863 110.207
4820.92 91.5473 107.067
4823.82 90.4318 103.76
4826.72 90.3632 105.011
4829.62 89.2451 104.195
4832.52 86.1119 107.02
4835.42 88.9909 105.346
4838.32 94.7414 110.885
4841.22 93.3878 110.494
4844.12 90.9522 104.747
4847.02 88.8297 106.684
4849.92 91.1759 107.944
4852.82 93.362 110.479
4855.72 92.219 108.869
4858.62 94.6068 112.432
4861.52 93.3515 109.955
4864.42 94.8324 109.582
4867.32 97.1086 110.505
4870.22 91.7567 111.032
4873.12 94.5636 111.323
4876.02 93.9251 108.164
4878.92 92.7321 110.475
4881.82 92.1092 107.933
4884.72 98.4787 111.373
4887.61 96.8997 112.251
4890.51 94.0727 108.326
4893.41 93.6897 107.113
4896.31 91.9155 109.638
4899.21 87.7976 101.676
4902.11 80.5347 95.3663
4905.01 85.7966 102.06
4907.9 65.3354 72.704
4910.8 96.1644 114.113
4913.7 93.5178 114.203
4916.6 96.3741 110.037
4919.5 78.1829 90.6647
4922.4 78.1401 92.5136
4925.29 73.9983 87.9589
4928.19 67.0186 84.1053
4931.09 73.9444 86.155
4933.99 68.1734 79.0645
4936.88 66.1709 77.5687
4939.78 66.9631 78.7927
4942.68 62.1411 76.021
4945.58 64.7618 76.488
4948.47 65.2351 78.1714
4951.37 60.9651 78.3506
4954.27 67.9534 79.653
4957.17 64.9145 78.2651
4960.06 65.9348 78.1375
4962.96 66.7763 78.003
4965.86 61.7528 75.0588
4968.75 67.3271 79.0004
4971.65 67.2039 79.5129
4974.55 67.5539 80.3174
4977.44 65.1111 78.0437
4980.34 68.0004 82.2584
4983.24 58.2077 75.5304
4986.13 68.7464 80.1995
4989.03 68.4743 82.0611
4991.92 72.7894 85.0004
4994.82 72.0484 83.5497
4997.72 75.7362 89.2714
5000.61 71.0611 83.721
5003.51 72.8082 85.648
5006.4 72.9193 86.5866
5009.3 78.5249 94.8675
5012.2 78.6739 92.2558
5015.09 86.2688 104.858
5017.99 126.744 155.529
5020.88 81.9358 97.5541
5023.78 81.969 93.1907
5026.67 77.1854 93.2585
5029.57 84.7701 101.031
5032.46 81.4245 96.9843
5035.36 76.4863 96.1581
5038.25 84.1836 99.5344
5041.15 79.2798 93.5276
5044.04 74.6396 94.6405
5046.94 74.3077 95.7433
5049.83 81.1166 97.5231
5052.73 84.1011 101.895
5055.62 73.2104 93.3108
5058.51 82.0079 96.7009
5061.41 78.7919 94.2908
5064.3 81.0326 96.8792
5067.2 81.4056 96.5191
5070.09 82.2007 97.7854
5072.98 81.3949 96.8895
5075.88 82.9261 100.156
5078.77 81.4717 97.4051
5081.67 82.1038 97.1811
5084.56 78.3204 99.9838
5087.45 81.7535 96.5165
5090.35 84.0555 98.8785
5093.24 86.93 103.342
5096.13 86.3816 102.916
5099.03 84.0124 98.1605
5101.92 83.2926 97.8614
5104.81 84.1379 98.9582
5107.71 85.3962 102.811
5110.6 83.5314 98.502
5113.49 80.6202 96.4395
5116.38 83.0481 100.596
5119.28 77.2268 98.3183
5122.17 82.9423 97.9335
5125.06 82.4542 97.8198
5127.95 82.1575 97.2635
5130.85 84.3021 101.068
5133.74 81.0277 101.859
5136.63 82.1471 105.784
5139.52 79.9131 101.589
5142.41 87.9654 106.149
5145.31 81.0171 103.837
5148.2 91.4277 107.666
5151.09 94.4352 111.374
5153.98 90.8268 107.175
5156.87 91.1952 109.697
5159.76 88.638 112.446
5162.66 89.7397 109.008
5165.55 84.8904 108.614
5168.44 92.7773 110.73
5171.33 88.7797 106.489
5174.22 95.4203 113.012
5177.11 86.6181 110.278
5180 84.3707 111.492
5182.89 84.8584 117.374
5185.78 90.505 118.67
5188.67 89.4631 116.627
5191.56 88.595 114.881
5194.45 89.3938 116.087
5197.34 83.7216 119.727
5200.24 83.9113 121.611
5203.13 95.0642 126.339
5206.02 93.3359 122.66
5208.91 89.7373 118.789
5211.8 87.6541 123.547
5214.68 89.3837 117.395
5217.57 95.1099 125.221
5220.46 90.5234 119.776
5223.35 93.1188 122.931
5226.24 95.7103 125.839
5229.13 96.3575 128.193
5232.02 97.1043 125.613
5234.91 93.4806 120.99
5237.8 89.9508 126.156
5240.69 93.5624 121.459
5243.58 92.0328 119.917
5246.47 92.9411 122.171
5249.36 90.1328 126.851
5252.24 95.1346 123.154
5255.13 91.5279 121.387
5258.02 90.7542 119.872
5260.91 96.171 124.011
5263.8 89.7544 118.087
5266.69 97.9724 127.44
5269.57 91.8137 118.65
5272.46 92.4084 115.201
5275.35 100.81 122.957
5278.24 93.6346 114.854
5281.13 94.0511 113.274
5284.01 94.4271 114.565
5286.9 87.054 111.957
5289.79 97.8691 118.749
5292.68 96.1705 115.433
5295.56 91.7898 111.919
5298.45 87.3424 114.081
5301.34 81.2859 107.216
5304.23 92.1969 114.932
5307.11 88.6655 111.402
5310 84.8978 109.203
5312.89 86.0544 111.016
5315.77 85.8109 110.616
5318.66 82.1292 107.917
5321.55 81.3374 109.044
5324.43 82.5368 106.517
5327.32 78.6279 104.013
5330.21 80.171 106.114
5333.09 75.5595 100.088
5335.98 74.4556 98.8604
5338.86 73.8311 98.4205
5341.75 74.2976 97.7867
5344.64 68.847 100.054
5347.52 70.2809 92.5564
5350.41 75.0761 97.7722
5353.29 71.3716 94.4583
5356.18 69.8906 91.0975
5359.06 66.1923 87.3197
5361.95 67.7338 89.1941
5364.83 64.1044 82.977
5367.72 64.5091 82.5838
5370.6 64.8395 85.5596
5373.49 67.0832 85.794
5376.37 65.2973 82.73
5379.26 67.2932 85.908
5382.14 63.7735 83.3681
5385.03 65.3966 86.0717
5387.91 67.5002 87.8983
5390.8 66.8998 87.9041
5393.68 65.1552 81.7185
5396.56 64.3433 85.2185
5399.45 64.9818 83.4179
5402.33 66.7186 84.5948
5405.22 62.6487 87.4853
5408.1 66.1466 87.6105
5410.98 61.4574 83.8383
5413.87 60.6383 87.9385
5416.75 65.9304 86.8798
5419.63 68.2808 90.4293
5422.52 69.3129 91.1306
5425.4 66.2728 88.5409
5428.28 67.9079 89.6865
5431.17 65.1273 95.4704
5434.05 64.7879 93.9104
5436.93 71.0797 94.7838
5439.82 63.2596 91.0772
5442.7 68.0032 91.2149
5445.58 65.669 94.0688
5448.46 68.4423 90.4003
5451.35 71.1732 95.2106
5454.23 70.8517 96.3895
5457.11 74.9144 99.4415
5459.99 72.1567 94.9815
5462.87 72.0173 95.2747
5465.76 66.0807 94.1174
5468.64 69.3975 93.3449
5471.52 74.2067 97.6365
5474.4 70.3824 96.0706
5477.28 70.8039 93.6705
5480.16 76.2183 99.7922
5483.05 69.0601 92.877
5485.93 71.9737 94.5289
5488.81 68.7854 98.2964
5491.69 69.053 91.9604
5494.57 68.6191 90.947
5497.45 64.8487 95.277
5500.33 71.4824 94.3646
5503.21 67.6223 90.6962
5506.09 66.6677 89.2712
5508.97 67.7591 89.1624
5511.85 65.2757 86.3159
5514.73 68.255 92.7459
5517.61 57.8421 86.2024
5520.49 62.8411 85.6638
5523.37 65.0988 85.6683
5526.25 64.5607 84.7871
5529.13 60.7668 81.0513
5532.01 63.0303 83.0747
5534.89 54.7628 80.7307
5537.77 58.9887 80.439
5540.65 61.0887 82.7267
5543.53 60.2091 80.5496
5546.41 53.1426 79.6099
5549.29 60.343 80.8775
5552.17 59.0301 79.7375
5555.05 59.6826 80.6663
5557.93 58.9501 78.6488
5560.81 55.6286 76.072
5563.68 50.4556 74.8165
5566.56 61.8038 86.4507
5569.44 53.6623 108.838
5572.32 47.3856 122.843
5575.2 67.3625 124.799
5578.08 67.6549 98.9182
5580.95 38.7586 60.9984
5583.83 61.514 53.2672
5586.71 64.3804 64.898
5589.59 53.7224 75.8162
5592.46 59.8211 86.8111
5595.34 68.3574 81.1324
5598.22 72.1384 87.6267
5601.1 67.4097 84.7221
5603.97 72.5588 91.6261
5606.85 72.7489 94.0992
5609.73 71.3804 95.2561
5612.6 71.4708 93.4008
5615.48 71.9967 94.4479
5618.36 74.0899 97.5929
5621.23 74.2737 97.8723
5624.11 65.0017 94.3318
5626.99 78.5441 101.507
5629.86 79.0499 102.659
5632.74 77.863 103.358
5635.62 77.936 102.164
5638.49 79.2335 103.659
5641.37 76.4092 101.75
5644.24 77.5427 102.951
5647.12 81.4592 105.499
5649.99 76.3036 101.516
5652.87 74.2208 106.164
5655.74 74.7592 100.051
5658.62 80.6166 107.059
5661.5 80.2545 105.463
5664.37 73.6784 97.6498
5667.24 74.7931 107.826
5670.12 77.6165 102.1
5672.99 73.4285 96.6834
5675.87 77.1143 102.361
5678.74 76.5878 101.995
5681.62 77.8009 103.634
5684.49 77.7575 102.875
5687.37 80.157 104.118
5690.24 74.7896 96.9848
5693.11 76.963 101.746
5695.99 81.2468 109.317
5698.86 77.6235 102.898
5701.74 74.9326 98.1068
5704.61 75.2767 99.0109
5707.48 75.6353 100.436
5710.36 79.6149 104.238
5713.23 80.3825 105.195
5716.1 78.9467 106.917
5718.98 77.9589 102.35
5721.85 74.5051 103.625
5724.72 73.4951 105.864
5727.59 78.6585 103.538
5730.47 76.1733 101.21
5733.34 75.2968 107.588
5736.21 77.9416 103.146
5739.08 77.4239 110.394
5741.96 78.8656 104.216
5744.83 78.2065 102.695
5747.7 83.7471 107.762
5750.57 79.6293 103.551
5753.44 78.5989 103.095
5756.31 80.2847 107.727
5759.19 82.4685 107.512
5762.06 80.5297 106.04
5764.93 79.7676 104.384
5767.8 81.0932 106.412
5770.67 79.2364 103.284
5773.54 69.3698 99.5027
5776.41 75.5209 101.348
5779.28 79.1786 102.432
5782.15 77.0265 109.073
5785.03 76.4849 100.618
5787.9 79.1879 104.335
5790.77 78.2225 102.277
5793.64 68.9536 98.1403
5796.51 76.9655 101.514
5799.38 79.0272 104.389
5802.25 75.813 99.2784
5805.12 75.6856 101.294
5807.99 79.6381 104.069
5810.86 74.5778 95.8124
5813.72 65.4845 94.0702
5816.59 75.879 100.69
5819.46 73.44 95.9997
5822.33 72.9132 97.1423
5825.2 65.641 93.5382
5828.07 71.5181 95.3896
5830.94 71.6308 95.5229
5833.81 65.8593 94.4739
5836.68 70.2206 93.2037
5839.54 71.2517 96.051
5842.41 68.8438 90.2072
5845.28 69.9399 91.073
5848.15 68.0088 90.556
5851.02 64.8798 86.8589
5853.88 66.0857 89.7104
5856.75 65.9713 87.3665
5859.62 70.0347 94.9295
5862.49 68.5088 94.4289
5865.36 64.244 90.4835
5868.22 68.9524 92.6389
5871.09 65.7972 86.8981
5873.96 65.9917 84.7003
5876.82 67.8716 87.3949
5879.69 62.0688 91.1645
5882.56 68.0165 101.278
5885.42 61.2938 98.4842
5888.29 67.1456 106.895
5891.16 49.5941 91.1362
5894.02 62.3929 82.2694
5896.89 65.0049 76.1952
5899.76 64.1317 73.3085
5902.62 64.1197 76.0493
5905.49 65.4292 77.8832
5908.35 64.3157 81.3345
5911.22 61.0624 88.2908
5914.08 66.4586 96.6514
5916.95 68.2728 87.9036
5919.82 66.6933 86.5445
5922.68 69.4915 89.2713
5925.55 63.8516 95.1572
5928.41 69.4017 93.0464
5931.27 64.6729 96.2364
5934.14 69.0024 90.016
5937 64.2312 91.4421
5939.87 61.2932 89.1567
5942.73 71.202 89.9218
5945.6 71.5727 93.2858
5948.46 69.3997 93.7835
5951.33 66.2052 97.8654
5954.19 66.7915 94.9064
5957.05 74.5278 95.3782
5959.92 76.749 96.7124
5962.78 71.9748 92.8217
5965.64 72.6126 91.3738
5968.51 73.0029 96.537
5971.37 74.526 99.6722
5974.23 67.8686 98.5772
5977.1 74.1818 95.7179
5979.96 75.2786 98.8042
5982.82 76.7609 98.6211
5985.68 66.7186 93.117
5988.55 72.9513 95.9457
5991.41 75.9294 98.2022
5994.27 75.7749 98.9631
5997.13 75.307 98.9289
6000 71.9054 95.1388
6002.86 66.6359 95.6715
6005.72 74.914 97.4278
6008.58 74.2658 95.3424
6011.44 76.4232 96.438
6014.3 74.3358 96.9531
6017.16 74.9867 95.3382
6020.03 73.5948 94.6162
6022.89 67.3419 97.6049
6025.75 74.5265 95.9905
6028.61 72.5708 93.3292
6031.47 68.0889 95.5189
6034.33 73.0196 97.5217
6037.19 67.7248 95.446
6040.05 73.3922 94.4017
6042.91 69.1677 90.6359
6045.77 70.6671 93.0453
6048.63 68.4794 89.8638
6051.49 74.0202 94.541
6054.35 71.3522 91.3746
6057.21 73.5456 94.599
6060.07 67.9549 90.4962
6062.93 71.6116 92.7789
6065.79 71.3261 92.4072
6068.65 67.3273 88.2673
6071.51 64.0769 91.4417
6074.37 70.0907 91.1511
6077.22 68.5193 91.2582
6080.08 69.3167 90.0372
6082.94 67.9214 88.5748
6085.8 60.1137 85.7212
6088.66 64.0094 83.1676
6091.52 67.0597 84.157
6094.37 67.9512 88.7791
6097.23 60.6645 79.0403
6100.09 63.1015 84.659
6102.95 60.7224 79.9737
6105.8 59.4442 77.1091
6108.66 51.1433 74.443
6111.52 54.7709 72.8505
6114.38 49.4998 70.8131
6117.23 57.1202 74.4661
6120.09 53.7073 69.8325
6122.95 49.9707 65.3623
6125.8 50.8187 66.9335
6128.66 50.9726 67.4124
6131.52 42.3672 63.8137
6134.37 43.4999 66.9968
6137.23 43.8554 67.2505
6140.08 45.1763 60.6702
6142.94 46.4983 61.9438
6145.8 36.3781 55.9497
6148.65 43.7862 57.4227
6151.51 39.4946 53.0875
6154.36 41.2617 53.9084
6157.22 40.414 52.4049
6160.07 41.6393 55.0316
6162.93 37.3177 51.2245
6165.78 39.422 54.0696
6168.64 36.5735 50.6851
6171.49 39.9562 52.2718
6174.35 37.7166 50.1221
6177.2 34.305 43.5956
6180.06 35.34 46.9304
6182.91 37.1359 48.2649
6185.76 30.1231 48.2266
6188.62 32.4409 45.1857
6191.47 32.388 44.0703
6194.32 32.7166 44.9041
6197.18 30.5252 44.1688
6200.03 32.1967 46.5241
6202.88 31.6055 44.3632
6205.74 32.102 44.2423
6208.59 32.424 44.1043
6211.44 31.7268 43.0264
6214.3 31.4031 42.9221
6217.15 31.7343 44.0275
6220 22.9575 41.1755
6222.85 26.5645 44.5902
6225.71 29.1902 40.6914
6228.56 23.3827 45.7001
6231.41 30.5879 49.0157
6234.26 31.0263 47.8661
6237.11 32.2839 45.4948
6239.97 21.8038 40.6729
6242.82 32.4207 39.0476
6245.67 37.5321 44.0164
6248.52 34.7408 44.5971
6251.37 29.8986 45.8432
6254.22 23.1086 51.4094
6257.07 24.22 51.8088
6259.92 24.4843 49.5326
6262.77 35.2139 50.5634
6265.62 33.5199 46.6221
6268.47 27.6456 49.1382
6271.32 28.4884 49.0538
6274.17 33.8681 47.0393
6277.02 33.7279 50.0311
6279.87 38.2528 57.1993
6282.72 36.7436 58.5022
6285.57 35.2156 55.8801
6288.42 39.291 61.0453
6291.27 41.4113 98.5322
6294.12 16.8003 145.421
6296.97 42.5811 162.25
6299.82 3.27512 120.973
6302.67 2.90115 36.2164
6305.51 44.9898 -2.29864
6308.36 27.0493 -0.836359
6311.21 44.4451 18.3043
6314.06 48.0501 35.8989
6316.91 47.4432 43.5271
6319.75 45.2583 51.7683
6322.6 51.6744 65.1982
6325.45 47.3559 67.1467
6328.3 40.9699 68.9268
6331.14 42.993 69.105
6333.99 52.7428 71.7282
6336.84 53.0231 70.8958
6339.69 47.8393 72.2751
6342.53 53.5512 73.4992
6345.38 55.094 77.4152
6348.23 45.813 76.6605
6351.07 58.2414 82.4681
6353.92 51.4266 86.5524
6356.76 60.026 106.683
6359.61 55.1952 107.871
6362.46 57.1181 97.7682
6365.3 62.8925 80.4206
6368.15 59.9311 61.0994
6370.99 58.1247 59.5572
6373.84 62.4302 72.8683
6376.68 54.7018 78.4086
6379.53 63.0556 79.5278
6382.37 64.3396 83.5463
6385.22 61.1896 86.7014
6388.06 68.8677 90.4576
6390.91 62.8281 86.0702
6393.75 67.3285 88.5678
6396.59 67.4809 91.0603
6399.44 66.2315 89.8894
6402.28 65.1311 94.0408
6405.13 66.7024 91.9699
6407.97 67.3689 93.145
6410.81 70.168 93.6592
6413.66 64.4233 94.1342
6416.5 69.8202 94.4789
6419.34 68.494 94.0737
6422.19 66.7234 91.1772
6425.03 67.9582 93.2579
6427.87 70.5327 94.1514
6430.71 71.5886 96.1364
6433.56 69.0517 93.3807
6436.4 70.6052 94.4621
6439.24 68.7038 92.2844
6442.08 73.2689 98.4895
6444.92 68.9687 94.4018
6447.77 66.4253 91.9584
6450.61 71.0638 97.1392
6453.45 73.3509 99.4845
6456.29 69.4828 96.5233
6459.13 60.925 96.563
6461.97 65.9699 94.71
6464.81 68.4757 97.6099
6467.65 64.5188 93.091
6470.49 66.4214 88.3602
6473.33 70.28 92.2612
6476.17 72.7783 93.2009
6479.01 70.6394 91.7765
6481.85 70.9631 91.4735
6484.69 64.0598 89.7739
6487.53 68.1333 92.181
6490.37 69.2794 95.8711
6493.21 58.8697 97.4185
6496.05 70.6138 100.644
6498.89 72.1269 97.127
6501.73 68.8201 92.8003
6504.57 67.2975 89.0524
6507.41 68.3637 89.2109
6510.25 68.3993 88.7828
6513.08 64.086 89.8977
6515.92 67.8765 92.5204
6518.76 70.2861 94.7004
6521.6 68.9368 92.1563
6524.44 67.3393 92.2993
6527.27 68.5944 92.5698
6530.11 66.8137 92.0847
6532.95 73.5031 94.7599
6535.79 69.4924 88.5739
6538.62 63.6444 82.6599
6541.46 69.2077 89.8394
6544.3 65.1062 88.2973
6547.13 67.2421 90.9176
6549.97 62.2783 93.2942
6552.81 56.3588 88.8888
6555.64 63.9325 87.1223
6558.48 62.6081 82.3596
6561.31 63.7337 83.82
6564.15 66.4705 84.6813
6566.99 64.5527 83.3357
6569.82 59.4737 77.6101
6572.66 60.8777 82.0017
6575.49 63.9594 82.7697
6578.33 64.3476 83.9111
6581.16 65.4358 81.665
6584 57.0125 81.4636
6586.83 63.6518 81.3561
6589.67 62.3069 81.3467
6592.5 63.4011 82.0022
6595.33 54.344 78.7261
6598.17 58.4373 79.0721
6601 62.1594 83.6196
6603.84 65.0861 84.5665
6606.67 60.1619 78.2981
6609.5 63.1588 79.4197
6612.34 59.7875 77.9073
6615.17 59.8859 76.2436
6618 60.1662 79.8229
6620.83 57.4974 77.5183
6623.67 55.5899 79.7437
6626.5 51.6805 75.8641
6629.33 59.8668 80.4252
6632.16 62.9185 81.739
6635 61.8868 80.8771
6637.83 58.2998 76.4672
6640.66 62.8643 80.2633
6643.49 63.0584 81.7691
6646.32 59.3918 77.39
6649.15 58.027 78.1841
6651.98 57.0928 75.141
6654.82 58.5631 75.9031
6657.65 54.5399 73.2496
6660.48 57.1694 76.7338
6663.31 58.9237 79.1501
6666.14 57.7687 75.2508
6668.97 58.931 75.0926
6671.8 54.3672 71.1445
6674.63 58.2117 74.8228
6677.46 61.6585 77.4609
6680.29 58.7238 76.8365
6683.12 55.5557 75.191
6685.95 55.4251 76.7376
6688.78 53.5077 73.7027
6691.6 53.59 75.0031
6694.43 60.1848 77.5517
6697.26 60.3679 78.5288
6700.09 50.0107 73.7309
6702.92 55.0432 77.659
6705.75 55.8056 72.8252
6708.57 58.4209 76.7579
6711.4 53.1181 73.6471
6714.23 56.4526 76.5065
6717.06 53.8517 70.6755
6719.89 54.2258 71.0737
6722.71 58.7765 76.6166
6725.54 53.8322 70.0913
6728.37 57.7829 74.7017
6731.19 54.7205 72.6149
6734.02 56.9885 72.9761
6736.85 56.2105 73.9762
6739.67 56.0225 73.7349
6742.5 54.4164 69.0469
6745.33 52.4878 74.8635
6748.15 51.0828 72.9971
6750.98 52.9736 68.5526
6753.8 56.1697 72.5824
6756.63 55.5427 72.8915
6759.45 49.0108 72.2997
6762.28 54.5122 69.8535
6765.1 54.9416 71.0357
6767.93 54.2117 72.3547
6770.75 55.7074 71.8566
6773.58 55.8356 71.5908
6776.4 56.8145 72.4037
6779.23 52.6857 67.8298
6782.05 53.6156 68.6987
6784.87 55.1809 69.6026
6787.7 54.756 70.6665
6790.52 53.0168 68.2798
6793.34 53.0618 67.1256
6796.17 51.6466 66.059
6798.99 51.7471 67.6495
6801.81 47.5843 66.9547
6804.64 49.8718 63.8641
6807.46 46.0626 64.9944
6810.28 51.5174 65.3673
6813.1 50.7657 64.2105
6815.92 49.1837 62.3909
6818.75 53.9082 68.6961
6821.57 53.3683 72.2754
6824.39 51.1747 69.4877
6827.21 39.379 70.4419
6830.03 50.3768 64.879
6832.85 48.5642 63.2305
6835.67 46.4946 56.6177
6838.49 50.7376 60.6158
6841.32 51.5998 62.4437
6844.14 49.5965 55.8468
6846.96 49.6564 59.7314
6849.78 53.1911 62.4087
6852.6 47.9918 56.3667
6855.42 47.0934 59.6862
6858.24 39.7443 62.9396
6861.06 49.3684 60.9368
6863.87 42.8546 54.0185
6866.69 43.1673 50.9568
6869.51 30.1932 46.046
6872.33 31.9671 48.0086
6875.15 38.1395 46.4474
6877.97 40.1485 48.7345
6880.79 44.9068 52.9953
6883.6 40.7217 49.1766
6886.42 35.6598 50.7043
6889.24 42.3738 51.1303
6892.06 40.77 50.395
6894.88 41.7937 50.3492
6897.69 40.9065 55.0071
6900.51 44.2456 53.7513
6903.33 38.2398 54.8771
6906.14 43.6251 54.0366
6908.96 40.8812 49.4508
6911.78 40.9374 51.2557
6914.59 41.8574 62.6557
6917.41 44.5778 55.8661
6920.23 38.2758 56.3513
6923.04 40.3332 60.3709
6925.86 39.456 57.0284
6928.67 44.4348 55.8702
6931.49 46.8209 59.6281
6934.3 42.1696 58.8647
6937.12 48.2152 61.6011
6939.93 44.0238 56.8468
6942.75 46.9416 59.0109
6945.56 40.9414 60.295
6948.38 43.51 54.6523
6951.19 47.342 55.2308
6954 40.1332 56.7382
6956.82 45.2981 63.6223
6959.63 46.3194 57.6383
6962.45 46.1225 58.8016
6965.26 41.1884 59.2733
6968.07 46.7423 58.9676
6970.88 48.1833 57.7332
6973.7 45.3663 58.0448
6976.51 46.308 55.7028
6979.32 45.6907 56.3123
6982.13 39.0782 55.5918
6984.95 41.841 58.164
6987.76 49.876 58.918
6990.57 42.6281 54.3184
6993.38 47.3364 57.7548
6996.19 46.0562 57.7602
6999 45.5283 54.0437
7001.82 46.034 56.3571
7004.63 39.2234 55.2608
7007.44 46.304 55.0115
7010.25 47.5812 58.9265
7013.06 45.7822 55.3318
7015.87 48.0291 57.6945
7018.68 43.4867 53.9829
7021.49 44.9728 56.6992
7024.3 45.6537 55.581
7027.11 45.8115 56.0136
7029.92 41.3641 55.6207
7032.73 41.4882 56.4409
7035.54 45.2966 54.8473
7038.34 46.5457 56.6871
7041.15 43.4847 51.7202
7043.96 42.7197 53.4533
7046.77 42.1211 58.1056
7049.58 40.2281 53.1214
7052.39 44.9983 56.1959
7055.19 37.1414 51.0897
7058 39.3635 52.3866
7060.81 45.0614 54.4053
7063.62 45.5233 56.0933
7066.42 43.408 52.1756
7069.23 47.9021 55.2653
7072.04 42.962 50.2005
7074.84 45.2298 52.5702
7077.65 43.8383 49.7828
7080.46 41.2073 45.5423
7083.26 40.9795 51.1028
7086.07 46.172 51.5675
7088.87 42.1179 47.6111
7091.68 41.9837 45.839
7094.48 39.1737 47.2904
7097.29 43.2522 51.8522
7100.09 38.4138 46.6755
7102.9 39.0112 46.5684
7105.7 44.7972 48.9848
7108.51 37.16 46.2453
7111.31 44.2251 50.4342
7114.12 43.25 47.3938
7116.92 43.1956 46.4714
7119.72 41.0856 48.3964
7122.53 46.4983 52.8291
7125.33 27.4242 37.5986
7128.13 42.0851 45.675
7130.94 39.7957 45.2358
7133.74 44.7059 50.3102
7136.54 41.0847 52.6788
7139.34 44.1386 49.9684
7142.15 41.9036 51.3213
7144.95 43.478 51.5114
7147.75 45.1359 50.5302
7150.55 47.5461 54.9956
7153.35 42.6086 50.8077
7156.16 43.0624 51.3122
7158.96 45.3748 53.0902
7161.76 41.5252 54.5489
7164.56 46.2637 54.1142
7167.36 41.3333 50.3839
7170.16 40.5773 54.1602
7172.96 45.7599 56.4955
7175.76 39.4989 52.5847
7178.56 41.9877 50.9958
7181.36 45.4431 56.1023
7184.16 41.5224 50.8391
7186.96 43.1773 55.4583
7189.76 40.9717 52.475
7192.56 43.7929 57.0109
7195.36 45.073 56.5242
7198.15 36.5985 50.4317
7200.95 42.4726 53.9457
7203.75 39.0473 51.9712
7206.55 39.8337 52.6618
7209.35 42.5789 55.3775
7212.14 41.7179 54.6183
7214.94 40.8824 53.5052
7217.74 43.612 55.2362
7220.54 43.9358 57.7481
7223.33 44.1001 53.3308
7226.13 41.0722 50.2675
7228.93 40.9408 51.1726
7231.72 40.8889 41.311
7234.52 38.5854 41.8483
7237.32 42.0939 43.7185
7240.11 40.6552 54.7458
7242.91 43.6219 61.819
7245.7 39.2867 59.7078
7248.5 35.0273 59.3571
7251.29 37.1018 59.5633
7254.09 41.3379 54.9343
7256.88 40.489 54.0899
7259.68 39.3783 49.7611
7262.47 37.4943 47.0464
7265.27 38.2804 40.4288
7268.06 39.2281 35.2345
7270.85 40.7925 39.8245
7273.65 45.978 56.2914
7276.44 41.6373 58.182
7279.23 35.2521 60.2041
7282.03 34.4432 53.3948
7284.82 39.9001 61.1734
7287.61 34.6172 50.7001
7290.41 39.4577 52.3163
7293.2 40.026 48.6505
7295.99 42.1977 48.8293
7298.78 41.6724 53.969
7301.57 38.1595 48.3558
7304.36 39.5937 47.9409
7307.16 41.5244 39.8221
7309.95 38.6034 36.1902
7312.74 40.4651 54.5443
7315.53 40.2433 59.4045
7318.32 36.1843 55.2965
7321.11 37.6953 50.2294
7323.9 38.689 47.9667
7326.69 39.6113 50.0946
7329.48 41.1142 45.1436
7332.27 41.1643 37.8765
7335.06 43.9148 39.5556
7337.85 39.5242 51.1079
7340.64 45.8553 72.7409
7343.43 39.08 64.2618
7346.21 36.3424 54.4298
7349 39.5559 49.6477
7351.79 34.8032 41.9162
7354.58 37.8713 48.1201
7357.37 41.5519 48.7824
7360.16 39.477 37.5311
7362.94 39.3004 34.9686
7365.73 38.5331 48.3115
7368.52 39.8099 59.2229
7371.3 45.58 66.1807
7374.09 33.1025 52.3648
7376.88 33.4525 48.8973
7379.66 38.9071 45.9081
7382.45 37.7468 41.6222
7385.24 39.4307 43.82
7388.02 35.7227 43.4723
7390.81 35.1659 39.0412
7393.59 35.3911 39.5063
7396.38 36.224 40.6124
7399.16 41.1622 55.3662
7401.95 38.3869 58.3312
7404.73 36.5641 54.219
7407.52 35.4585 53.8621
7410.3 38.0423 48.4307
7413.08 39.4522 49.901
7415.87 37.2615 46.8193
7418.65 34.7689 42.569
7421.44 33.8436 38.8608
7424.22 39.2787 42.3951
7427 36.2405 42.647
7429.78 38.3502 42.2752
7432.57 38.2718 42.547
7435.35 36.1644 48.3096
7438.13 36.8577 52.104
7440.91 34.3529 49.4324
7443.7 36.6878 46.3426
7446.48 31.995 44.4175
7449.26 33.9225 42.8499
7452.04 36.5265 42.2317
7454.82 36.3239 41.4781
7457.6 37.1406 40.7069
7460.38 36.4379 38.5712
7463.16 36.5773 38.6406
7465.94 34.5215 38.7914
7468.72 35.7549 44.0281
7471.5 35.6267 41.8281
7474.28 32.8427 35.5922
7477.06 33.189 39.6842
7479.84 37.5936 53.0737
7482.62 32.3002 48.9717
7485.4 34.5537 47.5353
7488.18 33.6345 45.5191
7490.95 30.6493 39.8806
7493.73 32.0541 42.4899
7496.51 34.5035 44.5891
7499.29 31.5687 40.9457
7502.07 33.5533 40.2509
7504.84 32.1828 38.0288
7507.62 33.7402 37.702
7510.4 30.837 32.4875
7513.17 32.039 24.58
7515.95 30.9088 17.9216
7518.73 33.312 26.0252
7521.5 29.2074 35.9075
7524.28 30.4615 50.9889
7527.06 28.5367 49.9722
7529.83 29.0713 46.497
7532.61 30.4577 44.9826
7535.38 34.002 44.5585
7538.16 30.8867 38.7815
7540.93 27.5577 35.7398
7543.71 32.1387 37.4157
7546.48 29.9317 32.7486
7549.25 28.1429 30.4953
7552.03 30.0978 35.6076
7554.8 25.5229 30.5989
7557.57 27.8145 33.047
7560.35 27.725 27.5051
7563.12 25.1896 19.8928
7565.89 24.0665 22.3855
7568.67 27.3795 33.3055
7571.44 27.9879 43.712
7574.21 24.0222 39.2303
7576.98 27.9975 38.6517
7579.75 23.8164 28.9188
7582.53 27.4147 33.8119
7585.3 23.9055 33.1851
7588.07 24.9116 33.1849
7590.84 21.3534 24.4435
7593.61 16.4111 21.3506
7596.38 14.4628 24.4216
7599.15 11.2472 19.9006
7601.92 8.0841 13.3824
7604.69 7.9143 9.19693
7607.46 9.18034 7.90102
7610.23 12.0079 8.17229
7613 15.2297 13.9815
7615.77 17.35 17.1015
7618.54 16.9446 18.6002
7621.31 16.8618 19.7101
7624.08 14.6647 18.191
7626.84 15.3813 22.3417
7629.61 15.155 20.3105
7632.38 17.1048 24.1403
7635.15 14.6449 19.1096
7637.91 16.0053 17.4782
7640.68 14.1674 18.5442
7643.45 17.0953 17.0275
7646.22 19.8204 20.1583
7648.98 20.9823 20.8204
7651.75 18.9461 21.6481
7654.51 19.8988 18.9499
7657.28 21.6056 24.2875
7660.05 25.3783 31.7735
7662.81 23.8453 33.1717
7665.58 27.4003 33.4664
7668.34 25.3369 31.5517
7671.11 24.0642 30.7547
7673.87 25.9578 27.7983
7676.64 25.1384 25.0426
7679.4 24.5674 24.6836
7682.16 26.9837 27.9958
7684.93 25.3838 29.9292
7687.69 26.194 29.6084
7690.45 26.87 30.7839
7693.22 27.5844 34.3614
7695.98 26.9422 33.7302
7698.74 27.7536 28.9
7701.5 28.6754 13.845
7704.27 29.5029 -7.98036
7707.03 27.8279 -18.8636
7709.79 27.266 6.6849
7712.55 33.0072 46.5516
7715.31 28.4897 66.3664
7718.08 31.0971 70.541
7720.84 26.4782 55.9912
7723.6 28.6149 51.9525
7726.36 30.6061 49.6806
7729.12 33.4667 39.6143
7731.88 26.6388 35.1051
7734.64 26.331 32.581
7737.4 31.7256 24.0574
7740.16 28.8378 -4.77798
7742.92 32.7735 -5.49223
7745.67 34.5459 15.8515
7748.43 30.0748 42.3916
7751.19 35.3963 64.4819
7753.95 29.4758 56.7108
7756.71 26.8636 51.1453
7759.47 27.9502 55.4535
7762.22 31.0304 46.4471
7764.98 30.5075 34.0467
7767.74 30.7874 32.8411
7770.5 35.0582 28.8697
7773.25 30.6925 28.6771
7776.01 32.664 38.5143
7778.76 36.2818 41.6461
7781.52 35.6546 34.2998
7784.28 34.7421 12.5654
7787.03 30.7026 8.13055
7789.79 37.2206 31.2711
7792.54 31.7866 54.8896
7795.3 40.2135 67.6347
7798.05 32.6025 44.2446
7800.81 29.9469 29.4073
7803.56 31.0953 28.3884
7806.32 34.7696 38.7721
7809.07 33.6103 29.2047
7811.82 31.4427 10.9972
7814.58 33.7123 4.4262
7817.33 35.7766 31.9906
7820.08 36.4637 57.3225
7822.84 33.5923 73.0145
7825.59 34.7196 64.0528
7828.34 30.0102 42.0001
7831.09 28.094 28.0173
7833.84 33.2416 24.3632
7836.6 32.3095 28.1051
7839.35 35.0495 28.113
7842.1 34.7995 14.1862
7844.85 30.1691 -9.10056
7847.6 33.2822 1.96819
7850.35 38.6133 30.2018
7853.1 40.6904 61.7306
7855.85 28.3814 63.0991
7858.6 33.4967 52.0878
7861.35 32.9185 40.6728
7864.1 32.4341 33.1077
7866.85 37.0361 42.861
7869.6 32.1662 46.0005
7872.35 34.3111 47.074
7875.09 31.7964 39.7217
7877.84 34.9121 34.3769
7880.59 33.4439 33.7168
7883.34 39.2188 37.2825
7886.09 35.8089 43.5622
7888.83 33.8704 50.8997
7891.58 36.0508 61.0695
7894.33 31.9891 48.6169
7897.07 31.0466 41.2288
7899.82 36.5898 24.9321
7902.57 36.4172 -4.17779
7905.31 37.3304 -31.3899
7908.06 31.7256 -20.1317
7910.8 33.9044 22.4321
7913.55 41.9635 66.6929
7916.29 32.4614 75.3138
7919.04 33.2917 71.277
7921.78 30.6748 57.3656
7924.53 33.062 42.4745
7927.27 30.6797 41.7496
7930.01 33.2255 46.1206
7932.76 34.4536 50.9165
7935.5 35.5357 42.7753
7938.24 31.0719 28.8621
7940.99 33.9327 26.1683
7943.73 34.9595 25.1848
7946.47 29.3673 36.345
7949.21 36.5806 45.2307
7951.96 33.2604 29.0861
7954.7 33.6103 1.63276
7957.44 32.2644 -11.9158
7960.18 37.9286 16.0518
7962.92 31.4742 42.0744
7965.66 36.3233 74.0721
7968.4 33.2074 58.9413
7971.14 30.0901 29.9584
7973.88 33.7194 28.0978
7976.62 33.1282 35.2818
7979.36 34.5488 44.8994
7982.1 37.9794 26.7493
7984.84 30.9152 -4.644
7987.58 31.2589 -4.71458
7990.32 36.7408 31.0139
7993.06 37.4951 66.8312
7995.79 28.7947 79.5296
7998.53 31.0153 61.1126
8001.27 28.3935 43.0758
8004.01 34.1096 25.1762
8006.74 33.3314 20.4772
8009.48 33.1706 21.7015
8012.22 19.7918 17.629
8014.95 30.3353 25.654
8017.69 35.0954 5.3059
8020.43 32.734 10.1129
8023.16 33.7241 35.7719
8025.9 31.1318 64.5033
8028.63 33.9995 67.2697
8031.37 25.6775 50.3044
8034.1 36.7475 47.696
8036.84 33.202 37.59
8039.57 29.9951 29.8578
8042.31 33.363 24.5747
8045.04 33.145 26.2819
8047.77 32.9281 30.6904
8050.51 29.5948 24.34
8053.24 33.5076 24.2375
8055.97 30.7412 23.1663
8058.7 30.1402 26.1518
8061.44 28.6781 39.9209
8064.17 27.7316 48.2334
8066.9 29.7661 41.3799
8069.63 27.0647 39.4251
8072.36 30.2285 35.4566
8075.1 27.0465 31.2223
8077.83 29.087 32.1603
8080.56 27.6742 30.2925
8083.29 24.2796 26.0023
8086.02 28.5013 27.8721
8088.75 24.3564 29.8438
8091.48 28.9405 29.9956
8094.21 28.0831 31.7634
8096.94 32.5108 31.5768
8099.66 28.4599 33.8145
8102.39 25.1099 39.3683
8105.12 27.2318 38.4856
8107.85 27.9294 32.2234
8110.58 28.3808 36.6616
8113.31 28.3818 31.499
8116.03 23.7559 30.6964
8118.76 25.4049 27.4637
8121.49 25.2156 32.0509
8124.21 25.3752 27.8355
8126.94 26.2273 32.9655
8129.67 25.5119 26.4619
8132.39 24.1072 23.8842
8135.12 25.7312 28.0827
8137.84 27.3364 30.1112
8140.57 28.2109 34.8705
8143.29 28.5649 30.0704
8146.02 23.4797 25.7502
8148.74 28.8952 34.8187
8151.47 27.481 31.6458
8154.19 28.2126 32.8587
8156.92 25.8566 27.6999
8159.64 25.6108 31.1747
8162.36 24.6172 26.9819
8165.09 25.1468 25.9014
8167.81 22.9382 25.4717
8170.53 21.7863 24.6805
8173.25 26.4659 26.8415
8175.97 23.4868 26.1271
8178.7 25.5621 27.3677
8181.42 25.1236 25.6541
8184.14 24.9622 23.2145
8186.86 25.7349 25.5726
8189.58 25.2164 29.4793
8192.3 21.9934 25.2891
8195.02 24.6183 29.4916
8197.74 26.1702 27.3087
8200.46 24.8623 25.306
8203.18 20.4288 26.3692
8205.9 24.9009 22.1863
8208.62 29.3647 30.0733
8211.34 24.3589 30.3462
8214.06 21.9819 23.0234
8216.77 25.9823 28.0435
8219.49 25.9333 25.4445
8222.21 24.1168 25.2979
8224.93 24.1299 29.5989
8227.64 21.7666 28.0125
8230.36 22.9418 23.8316
8233.08 23.9517 27.9027
8235.79 27.9079 27.3519
8238.51 24.3109 23.5016
8241.23 23.9181 24.3524
8243.94 28.4991 29.8357
8246.66 23.0611 26.8722
8249.37 27.6808 27.8373
8252.09 26.8638 29.1693
8254.8 25.2836 32.8977
8257.52 29.4398 29.7588
8260.23 23.9131 27.2299
8262.94 25.0592 28.9232
8265.66 25.6692 24.3869
8268.37 26.1864 22.0551
8271.08 26.3894 12.3768
8273.8 24.9287 -1.26078
8276.51 26.315 -0.92629
8279.22 30.2755 3.47792
8281.93 25.8465 9.46604
8284.65 23.8623 23.7579
8287.36 19.0966 24.6805
8290.07 23.019 27.0198
8292.78 22.2379 20.2968
8295.49 22.4838 21.2773
8298.2 29.4955 44.0111
8300.91 26.099 50.6351
8303.62 23.8758 43.9208
8306.33 24.0415 27.0169
8309.04 23.1938 25.799
8311.75 22.5998 27.7725
8314.46 22.0167 33.105
8317.17 23.7425 28.8869
8319.88 24.428 29.4373
8322.58 25.3444 26.4911
8325.29 27.7722 25.1632
8328 25.4993 22.9218
8330.71 29.2777 23.2607
8333.41 17.459 6.72755
8336.12 18.8817 -13.997
8338.83 25.7097 -34.6509
8341.53 24.0324 -12.6071
8344.24 32.8911 24.526
8346.94 27.9212 53.3896
8349.65 18.9606 59.9075
8352.35 14.5765 43.2808
8355.06 17.3248 43.117
8357.76 25.5198 33.2257
8360.47 16.167 21.1344
8363.17 25.2473 23.6861
8365.88 22.4522 24.7197
8368.58 24.7701 32.1721
8371.28 22.7325 29.1211
8373.99 23.3786 24.5968
8376.69 24.1471 16.2411
8379.39 23.7104 14.8874
8382.09 23.7878 21.2747
8384.8 26.8241 32.2242
8387.5 15.4959 28.4903
8390.2 21.9847 22.4895
8392.9 26.4324 4.4237
8395.6 29.7314 10.812
8398.3 32.5389 7.64958
8401 22.4834 40.3545
8403.7 19.9572 55.5822
8406.4 19.3357 38.9238
8409.1 19.7598 18.043
8411.8 23.3421 13.9754
8414.5 28.666 24.6925
8417.2 28.8726 35.036
8419.9 25.0141 31.8631
8422.6 19.6843 10.0261
8425.29 25.2189 12.3659
8427.99 33.7034 25.2902
8430.69 19.4971 24.7477
8433.39 16.4825 20.9431
8436.08 19.0054 22.215
8438.78 22.4574 13.2822
8441.48 24.4021 21.6709
8444.17 21.2119 15.7122
8446.87 27.9135 22.1583
8449.56 25.0717 16.3175
8452.26 26.2725 27.244
8454.95 27.501 22.6649
8457.65 16.9008 14.7242
8460.34 19.7076 16.6895
8463.04 28.5354 15.9515
8465.73 27.1024 20.5875
8468.42 19.4565 19.971
8471.12 21.563 25.909
8473.81 26.8042 26.8669
8476.5 23.8399 22.2478
8479.2 20.8498 20.7494
8481.89 21.3404 23.3685
8484.58 22.7894 22.2594
8487.27 21.6056 22.1015
8489.96 21.7208 20.1623
8492.65 28.6412 24.9145
8495.35 18.3009 21.7937
8498.04 22.9815 21.1748
8500.73 25.1155 24.2359
8503.42 22.8592 24.5886
8506.11 28.1981 25.3507
8508.8 20.6392 16.5581
8511.48 24.4178 19.5839
8514.17 23.8714 21.5753
8516.86 23.4108 20.5978
8519.55 20.1435 23.4274
8522.24 26.2579 20.6463
8524.93 24.3073 24.286
8527.61 23.6224 22.8109
8530.3 23.5762 23.2188
8532.99 22.5158 20.9779
8535.67 24.6943 25.8193
8538.36 27.0391 25.4472
8541.05 22.5469 20.584
8543.73 26.054 24.2742
8546.42 23.8942 21.547
8549.1 20.0356 20.3318
8551.79 28.7986 15.87
8554.47 22.5243 17.1554
8557.16 29.2231 24.7314
8559.84 20.6956 13.999
8562.53 22.292 16.4751
8565.21 24.7982 19.7309
8567.89 26.4124 18.3017
8570.58 24.8742 18.2722
8573.26 22.104 16.7703
8575.94 23.5015 16.6305
8578.62 30.2736 20.4369
8581.3 27.971 19.403
8583.99 27.3388 19.7372
8586.67 28.9003 21.879
8589.35 29.0463 21.3942
8592.03 25.699 24.0936
8594.71 20.5891 20.2749
8597.39 28.5974 22.1617
8600.07 26.0524 23.8874
8602.75 24.9182 18.3447
8605.43 26.2434 17.0284
8608.11 25.3884 22.4788
8610.79 29.6199 32.2981
8613.47 30.0945 30.2732
8616.14 26.1814 30.326
8618.82 31.1858 33.0903
8621.5 25.8829 36.2263
8624.18 29.0867 31.9108
8626.85 25.8793 25.786
8629.53 29.1254 25.686
8632.21 24.2875 20.1084
8634.88 24.9388 17.878
8637.56 29.6572 14.4116
8640.23 24.8441 18.5678
8642.91 30.6212 20.0317
8645.58 30.7436 27.3302
8648.26 30.7065 29.5828
8650.93 28.8717 32.1781
8653.61 27.544 26.8385
8656.28 24.8805 27.6452
8658.95 24.6772 23.3507
8661.63 31.0025 16.4138
8664.3 34.243 23.0645
8666.97 27.2336 18.3278
8669.65 26.0895 19.0499
8672.32 32.4181 16.2563
8674.99 29.5958 16.2187
8677.66 28.7484 18.8148
8680.33 26.0735 20.506
8683 27.5813 16.3783
8685.67 29.4401 20.3024
8688.34 26.2614 20.3651
8691.01 28.849 23.6033
8693.68 31.4145 23.5081
8696.35 29.54 25.7555
8699.02 29.6621 27.5139
8701.69 29.6736 24.3553
8704.36 26.4841 23.8918
8707.03 27.9376 23.4621
8709.7 29.1573 18.5476
8712.36 27.8626 26.6426
8715.03 28.4249 19.4265
8717.7 27.3672 21.043
8720.37 29.6176 24.2766
8723.03 24.0698 22.028
8725.7 28.2793 25.3185
8728.36 28.946 20.7844
8731.03 25.3903 20.4281
8733.7 28.2704 21.1291
8736.36 30.004 21.668
8739.03 27.8785 20.4062
8741.69 27.5157 26.4676
8744.35 28.6591 23.6128
8747.02 27.3089 25.2974
8749.68 31.0464 26.6091
8752.34 26.8435 26.0753
8755.01 32.4857 55.7298
8757.67 19.8162 96.9033
8760.33 31.9596 114.997
8762.99 30.0582 129.569
8765.66 32.4541 95.5575
8768.32 29.6246 39.8759
8770.98 24.6939 9.93208
8773.64 20.3936 -16.6607
8776.3 31.4891 22.8672
8778.96 28.5234 33.1704
8781.62 20.2113 -7.21171
8784.28 18.5464 -82.4779
8786.94 23.9205 -70.4105
8789.6 27.3744 -35.1809
8792.26 23.7501 -5.73942
8794.92 24.9813 3.63715
8797.57 23.9356 -8.50509
8800.23 29.239 -13.6126
8802.89 27.5965 -3.8379
8805.55 27.075 7.69669
8808.2 27.2408 14.4644
8810.86 31.5475 27.4859
8813.52 26.8482 22.702
8816.17 24.9399 21.0686
8818.83 28.5511 33.5572
8821.48 24.1221 89.9161
8824.14 29.461 238.736
8826.79 21.5734 287.686
8829.45 26.4729 222.728
8832.1 33.9606 49.082
8834.76 26.463 -78.1507
8837.41 25.4897 -118.847
8840.06 29.8152 -116.707
8842.72 18.4243 -140.21
8845.37 26.094 -104.279
8848.02 24.6418 -54.2441
8850.67 25.2691 -7.63522
8853.32 28.8175 6.46892
8855.98 25.8522 -3.15265
8858.63 25.0038 -5.93112
8861.28 25.1703 4.95354
8863.93 27.2582 48.0419
8866.58 31.1542 84.5993
8869.23 26.8082 80.6144
8871.88 30.3891 41.6124
8874.53 22.0051 -16.5141
8877.18 31.8023 -31.5565
8879.82 26.9359 -7.4383
8882.47 29.5395 115.769
8885.12 25.9977 209.273
8887.77 17.6189 200.677
8890.42 24.8508 92.5229
8893.06 20.4303 -88.7009
8895.71 25.2532 -141.478
8898.36 27.5217 -116.491
8901 30.0954 -33.9675
8903.65 32.2591 33.0084
8906.29 27.8334 48.5702
8908.94 24.2193 -2.84811
8911.58 25.0713 -34.3497
8914.23 24.3036 -1.69426
8916.87 27.4049 143.348
8919.52 33.2148 234.307
8922.16 20.1434 213.481
8924.8 24.4154 61.7146
8927.45 17.2207 -115.952
8930.09 16.2499 -173.391
8932.73 19.9809 -158.816
8935.37 25.7881 -121.123
8938.02 20.0661 -75.9817
8940.66 21.6652 5.22387
8943.3 24.7928 54.5139
8945.94 23.1685 67.7692
8948.58 18.9836 33.0691
8951.22 14.6512 -5.68363
8953.86 25.0585 37.6663
8956.5 18.3207 124.13
8959.14 26.224 159.317
8961.78 19.2765 106.42
8964.42 17.4945 -18.0407
8967.06 17.3097 -97.4037
8969.69 18.4307 -113.991
8972.33 17.5422 -95.9512
8974.97 17.4717 -74.1616
8977.61 20.0109 -53.7563
8980.24 16.9374 -31.9201
8982.88 19.351 -3.97635
8985.51 21.0162 35.023
8988.15 20.5381 59.6764
8990.79 15.0651 61.3147
8993.42 14.1598 36.6203
8996.06 19.3384 21.0522
8998.69 17.77 53.7192
9001.32 17.1259 89.6799
9003.96 18.7494 88.7425
9006.59 10.8386 37.0749
9009.23 20.7907 -35.3082
9011.86 18.0962 -66.7697
9014.49 21.4547 -63.474
9017.12 16.6116 -52.5022
9019.75 15.0348 -38.6714
9022.39 17.6492 -28.1845
9025.02 22.1474 -7.72677
9027.65 19.2619 1.24617
9030.28 22.6311 10.1849
9032.91 19.5203 19.0993
9035.54 21.0388 38.834
9038.17 23.3363 41.8002
9040.8 19.4198 43.5084
9043.43 18.3094 31.576
9046.06 17.5247 34.71
9048.68 21.7314 51.6445
9051.31 17.0234 60.6935
9053.94 17.9653 40.6553
9056.57 16.8033 6.22577
9059.19 19.2505 -19.7587
9061.82 17.2149 -23.3197
