wavelength spec_sum spec_optimal
3524.43 130.594 105.789
3527.35 130.196 108.48
3530.28 132.039 112.287
3533.2 132.123 115.028
3536.12 128.771 112.258
3539.05 120.077 113.94
3541.97 137.768 126.999
3544.89 129.191 121.243
3547.82 124.094 120.35
3550.74 115.219 101.043
3553.66 142.17 138.285
3556.59 129.962 122.622
3559.51 134.42 116.919
3562.43 138.252 119.046
3565.36 144.177 128.826
3568.28 146.249 125.236
3571.2 141.099 121.252
3574.12 137.759 119.989
3577.05 147.484 122.554
3579.97 143.047 119.271
3582.89 145.885 123.448
3585.82 148.306 127.669
3588.74 136.878 115.575
3591.66 126.284 107.704
3594.58 138.169 124.21
3597.51 121.325 103.012
3600.43 146.425 124.888
3603.35 139.307 122.731
3606.27 141.82 121.264
3609.2 147.635 128.996
3612.12 143.613 123.989
3615.04 150.179 132.224
3617.96 145.569 125.599
3620.89 135.695 116.735
3623.81 142.777 123.034
3626.73 126.643 114.371
3629.65 144.549 130.478
3632.57 139.562 124.831
3635.5 147.979 131.534
3638.42 122.837 115.724
3641.34 130.221 111.805
3644.26 141.304 124.471
3647.18 120.45 104.656
3650.11 118.987 103.134
3653.03 102.105 97.7961
3655.95 121.529 113.499
3658.87 120.974 107.834
3661.79 106.42 93.7917
3664.72 112.006 98.0965
3667.64 95.0661 86.0364
3670.56 107.571 92.1531
3673.48 89.3176 82.3071
3676.4 95.2361 83.5606
3679.32 93.3749 82.2059
3682.24 96.9496 80.8764
3685.17 92.4378 73.4904
3688.09 82.6594 68.4041
3691.01 69.8484 63.8508
3693.93 73.165 67.1369
3696.85 67.212 60.0869
3699.77 73.8408 64.0192
3702.69 69.0542 56.8495
3705.62 63.7724 58.7443
3708.54 63.6838 55.1909
3711.46 63.945 52.7503
3714.38 65.0474 59.288
3717.3 58.4066 50.7479
3720.22 63.8965 55.1334
3723.14 52.5314 52.2792
3726.06 57.3444 51.0512
3728.98 58.1949 52.313
3731.9 53.7519 49.8904
3734.83 50.5109 47.4627
3737.75 45.664 49.1779
3740.67 50.8174 49.5588
3743.59 52.3003 49.3092
3746.51 43.4875 44.7388
3749.43 48.2048 46.3612
3752.35 42.4888 43.2358
3755.27 48.908 43.3706
3758.19 42.8344 36.8231
3761.11 34.847 33.2834
3764.03 42.5218 42.6153
3766.95 47.6854 49.1657
3769.87 41.321 48.6742
3772.79 39.0837 41.5376
3775.71 42.7606 46.3612
3778.63 38.7835 42.3674
3781.55 44.6352 45.8894
3784.47 43.4923 46.2737
3787.39 48.2776 47.2249
3790.31 52.8667 49.7116
3793.23 38.1679 45.0913
3796.15 47.325 45.9178
3799.07 41.065 42.5989
3801.99 45.5077 48.6563
3804.91 51.9162 52.5278
3807.83 56.2634 58.6321
3810.75 50.0316 52.0613
3813.67 54.4367 56.476
3816.59 55.1853 58.0903
3819.51 54.86 58.0977
3822.43 52.2036 52.846
3825.35 53.5523 54.0199
3828.27 52.9919 57.0507
3831.19 55.7183 53.4154
3834.11 60.6398 56.4227
3837.03 64.8243 66.3517
3839.95 59.6261 57.5566
3842.87 57.1532 56.9696
3845.79 63.6628 66.6877
3848.7 61.9414 59.8738
3851.62 56.2246 55.5105
3854.54 62.8381 63.8525
3857.46 55.4112 59.5602
3860.38 59.742 59.9363
3863.3 57.705 59.9254
3866.22 59.434 60.4724
3869.14 61.1804 62.3985
3872.06 66.7723 67.4118
3874.98 59.9674 60.0753
3877.89 66.6423 64.8221
3880.81 68.6733 69.0516
3883.73 78.4612 79.4887
3886.65 88.6171 88.7616
3889.57 80.7962 84.1367
3892.49 83.7607 82.0107
3895.41 83.8676 82.8826
3898.32 90.7261 95.1303
3901.24 88.2233 90.5874
3904.16 92.3551 97.1498
3907.08 93.5599 105.028
3910 99.9174 111.446
3912.92 111.191 123.402
3915.83 100.072 113.39
3918.75 113.057 118.525
3921.67 114.791 120.743
3924.59 114.954 118.804
3927.51 113.712 111.097
3930.42 113.765 113.443
3933.34 120.071 115.172
3936.26 130.642 125.208
3939.18 130.45 126.975
3942.1 138.018 140.296
3945.01 140.303 145.923
3947.93 120.384 125.99
3950.85 142.952 143.264
3953.77 147.237 147.339
3956.68 136.18 137.567
3959.6 143.285 137.292
3962.52 141.865 136.158
3965.44 147.873 140.932
3968.35 151.051 147.181
3971.27 161.113 156.133
3974.19 145.378 145.587
3977.11 150.115 148.803
3980.02 146.839 152.373
3982.94 159.799 158.242
3985.86 162.048 162.785
3988.77 157.887 164.251
3991.69 162.892 165.864
3994.61 156.032 160.524
3997.53 153.763 160.129
4000.44 153.635 165.234
4003.36 155.623 160.254
4006.28 158.199 164.532
4009.19 149.712 160.351
4012.11 161.769 163.609
4015.03 152.139 156.275
4017.94 148.779 156.766
4020.86 149.014 158.463
4023.78 143.132 151.112
4026.69 151.924 154.658
4029.61 130.757 140.914
4032.53 150.273 158.399
4035.44 148.41 154.857
4038.36 135.864 143.648
4041.27 139.271 143.578
4044.19 139.784 145.143
4047.11 132.711 141.507
4050.02 124.573 132.129
4052.94 128.267 140.106
4055.85 130.699 141.64
4058.77 130.711 138.637
4061.69 128.312 134.91
4064.6 128.509 132.844
4067.52 134.203 141.281
4070.43 121.059 130.871
4073.35 130.825 139.697
4076.26 132.56 138.718
4079.18 128.301 134.889
4082.1 127.796 133.941
4085.01 127.362 134.543
4087.93 121.143 130.019
4090.84 131.548 136.981
4093.76 132.731 138.917
4096.67 137.661 144.539
4099.59 139.984 141.011
4102.5 141.949 149.299
4105.42 149.15 152.852
4108.33 143.686 150.162
4111.25 149.381 156.676
4114.16 143.97 157.196
4117.08 154.101 159.889
4119.99 152.187 160.386
4122.91 155.158 162.232
4125.82 153.553 163.686
4128.74 154.52 164.805
4131.65 163.637 177.403
4134.57 163.399 173.096
4137.48 164.239 174.44
4140.4 163.279 176.167
4143.31 172.155 180.814
4146.23 172.982 182.669
4149.14 166.918 181.706
4152.05 167.554 175.607
4154.97 175.663 186.981
4157.88 178.983 191.639
4160.8 171.061 184.774
4163.71 169.675 184.834
4166.63 169.854 189.915
4169.54 173.744 187.702
4172.45 178.158 192.505
4175.37 174.528 188.206
4178.28 168.454 184.718
4181.2 169.776 181.679
4184.11 165.913 183.724
4187.02 169.228 181.212
4189.94 163.355 179.598
4192.85 160.26 172.884
4195.76 161.586 172.691
4198.68 160.472 173.52
4201.59 154.997 172.616
4204.5 159.842 172.495
4207.42 160.221 172.788
4210.33 150.904 163.373
4213.24 160.24 171.858
4216.16 148.014 160.244
4219.07 149.208 160.074
4221.98 152.813 162.991
4224.9 143.763 155.152
4227.81 141.444 155.757
4230.72 155.305 166.095
4233.64 140.647 156.777
4236.55 145.075 153.184
4239.46 140.148 150.403
4242.37 133.276 143.317
4245.29 143.855 158.445
4248.2 144.202 156.414
4251.11 142.498 156.018
4254.03 146.942 158.33
4256.94 138.204 150.115
4259.85 136.889 150.853
4262.76 133.354 148.923
4265.68 143.151 157.528
4268.59 139.775 153.041
4271.5 136.176 151.522
4274.41 133.947 153.596
4277.32 132.543 145.361
4280.24 131.471 145.008
4283.15 128.346 140.832
4286.06 133.187 144.482
4288.97 132.63 145.512
4291.88 127.613 139.403
4294.8 124.456 135.736
4297.71 121.151 131.645
4300.62 122.463 127.807
4303.53 118.478 128.624
4306.44 118.309 125.282
4309.35 116.234 123.241
4312.27 119.224 125.209
4315.18 115.779 123.268
4318.09 113.056 122.108
4321 110.015 119.375
4323.91 106.203 112.991
4326.82 108.953 118.865
4329.73 102.155 110.064
4332.64 105.342 112.028
4335.56 93.6042 104.844
4338.47 101.796 109.825
4341.38 100.778 108.467
4344.29 95.1358 104.932
4347.2 99.4945 109.668
4350.11 93.771 101.309
4353.02 92.8793 101.747
4355.93 84.3354 98.904
4358.84 85.7712 94.6478
4361.75 85.7063 93.4532
4364.66 80.457 90.8741
4367.57 87.2887 98.2107
4370.48 81.0045 89.3807
4373.39 84.6483 92.413
4376.3 84.038 93.5447
4379.21 81.0676 89.2338
4382.12 79.2865 86.2947
4385.03 80.7522 88.9475
4387.94 83.89 89.8848
4390.85 87.7707 90.4286
4393.76 84.7138 93.8548
4396.67 80.1773 90.1091
4399.58 80.404 85.6047
4402.49 90.6089 96.6413
4405.4 87.7903 94.7158
4408.31 91.4158 100.574
4411.22 89.565 97.0211
4414.13 81.9679 95.9113
4417.04 91.9567 101.443
4419.95 92.3193 101.183
4422.86 90.7431 100.682
4425.77 95.5809 107.276
4428.68 98.2996 108.869
4431.59 96.3754 104.892
4434.5 92.6455 110.564
4437.41 94.9369 113.246
4440.31 104.543 116.008
4443.22 103.353 115.89
4446.13 105.333 115.134
4449.04 106.754 119.03
4451.95 102.892 118.234
4454.86 110.099 120.919
4457.77 109.858 122.401
4460.68 110 119.633
4463.58 109.932 121.542
4466.49 108.633 120.258
4469.4 106.135 115.867
4472.31 104.659 115.726
4475.22 111.971 126.464
4478.13 103.059 115.62
4481.03 105.783 117.958
4483.94 107.751 117.503
4486.85 105.054 115.941
4489.76 98.4184 115.182
4492.67 102.901 116.547
4495.57 103.458 115.256
4498.48 100.718 110.63
4501.39 99.0904 111.453
4504.3 96.7664 108.272
4507.2 97.7926 109.571
4510.11 94.7802 113.411
4513.02 102.949 115.245
4515.93 94.8468 112.368
4518.83 101.431 113.857
4521.74 101.709 113.868
4524.65 92.7106 110.253
4527.56 103.57 117.893
4530.46 106.785 119.409
4533.37 103.728 115.063
4536.28 96.395 117.301
4539.18 100.661 120.222
4542.09 108.326 122.583
4545 109.807 123.552
4547.91 111.904 125.694
4550.81 104.245 120.67
4553.72 111.329 123.726
4556.62 114.77 126.861
4559.53 119.735 132.684
4562.44 119.111 135.704
4565.34 113.299 130.065
4568.25 115.87 130.044
4571.16 111.725 132.805
4574.06 120.234 136.041
4576.97 120.279 135.36
4579.88 113.051 132.875
4582.78 119.984 136.235
4585.69 120.645 135.437
4588.59 122.087 134.889
4591.5 119.307 135.997
4594.4 121.346 135.363
4597.31 125.018 139.757
4600.22 124.084 137.383
4603.12 124.666 141.115
4606.03 121.579 134.909
4608.93 122.286 139.7
4611.84 117.473 133.118
4614.74 122.907 136.176
4617.65 118.372 132.241
4620.55 118.674 134.25
4623.46 121.96 139.887
4626.36 118.692 134.002
4629.27 120.623 137.477
4632.17 124.667 139.669
4635.08 115.344 132.035
4637.98 119.962 135.457
4640.89 117.82 133.53
4643.79 118.149 133.984
4646.7 114.281 130.18
4649.6 123.477 138.476
4652.51 117.056 134.267
4655.41 116.886 132.225
4658.31 120.615 137.261
4661.22 113.045 127.53
4664.12 120.255 137.367
4667.03 118.202 132.708
4669.93 115.321 130.918
4672.84 116.379 131.081
4675.74 111.765 134.099
4678.64 113.352 134.092
4681.55 115.291 137.757
4684.45 118.455 134.547
4687.35 119.973 135.506
4690.26 116.548 135.141
4693.16 113.976 130.666
4696.06 118.23 134.452
4698.97 118.81 135.842
4701.87 112.279 125.581
4704.77 115.843 130.546
4707.68 115.91 131.102
4710.58 109.621 124.577
4713.48 112.208 125.98
4716.39 111.047 127.236
4719.29 100.554 121.916
4722.19 107.803 125.058
4725.1 102.201 122.541
4728 102.76 117.401
4730.9 100.089 119.494
4733.8 101.996 119.673
4736.71 103.833 117.686
4739.61 100.961 115.518
4742.51 99.9529 117.036
4745.41 102.68 117.29
4748.32 99.0764 113.092
4751.22 101.728 119.388
4754.12 98.5763 112.075
4757.02 93.9893 109.062
4759.92 97.5135 113.491
4762.83 93.1685 107.064
4765.73 94.1637 105.933
4768.63 88.2694 107.951
4771.53 84.5211 105.287
4774.43 91.7285 108.848
4777.33 95.9044 109.615
4780.24 91.4526 101.929
4783.14 95.3837 108.189
4786.04 93.0308 107.319
4788.94 88.7327 103.68
4791.84 92.7207 105.581
4794.74 90.7102 104.853
4797.64 89.7327 104.346
4800.54 90.901 104.189
4803.45 90.1596 103.241
4806.35 89.6728 103.355
4809.25 86.8152 99.5706
4812.15 89.3045 101.978
4815.05 83.5846 96.129
4817.95 87.8279 102.441
4820.85 85.1089 99.5366
4823.75 84.0864 96.4793
4826.65 84.039 97.662
4829.55 83.0176 96.9237
4832.45 85.1645 99.575
4835.35 82.8214 98.0423
4838.25 88.1974 103.226
4841.15 86.9627 102.891
4844.05 84.7209 97.5707
4846.95 82.7711 99.4066
4849.85 84.9857 100.615
4852.75 87.0541 103.015
4855.65 80.7221 101.55
4858.55 88.2804 104.914
4861.45 87.1427 102.642
4864.35 88.5602 102.334
4867.25 85.8734 103.238
4870.15 90.6516 103.773
4873.05 88.4172 104.087
4875.95 82.9148 101.175
4878.84 86.7755 103.379
4881.74 86.2286 101.042
4884.64 92.2283 104.304
4887.54 90.7859 105.169
4890.44 88.1714 101.53
4893.34 87.8454 100.431
4896.24 86.2128 102.836
4899.14 82.3786 95.4002
4902.03 75.5892 89.51
4904.93 80.5529 95.8219
4907.83 61.3594 68.2796
4910.73 90.337 107.198
4913.63 87.8733 107.31
4916.53 90.5789 103.42
4919.42 73.4991 85.2332
4922.32 73.4741 86.9893
4925.22 69.5917 82.7209
4928.12 63.0385 79.1106
4931.01 69.5655 81.053
4933.91 64.1455 74.3932
4936.81 62.2684 72.994
4939.71 63.0213 74.1546
4942.6 63.5015 71.5549
4945.5 55.6437 72.0007
4948.4 61.4123 73.5905
4951.3 57.3966 73.7645
4954.19 63.9807 74.9963
4957.09 61.1224 73.6931
4959.99 62.0848 73.575
4962.88 62.88 73.4516
4965.78 58.1509 70.6808
4968.68 63.4005 74.3931
4971.57 63.2859 74.8773
4974.47 63.6157 75.6357
4977.37 61.316 73.4949
4980.26 64.038 77.4651
4983.16 59.7169 71.1302
4986.06 64.7423 75.5283
4988.95 64.4876 77.2835
4991.85 68.5535 80.0538
4994.75 67.8582 78.6906
4997.64 71.335 84.0832
5000.54 66.9356 78.8605
5003.43 63.8027 80.6816
5006.33 63.967 81.5725
5009.22 73.9857 89.3836
5012.12 74.1352 86.9335
5015.02 81.3036 98.8228
5017.91 119.468 146.602
5020.81 77.2468 91.9713
5023.7 72.7271 87.876
5026.6 72.8005 87.9605
5029.49 79.9753 95.3163
5032.39 76.8406 91.5249
5035.28 72.204 90.7744
5038.18 79.4979 93.9942
5041.07 74.8956 88.3555
5043.97 75.3622 89.4424
5046.86 75.2324 90.5235
5049.76 76.7276 92.2459
5052.65 74.2679 96.4262
5055.54 74.3493 88.3439
5058.44 77.6787 91.596
5061.33 69.6367 89.3564
5064.23 76.8281 91.8524
5067.12 77.2189 91.5551
5070.02 78.0088 92.7988
5072.91 72.503 91.9906
5075.8 73.8043 95.1356
5078.7 72.3711 92.5611
5081.59 73.0819 92.3871
5084.48 79.3696 95.0885
5087.38 77.7786 91.8239
5090.27 79.9964 94.1036
5093.16 82.7576 98.3818
5096.06 77.2285 98.0031
5098.95 80.0211 93.4976
5101.84 79.3516 93.2316
5104.74 80.1695 94.2914
5107.63 76.5934 97.9745
5110.52 79.6075 93.8753
5113.42 76.8351 91.9118
5116.31 79.1473 95.8701
5119.2 78.3448 93.6934
5122.09 79.03 93.3147
5124.99 78.5508 93.1889
5127.88 78.2492 92.6365
5130.77 80.2674 96.2308
5133.66 77.1215 96.948
5136.56 83.0039 100.642
5139.45 80.7023 96.6017
5142.34 83.5998 100.881
5145.23 81.7682 98.6208
5148.12 86.7725 102.184
5151.02 89.5563 105.619
5153.91 86.0594 101.549
5156.8 86.326 103.84
5159.69 83.8179 106.332
5162.58 84.764 102.963
5165.47 84.7288 102.467
5168.36 87.412 104.326
5171.25 83.5275 100.189
5174.15 89.6408 106.167
5177.04 85.9705 103.432
5179.93 87.3283 104.391
5182.82 84.0853 109.698
5185.71 84.4231 110.696
5188.6 83.2825 108.57
5191.49 76.9241 106.72
5194.38 82.8627 107.605
5197.27 83.7854 110.732
5200.16 77.4283 112.216
5203.05 87.5165 116.309
5205.94 85.7237 112.657
5208.83 82.2248 108.845
5211.72 85.6595 112.938
5214.61 81.5179 107.064
5217.5 81.1857 113.938
5220.39 82.1788 108.735
5223.28 84.3479 111.351
5226.17 86.5089 113.741
5229.06 86.9136 115.629
5231.95 87.4144 113.078
5234.84 78.8471 108.714
5237.73 80.6831 113.158
5240.62 83.7877 108.771
5243.51 77.0624 107.234
5246.4 83.0039 109.109
5249.28 85.6382 113.163
5252.17 79.7307 109.766
5255.06 81.5207 108.116
5257.95 80.7924 106.713
5260.84 85.5892 110.366
5263.73 79.8701 105.083
5266.62 87.1888 113.413
5269.5 76.7575 105.614
5272.39 82.2861 102.582
5275.28 89.8129 109.544
5278.17 78.206 102.388
5281.06 78.9818 101.053
5283.94 79.0606 102.289
5286.83 82.9134 100.05
5289.72 82.3087 106.221
5292.61 86.1117 103.36
5295.49 76.8744 100.319
5298.38 83.6774 102.366
5301.27 73.0181 96.3112
5304.16 77.9861 103.355
5307.04 74.8126 100.287
5309.93 76.5084 98.4116
5312.82 72.4351 100.147
5315.7 77.4839 99.8822
5318.59 69.2034 97.5324
5321.48 68.4485 98.6327
5324.36 74.7109 96.4179
5327.25 71.2187 94.2117
5330.14 72.6553 96.1663
5333.02 68.5064 90.7451
5335.91 67.5297 89.665
5338.79 66.9821 89.2905
5341.68 67.4189 88.7333
5344.57 67.5962 90.8023
5347.45 63.7865 84.0042
5350.34 68.14 88.7392
5353.22 64.7753 85.728
5356.11 63.4262 82.6716
5358.99 60.0629 79.234
5361.88 61.4522 80.9224
5364.77 58.1491 75.2686
5367.65 58.5056 74.8982
5370.54 58.7931 77.5811
5373.42 60.8149 77.7774
5376.31 59.1833 74.9837
5379.19 55.9962 77.8483
5382.08 57.7792 75.5319
5384.96 59.2394 77.9679
5387.84 61.1353 79.6105
5390.73 60.5845 79.6061
5393.61 58.9996 73.9981
5396.5 58.2612 77.1638
5399.38 58.8398 75.5339
5402.27 60.4159 76.6035
5405.15 61.4686 79.229
5408.03 55.138 79.3538
5410.92 55.6755 75.9507
5413.8 59.9255 79.683
5416.68 59.7561 78.7435
5419.57 61.9036 81.9835
5422.45 62.8586 82.6452
5425.34 60.1217 80.3231
5428.22 56.6282 81.391
5431.1 64.2043 86.6724
5433.98 63.9294 85.2888
5436.87 59.4237 86.1157
5439.75 62.8052 82.7816
5442.63 61.8343 82.9404
5445.52 59.7355 85.5699
5448.4 62.2839 82.2657
5451.28 64.7952 86.6786
5454.16 64.5274 87.7862
5457.05 68.2535 90.5994
5459.93 65.765 86.5681
5462.81 65.6604 86.8651
5465.69 65.3995 85.8388
5468.57 63.3125 85.1601
5471.46 67.7186 89.0995
5474.34 64.2443 87.6929
5477.22 64.644 85.5213
5480.1 69.6014 91.1284
5482.98 63.0763 84.8294
5485.86 65.7476 86.3521
5488.74 68.0459 89.8066
5491.63 63.0963 84.0282
5494.51 62.7069 83.1116
5497.39 59.2673 87.0774
5500.27 65.3361 86.2514
5503.15 61.813 82.9052
5506.03 60.9455 81.6089
5508.91 56.7812 81.5154
5511.79 59.6815 78.9185
5514.67 62.4097 84.8033
5517.55 58.3699 78.8257
5520.43 52.0474 78.339
5523.31 59.5367 78.3492
5526.19 59.05 77.5494
5529.07 55.5846 74.1394
5531.95 57.6611 75.9986
5534.83 50.104 73.8628
5537.71 53.977 73.6054
5540.59 50.4564 75.7098
5543.47 49.4549 73.7293
5546.35 48.6513 72.8824
5549.23 55.2542 74.0575
5552.11 54.0635 73.0288
5554.99 54.6739 73.8967
5557.87 54.0155 72.0658
5560.74 50.9853 69.7224
5563.62 46.2561 68.5895
5566.5 56.6753 79.2769
5569.38 49.2239 99.8339
5572.26 43.4788 112.713
5575.14 37.9718 114.541
5578.02 62.1119 90.8143
5580.89 57.3983 56.0178
5583.77 56.5073 48.9325
5586.65 59.1587 59.6347
5589.53 49.3794 69.6883
5592.4 64.2899 79.8181
5595.28 62.8693 74.6182
5598.16 66.3655 80.6148
5601.04 62.0327 77.9647
5603.91 66.7899 84.3412
5606.79 66.9823 86.6404
5609.67 65.7392 87.7282
5612.55 65.8389 86.0409
5615.42 66.3386 87.026
5618.3 68.2825 89.9438
5621.18 68.4665 90.2201
5624.05 59.9312 86.9735
5626.93 72.431 93.6072
5629.81 72.9104 94.6868
5632.68 71.8283 95.3481
5635.56 71.9079 94.262
5638.43 73.1163 95.6567
5641.31 70.521 93.9092
5644.19 71.5778 95.0317
5647.06 75.2042 97.3982
5649.94 70.4545 93.7352
5652.81 73.9334 98.041
5655.69 69.0485 92.4088
5658.56 74.4688 98.8957
5661.44 74.145 97.4347
5664.31 68.0793 90.2296
5667.19 74.4546 99.6476
5670.06 71.7402 94.3701
5672.94 62.3868 89.377
5675.81 71.2987 94.6418
5678.69 70.8238 94.319
5681.56 71.9584 95.8515
5684.44 66.5222 95.1671
5687.31 74.1655 96.3355
5690.19 69.2133 89.7533
5693.06 71.2394 94.1797
5695.93 75.2216 101.211
5698.81 71.8832 95.2883
5701.68 69.4072 90.8731
5704.56 69.7425 91.7323
5707.43 70.0918 93.0755
5710.3 73.7981 96.6231
5713.18 74.5284 97.5339
5716.05 73.2158 99.1562
5718.92 66.793 94.9443
5721.8 74.2157 96.1522
5724.67 73.6998 98.2552
5727.54 73.024 96.1211
5730.41 70.7346 93.9839
5733.29 69.9385 99.9325
5736.16 72.4133 95.831
5739.03 71.9502 102.59
5741.9 73.3083 96.8724
5744.78 67.418 95.4814
5747.65 77.8828 100.216
5750.52 68.9057 96.3217
5753.39 73.1275 95.9181
5756.26 74.7118 100.25
5759.14 76.7597 100.071
5762.01 69.6215 98.7198
5764.88 68.9304 97.1957
5767.75 75.5222 99.1025
5770.62 73.8061 96.2059
5773.49 70.1157 92.6991
5776.36 70.3682 94.4338
5779.23 73.7886 95.4591
5782.1 71.7938 101.663
5784.98 65.9212 93.7979
5787.85 73.8312 97.2779
5790.72 72.9427 95.3733
5793.59 64.3092 91.53
5796.46 66.4418 94.6915
5799.33 73.7268 97.3883
5802.2 70.7395 92.6351
5805.07 65.0641 94.5315
5807.94 68.9074 97.1367
5810.81 69.622 89.446
5813.68 66.4326 87.8352
5816.55 65.4251 94.0334
5819.41 68.5984 89.6704
5822.28 62.5315 90.7564
5825.15 66.6756 87.4077
5828.02 66.8456 89.1575
5830.89 66.9665 89.3029
5833.76 67.0778 88.3437
5836.63 65.6807 87.178
5839.5 66.6621 89.8646
5842.37 58.8982 84.4199
5845.23 65.4711 85.2539
5848.1 63.6809 84.7938
5850.97 60.7689 81.3554
5853.84 61.9158 84.0504
5856.71 56.3162 81.8783
5859.57 65.6543 88.9926
5862.44 64.2432 88.5491
5865.31 53.2349 84.8748
5868.18 64.6971 86.9214
5871.04 61.7547 81.5591
5873.91 61.955 79.5191
5876.78 63.7377 82.0719
5879.65 64.723 85.6352
5882.51 63.9089 95.162
5885.38 57.6072 92.5607
5888.25 63.1231 100.492
5891.11 46.6342 85.6976
5893.98 58.6828 77.378
5896.84 50.0822 71.6806
5899.71 60.3445 68.9799
5902.58 60.3451 71.5729
5905.44 61.5889 73.3124
5908.31 60.5511 76.5743
5911.17 64.5204 83.137
5914.04 70.0086 91.0234
5916.91 64.3062 82.7971
5919.77 62.8272 81.5282
5922.64 65.4723 84.1082
5925.5 67.0353 89.6649
5928.37 58.2128 87.6875
5931.23 60.9558 90.7053
5934.1 65.0444 84.8531
5936.96 67.2055 86.2086
5939.83 64.4155 84.0651
5942.69 67.1445 84.7977
5945.55 61.0482 87.9825
5948.42 65.464 88.4652
5951.28 69.4011 92.3306
5954.15 69.5115 89.5539
5957.01 70.3373 90.0152
5959.87 72.447 91.292
5962.74 61.9229 87.637
5965.6 68.5718 86.2894
5968.47 68.9568 91.187
5971.33 70.4134 94.1725
5974.19 70.5005 93.1632
5977.05 70.1286 90.4879
5979.92 71.1875 93.4343
5982.78 72.6129 93.2918
5985.64 69.0129 88.1149
5988.51 69.0565 90.8233
5991.37 66.2156 92.9919
5994.23 71.7803 93.7466
5997.09 71.363 93.7482
5999.96 68.1643 90.1894
6002.82 69.266 90.7273
6005.68 71.0679 92.4259
6008.54 70.4774 90.4794
6011.4 72.5496 91.5505
6014.26 70.5914 92.07
6017.13 71.2326 90.5652
6019.99 64.6462 89.9064
6022.85 69.4138 92.7731
6025.71 70.856 91.2629
6028.57 69.0129 88.7542
6031.43 70.1673 90.8563
6034.29 69.4685 92.7791
6037.15 64.4413 90.8189
6040.01 69.843 89.8366
6042.87 65.8295 86.2615
6045.73 67.2602 88.56
6048.59 65.1795 85.5336
6051.45 70.4533 89.9852
6054.31 62.8223 86.968
6057.17 69.9949 90.0324
6060.03 64.6699 86.1214
6062.89 68.1436 88.2864
6065.75 67.8661 87.9246
6068.61 64.0548 83.9776
6071.47 66.3099 86.9896
6074.33 61.4877 86.7058
6077.19 65.1729 86.8013
6080.05 65.9275 85.6349
6082.9 64.598 84.2409
6085.76 57.1717 81.526
6088.62 60.8776 79.0989
6091.48 63.7825 80.0443
6094.34 59.6127 84.4484
6097.2 57.7132 75.1952
6100.05 60.0427 80.5557
6102.91 57.7929 76.1159
6105.77 56.5938 73.4116
6108.63 53.8054 70.8992
6111.48 52.1858 69.4126
6114.34 52.081 67.5055
6117.2 54.4834 71.0291
6120.05 51.2622 66.6532
6122.91 47.73 62.4315
6125.77 48.5773 63.9813
6128.62 43.8939 64.4911
6131.48 40.5644 61.0989
6134.34 46.8893 64.2002
6137.19 47.3378 64.4971
6140.05 43.3617 58.2338
6142.91 39.3438 59.5032
6145.76 40.4051 53.7855
6148.62 42.1216 55.2397
6151.47 32.8214 51.1013
6154.33 34.7718 51.9199
6157.18 38.9406 50.4947
6160.04 40.1355 53.0441
6162.89 35.9781 49.3859
6165.75 38.0107 52.1341
6168.6 35.2625 48.8684
6171.46 38.5161 50.3882
6174.31 36.3437 48.2978
6177.17 33.038 41.9856
6180.02 28.6634 45.163
6182.88 35.7027 46.4026
6185.73 34.1648 46.3106
6188.58 31.1071 43.328
6191.44 31.0046 42.188
6194.29 25.9938 42.9046
6197.15 29.1041 42.1127
6200 30.6273 44.2563
6202.85 29.9904 42.0963
6205.71 30.3811 41.8706
6208.56 25.0187 41.6244
6211.41 29.856 40.4897
6214.26 29.4627 40.2699
6217.12 29.6819 41.1803
6219.97 27.1751 38.3918
6222.82 30.2241 41.4435
6225.67 27.0429 37.6982
6228.53 27.9393 42.2031
6231.38 28.1574 45.121
6234.23 28.4712 43.9245
6237.08 29.5342 41.6203
6239.93 27.6714 37.0976
6242.79 29.486 35.5133
6245.64 27.7273 39.9232
6248.49 31.4293 40.3461
6251.34 30.4912 41.3749
6254.19 27.9996 46.2982
6257.04 29.4026 46.5681
6259.89 21.9709 44.4483
6262.74 31.5553 45.3103
6265.59 23.0781 41.7316
6268.44 24.7237 43.9454
6271.29 31.651 43.8418
6274.14 30.2567 42.0238
6276.99 30.1251 44.6871
6279.84 28.182 51.0884
6282.69 26.1099 52.2601
6285.54 31.4678 49.9333
6288.39 35.1254 54.5735
6291.24 37.0435 88.1373
6294.09 15.0396 130.169
6296.94 38.1459 145.348
6299.79 42.8551 108.464
6302.64 2.60199 32.5019
6305.49 40.4136 -2.06489
6308.33 41.6012 -0.75208
6311.18 40.0066 16.4765
6314.03 43.2962 32.3476
6316.88 42.7929 39.2611
6319.73 40.8627 46.7406
6322.57 46.6996 58.922
6325.42 42.8353 60.7369
6328.27 44.2102 62.398
6331.12 45.6022 62.6048
6333.96 47.812 65.0226
6336.81 48.0925 64.3032
6339.66 43.4104 65.5846
6342.5 48.6122 66.721
6345.35 50.0288 70.2978
6348.2 47.717 69.6296
6351.04 52.9095 74.9182
6353.89 38.9656 78.6385
6356.74 54.5423 96.9363
6359.58 50.1541 98.0179
6362.43 35.2892 88.8371
6365.27 57.1442 73.0707
6368.12 54.4492 55.5111
6370.97 52.8028 54.1046
6373.81 56.707 66.1887
6376.66 56.7468 71.2117
6379.5 57.2593 72.2173
6382.35 58.4168 75.8554
6385.19 55.548 78.7082
6388.04 62.5101 82.1069
6390.88 57.0202 78.1144
6393.72 61.098 80.3724
6396.57 61.2318 82.6276
6399.41 55.2612 81.5604
6402.26 59.0951 85.3256
6405.1 60.5213 83.4479
6407.94 61.1293 84.5187
6410.79 63.6748 84.9928
6413.63 58.4687 85.4341
6416.47 58.5936 85.7599
6419.32 62.1842 85.4074
6422.16 60.5887 82.7948
6425 61.7247 84.7038
6427.85 64.0793 85.537
6430.69 65.0565 87.3644
6433.53 62.7696 84.8853
6436.37 64.2013 85.8949
6439.21 62.4931 83.9422
6442.06 66.6682 89.6167
6444.9 62.777 85.9274
6447.74 60.4843 83.7338
6450.58 64.7318 88.4838
6453.42 61.8974 90.6541
6456.26 57.9101 87.9889
6459.11 61.5694 88.0586
6461.95 60.1827 86.4016
6464.79 55.2498 89.0809
6467.63 58.903 84.9888
6470.47 53.7288 80.6997
6473.31 57.8514 84.2931
6476.15 60.9173 85.182
6478.99 64.5837 83.9092
6481.83 64.9017 83.6607
6484.67 63.3968 82.1336
6487.51 62.3547 84.3633
6490.35 63.4242 87.7685
6493.19 60.2921 89.213
6496.03 64.6858 92.1954
6498.87 66.0913 88.9999
6501.71 63.08 85.0601
6504.54 61.7018 81.6483
6507.38 56.6945 81.8167
6510.22 62.7474 81.447
6513.06 58.8062 82.4919
6515.9 57.1121 84.9206
6518.74 64.5295 86.9443
6521.57 63.3069 84.6302
6524.41 61.8554 84.7828
6527.25 63.0238 85.0521
6530.09 54.7444 84.6269
6532.92 67.5664 87.1063
6535.76 63.8942 81.4391
6538.6 52.1376 76.0189
6541.44 63.662 82.6405
6544.27 59.9027 81.2402
6547.11 61.8814 83.6696
6549.95 57.3259 85.8754
6552.78 59.1488 81.838
6555.62 51.2282 80.2287
6558.45 57.666 75.8589
6561.29 58.715 77.2202
6564.13 53.9065 78.0298
6566.96 52.6398 76.8057
6569.8 54.8247 71.5433
6572.63 49.5569 75.6069
6575.47 58.9831 76.3304
6578.3 52.6703 77.3985
6581.14 54.5801 75.3418
6583.97 52.6086 75.1709
6586.81 58.7467 75.0867
6589.64 52.7434 75.0929
6592.48 58.5386 75.7134
6595.31 55.155 72.7026
6598.14 53.9768 73.0367
6600.98 57.4259 77.2525
6603.81 60.1417 78.1429
6606.65 50.1818 72.3652
6609.48 58.3849 73.4167
6612.31 55.2796 72.0331
6615.14 50.755 70.5093
6617.98 50.9343 73.8347
6620.81 48.4026 71.718
6623.64 56.0649 73.7923
6626.48 52.7086 70.2172
6629.31 50.549 74.4547
6632.14 53.2889 75.6874
6634.97 57.3171 74.9056
6637.8 49.1267 70.837
6640.64 58.2487 74.3702
6643.47 58.4416 75.7825
6646.3 55.0559 71.7406
6649.13 53.803 72.4928
6651.96 52.9489 69.6871
6654.79 54.3249 70.41
6657.62 50.6045 67.9642
6660.45 53.0565 71.2135
6663.28 54.6974 73.4731
6666.11 53.6374 69.8698
6668.95 54.7298 69.7393
6671.78 45.9904 66.0881
6674.61 49.7175 69.5213
6677.43 57.3032 71.9894
6680.26 54.5886 71.4259
6683.09 51.6558 69.9127
6685.92 55.8015 71.3675
6688.75 49.7744 68.561
6691.58 54.2136 69.7871
6694.41 56.0124 72.1753
6697.24 51.6283 73.1017
6700.07 46.5653 68.6514
6702.9 55.8314 72.3257
6705.72 51.9851 67.8394
6708.55 54.4339 71.5195
6711.38 53.9227 68.6368
6714.21 52.6242 71.3181
6717.04 45.5951 65.8977
6719.86 50.5712 66.2842
6722.69 54.8284 71.47
6725.52 50.2278 65.3982
6728.34 53.9264 69.716
6731.17 51.0802 67.7842
6734 53.2096 68.1371
6736.82 47.8972 69.0871
6739.65 52.3316 68.8777
6742.48 50.8433 64.5136
6745.3 53.6008 69.9649
6748.13 52.3079 68.2366
6750.95 49.5303 64.0973
6753.78 52.5316 67.8812
6756.6 51.9573 68.1867
6759.43 50.3838 67.6493
6762.26 51.0183 65.3762
6765.08 51.4326 66.4988
6767.9 50.7619 67.7503
6770.73 52.1751 67.3003
6773.55 52.3082 67.0682
6776.38 53.2383 67.8463
6779.2 49.382 63.5764
6782.03 50.2655 64.4066
6784.85 51.7464 65.2704
6787.67 51.3609 66.285
6790.5 49.7418 64.0621
6793.32 49.7965 62.9949
6796.14 48.4808 62.0097
6798.97 44.1903 63.5184
6801.79 48.9789 62.8817
6804.61 46.8499 59.9944
6807.43 47.5058 61.0714
6810.26 48.4197 61.4368
6813.08 47.725 60.3645
6815.9 46.2491 58.6684
6818.72 50.7045 64.6134
6821.54 50.2089 67.9967
6824.37 48.1568 65.3897
6827.19 47.2063 66.3042
6830.01 47.4288 61.0824
6832.83 45.7329 59.5446
6835.65 43.7949 53.3301
6838.47 47.8028 57.1096
6841.29 42.1384 58.8457
6844.11 46.7498 52.6413
6846.93 46.8172 56.3166
6849.75 50.1615 58.8541
6852.57 45.2689 53.1685
6855.39 44.4317 56.3127
6858.21 45.6216 59.3964
6861.03 46.5996 57.5196
6863.85 40.4602 51.0006
6866.67 40.7649 48.121
6869.49 35.5825 43.4934
6872.31 35.8373 45.3576
6875.13 36.0416 43.8925
6877.94 37.9486 46.0642
6880.76 42.4558 50.1029
6883.58 38.5079 46.5033
6886.4 33.7288 47.9588
6889.22 40.0883 48.3726
6892.03 33.2536 47.6875
6894.85 39.5572 47.655
6897.67 43.9576 52.0756
6900.49 41.897 50.8982
6903.3 36.218 51.9757
6906.12 35.7178 51.1914
6908.94 32.9379 46.8577
6911.75 38.7992 48.5787
6914.57 45.7257 59.3974
6917.39 42.2689 52.9725
6920.2 44.1553 53.4443
6923.02 45.9433 57.2698
6925.83 44.1711 54.111
6928.65 42.1714 53.0244
6931.46 44.4458 56.6034
6934.28 40.0398 55.8917
6937.09 40.0433 58.5028
6939.91 35.5026 54.0002
6942.72 44.6009 56.0688
6945.54 47.1161 57.3018
6948.35 41.3592 51.9508
6951.17 37.5159 52.513
6953.98 44.3876 53.9589
6956.79 43.0883 60.5187
6959.61 44.0701 54.8394
6962.42 43.8925 55.9586
6965.23 44.4922 56.4204
6968.05 44.5029 56.143
6970.86 40.0194 54.9798
6973.67 43.2123 55.2888
6976.49 44.1194 53.0703
6979.3 37.0887 53.6632
6982.11 37.2483 52.9886
6984.92 39.8906 55.4527
6987.73 47.5618 56.1843
6990.55 40.6596 51.8104
6993.36 45.1606 55.1007
6996.17 43.9493 55.1179
6998.98 38.8601 51.5836
7001.79 43.9482 53.8036
7004.6 42.5762 52.7692
7007.41 44.2269 52.5437
7010.22 40.0792 56.2966
7013.03 38.694 52.8754
7015.84 45.9085 55.1471
7018.65 41.5774 51.6127
7021.46 43.0096 54.2241
7024.27 39.7134 53.1691
7027.08 43.8358 53.5979
7029.89 39.5916 53.2373
7032.7 43.8275 54.0384
7035.51 43.3818 52.5288
7038.32 44.5923 54.3081
7041.13 41.6734 49.566
7043.94 40.9543 51.2443
7046.74 45.5559 55.7238
7049.55 43.4777 50.9625
7052.36 43.1859 53.9325
7055.17 40.317 49.0514
7057.97 42.0648 50.3169
7060.78 43.2994 52.2779
7063.59 43.7617 53.9228
7066.4 37.5167 50.1779
7069.2 46.0865 53.1706
7072.01 41.3495 48.3163
7074.82 43.5476 50.6151
7077.62 38.0249 47.9466
7080.43 39.6976 43.8738
7083.23 44.1681 49.2409
7086.04 44.4961 49.6958
7088.85 40.5922 45.8865
7091.65 35.9739 44.1778
7094.46 41.7392 45.5721
7097.26 45.747 49.9576
7100.07 41.1041 44.9562
7102.87 41.584 44.8335
7105.68 39.156 47.1336
7108.48 39.8542 44.4663
7111.28 42.4879 48.4532
7114.09 41.5095 45.4865
7116.89 37.5799 44.5493
7119.7 43.1715 46.3327
7122.5 40.5126 50.4985
7125.3 30.6349 35.8779
7128.11 40.0817 43.5008
7130.91 37.8199 42.9899
7133.71 42.3876 47.7013
7136.51 43.0199 49.8224
7139.32 41.6349 47.134
7142.12 39.4159 48.2746
7144.92 40.7781 48.3127
7147.72 42.206 47.2502
7150.52 44.3225 51.267
7153.33 35.1958 47.2143
7156.13 39.8884 47.5302
7158.93 41.8953 49.019
7161.73 42.2072 50.2038
7164.53 38.6408 49.6444
7167.33 37.7993 46.0761
7170.13 36.9927 49.3758
7172.93 37.413 51.3491
7175.73 39.9078 47.6551
7178.53 33.8013 46.086
7181.33 40.9593 50.5667
7184.13 37.3328 45.7095
7186.93 42.4606 49.7489
7189.73 36.6778 46.9756
7192.53 39.1319 50.9431
7195.33 40.213 50.4295
7198.12 32.6109 44.9369
7200.92 37.808 48.0211
7203.72 34.7345 46.231
7206.52 35.4184 46.8247
7209.32 37.852 49.2296
7212.11 37.0876 48.5562
7214.91 36.3535 47.578
7217.71 38.7974 49.1384
7220.51 39.1091 51.404
7223.3 39.2851 47.5081
7226.1 36.6207 44.8194
7228.9 36.5408 45.6729
7231.69 36.5352 36.9124
7234.49 34.5184 37.4376
7237.29 37.7051 39.1604
7240.08 36.4644 49.1025
7242.88 39.1781 55.5215
7245.67 35.3326 53.6982
7248.47 31.5447 53.4555
7251.26 33.4576 53.7128
7254.06 37.326 49.6029
7256.85 36.6048 48.901
7259.65 35.6423 45.0401
7262.44 33.9735 42.6288
7265.23 34.7194 36.6679
7268.03 35.6091 31.9839
7270.82 37.0555 36.1763
7273.62 41.7908 51.165
7276.41 37.8635 52.9085
7279.2 32.0688 54.7676
7282 31.3415 48.5864
7284.79 36.3135 55.6746
7287.58 31.5086 46.1472
7290.37 35.9149 47.619
7293.17 36.4307 44.2806
7295.96 38.4033 44.4386
7298.75 37.9193 49.1084
7301.54 34.7158 43.992
7304.33 36.0121 43.6042
7307.12 37.7578 36.21
7309.91 35.0917 32.8981
7312.71 36.7735 49.5684
7315.5 36.5611 53.969
7318.29 32.8639 50.2223
7321.08 34.2268 45.6074
7323.87 35.12 43.5419
7326.66 35.9492 45.4633
7329.45 37.3063 40.9625
7332.24 37.3466 34.3638
7335.03 39.8389 35.8844
7337.81 35.8553 46.3638
7340.6 41.6012 65.9924
7343.39 35.4589 58.307
7346.18 32.9809 49.3953
7348.97 35.9057 45.0662
7351.76 31.6008 38.0593
7354.55 34.3981 43.707
7357.33 37.7554 44.3253
7360.12 35.8851 34.1163
7362.91 35.7408 31.8014
7365.7 35.0599 43.9569
7368.48 36.24 53.912
7371.27 41.5145 60.2776
7374.06 30.1664 47.7201
7376.84 30.5022 44.5848
7379.63 35.4957 41.8828
7382.41 34.4566 37.9942
7385.2 36.0141 40.0232
7387.99 32.6459 39.7279
7390.77 32.1546 35.6981
7393.56 32.378 36.143
7396.34 33.1572 37.174
7399.13 37.6963 50.7044
7401.91 35.1713 53.4447
7404.7 33.5162 49.6994
7407.48 32.5159 49.3922
7410.26 34.8983 44.4281
7413.05 36.2044 45.7929
7415.83 34.2044 42.9779
7418.62 31.9256 39.0879
7421.4 31.0837 35.6918
7424.18 36.084 38.947
7426.96 33.3 39.1867
7429.75 35.2457 38.853
7432.53 35.1795 39.1094
7435.31 33.2478 44.4136
7438.09 33.8902 47.909
7440.88 31.5919 45.4593
7443.66 33.7431 42.623
7446.44 29.4307 40.8575
7449.22 31.2075 39.4203
7452 33.6072 38.8564
7454.78 33.4248 38.1676
7457.56 34.1806 37.4626
7460.34 33.5382 35.5018
7463.12 33.6713 35.5706
7465.9 31.7835 35.7148
7468.68 32.9245 40.5427
7471.46 32.8122 38.5238
7474.24 30.254 32.7868
7477.02 30.5795 36.564
7479.8 34.646 48.9122
7482.58 29.7751 45.1432
7485.36 31.861 43.8309
7488.14 31.0222 41.9837
7490.92 28.2771 36.794
7493.69 29.5826 39.2136
7496.47 31.8532 41.1642
7499.25 29.1535 37.8131
7502.03 30.9967 37.184
7504.8 29.741 35.1434
7507.58 31.1911 34.8537
7510.36 28.5173 30.0437
7513.14 29.6393 22.739
7515.91 28.6042 16.5853
7518.69 30.8393 24.0934
7521.46 27.049 33.2541
7524.24 28.2207 47.2378
7527.02 26.4468 46.3124
7529.79 26.9517 43.1068
7532.57 28.2467 41.7171
7535.34 31.5443 41.3377
7538.12 28.6637 35.9902
7540.89 25.5826 33.1782
7543.66 29.8448 34.745
7546.44 27.8036 30.4202
7549.21 26.1497 28.3355
7551.99 27.9741 33.0951
7554.76 23.7286 28.4477
7557.53 25.8659 30.7319
7560.31 25.7894 25.5848
7563.08 23.4369 18.5087
7565.85 22.3974 20.8331
7568.63 25.4867 31.0031
7571.4 26.0592 40.6996
7574.17 22.3718 36.535
7576.94 26.0796 36.004
7579.71 22.1897 26.9435
7582.48 25.5474 31.5089
7585.26 22.2819 30.9311
7588.03 23.2242 30.9371
7590.8 19.9109 22.7923
7593.57 15.3054 19.9121
7596.34 13.4909 22.7804
7599.11 10.4933 18.5666
7601.88 7.54363 12.4876
7604.65 7.38643 8.58352
7607.42 8.56954 7.37534
7610.19 11.2109 7.62988
7612.96 14.2213 13.0558
7615.73 16.204 15.9719
7618.5 15.8281 17.3746
7621.26 15.7532 18.4143
7624.03 13.7028 16.9979
7626.8 14.375 20.88
7629.57 14.1659 18.9848
7632.34 15.9911 22.5684
7635.1 13.6935 17.8681
7637.87 14.9682 16.3455
7640.64 13.2516 17.3454
7643.4 15.9929 15.9293
7646.17 18.5454 18.8615
7648.94 19.6361 19.4846
7651.7 17.7334 20.2625
7654.47 18.6287 17.7404
7657.24 20.2303 22.7414
7660 23.7669 29.7561
7662.77 22.3358 31.0717
7665.53 25.6704 31.3534
7668.3 23.7421 29.5657
7671.06 22.5537 28.8243
7673.83 24.3338 26.0591
7676.59 23.5703 23.4805
7679.35 23.0399 23.1489
7682.12 25.3119 26.2613
7684.88 23.8162 28.081
7687.65 24.5824 27.7868
7690.41 25.2228 28.8968
7693.17 25.8996 32.2625
7695.93 25.303 31.6779
7698.7 26.0722 27.149
7701.46 26.9453 13.0097
7704.22 27.7302 -7.50087
7706.98 26.1633 -17.7353
7709.75 25.6428 6.28696
7712.51 31.0517 43.7938
7715.27 26.8103 62.4542
7718.03 29.2732 66.4033
7720.79 24.9335 52.7245
7723.55 26.9548 48.9382
7726.31 28.8406 46.8146
7729.07 31.5476 37.3426
7731.83 25.1206 33.1044
7734.59 24.8399 30.736
7737.35 29.9409 22.7041
7740.11 27.2267 -4.51103
7742.87 30.9555 -5.18757
7745.63 32.644 14.9789
7748.39 28.4319 40.0758
7751.14 33.4778 60.9867
7753.9 27.8914 53.6622
7756.66 25.4319 48.4194
7759.42 26.4737 52.524
7762.18 29.4064 44.016
7764.93 28.9253 32.2809
7767.69 29.2057 31.154
7770.45 33.2744 27.4008
7773.2 29.1459 27.232
7775.96 31.034 36.5923
7778.72 34.4889 39.588
7781.47 33.9094 32.621
7784.23 33.0577 11.9562
7786.98 29.2277 7.74005
7789.74 35.4488 29.7825
7792.49 30.2867 52.2995
7795.25 38.332 64.47
7798 31.0893 42.1909
7800.76 28.5673 28.0524
7803.51 29.6726 27.0896
7806.27 33.1889 37.0094
7809.02 32.0908 27.8843
7811.77 30.0282 10.5025
7814.53 32.2016 4.2279
7817.28 34.1785 30.5617
7820.03 34.8385 54.7677
7822.79 32.0971 69.764
7825.54 33.1742 61.2016
7828.29 28.6732 40.1288
7831.04 26.8399 26.7666
7833.79 31.7538 23.2728
7836.55 30.8587 26.8431
7839.3 33.4698 26.8459
7842.05 33.2245 13.5442
7844.8 28.7978 -8.68682
7847.55 31.7626 1.87834
7850.3 36.8425 28.8168
7853.05 38.8166 58.8878
7855.8 27.0694 60.1819
7858.55 31.9428 49.6713
7861.3 31.3869 38.7803
7864.05 30.9217 31.5638
7866.8 35.3066 40.8595
7869.55 30.6634 43.8514
7872.3 32.7091 44.8761
7875.04 30.3147 37.8705
7877.79 33.2903 32.78
7880.54 31.8978 32.1581
7883.29 37.4173 35.57
7886.03 34.1774 41.5775
7888.78 32.3435 48.6051
7891.53 34.446 58.351
7894.28 30.5866 46.4854
7897.02 29.7094 39.453
7899.77 35.0451 23.8796
7902.51 34.9135 -4.00528
7905.26 35.8262 -30.1251
7908.01 30.4802 -19.3415
7910.75 32.6099 21.5757
7913.5 40.4073 64.2197
7916.24 31.2933 72.6035
7918.99 32.1302 68.79
7921.73 29.6373 55.4253
7924.47 31.9777 41.0816
7927.22 29.704 40.4219
7929.96 32.1994 44.6963
7932.71 33.4187 49.387
7935.45 34.4948 41.5223
7938.19 30.1817 28.0351
7940.94 32.978 25.4321
7943.68 33.9891 24.4858
7946.42 28.5587 35.3442
7949.16 35.5754 43.9879
7951.9 32.3419 28.2828
7954.65 32.6713 1.58716
7957.39 31.3454 -11.5763
7960.13 36.8189 15.5821
7962.87 30.5212 40.8005
7965.61 35.1775 71.7354
7968.35 32.1102 56.9938
7971.09 29.0445 28.9174
7973.83 32.4835 27.0681
7976.57 31.8451 33.9152
7979.31 33.1331 43.0596
7982.05 36.3324 25.5893
7984.79 29.4968 -4.43092
7987.53 29.7426 -4.48586
7990.27 34.8586 29.425
7993 35.4692 63.2203
7995.74 27.1571 75.0068
7998.48 29.1616 57.4601
8001.22 26.6137 40.3757
8003.95 31.8715 23.5243
8006.69 31.0478 19.0743
8009.43 30.8023 20.152
8012.17 18.3226 16.3203
8014.9 27.9996 23.6788
8017.64 32.2988 4.8831
8020.37 30.0406 9.28082
8023.11 30.8665 32.7408
8025.85 28.4212 58.8871
8028.58 30.9653 61.2666
8031.32 23.3345 45.7144
8034.05 33.3276 43.2572
8036.79 30.0571 34.0295
8039.52 27.1094 26.9854
8042.25 30.1087 22.1776
8044.99 29.8732 23.6876
8047.72 29.6438 27.6292
8050.45 26.6161 21.8903
8053.19 30.1099 21.7797
8055.92 27.6043 20.8024
8058.65 27.0488 23.4695
8061.39 25.7248 35.8098
8064.12 24.8671 43.2513
8066.85 26.6852 37.0968
8069.58 24.2599 35.3394
8072.31 27.0945 31.7806
8075.04 24.243 27.986
8077.77 26.0748 28.8301
8080.5 24.8128 27.1604
8083.24 21.7744 23.3194
8085.97 25.5678 25.0034
8088.7 21.8567 26.7809
8091.43 25.9795 26.9267
8094.15 25.2194 28.5244
8096.88 29.2073 28.3681
8099.61 25.5783 30.3908
8102.34 22.5767 35.3967
8105.07 24.4945 34.6172
8107.8 25.1322 28.9961
8110.53 25.5489 33.0034
8113.25 25.5601 28.3673
8115.98 21.4028 27.6559
8118.71 22.8978 24.7535
8121.44 22.7364 28.8996
8124.16 22.8893 25.1087
8126.89 23.6674 29.748
8129.61 23.0308 23.8884
8132.34 21.7712 21.5699
8135.07 23.2469 25.3713
8137.79 24.7064 27.2142
8140.52 25.5063 31.5274
8143.24 25.8358 27.1975
8145.97 21.2441 23.2984
8148.69 26.1531 31.5146
8151.42 24.8817 28.6527
8154.14 25.5529 29.7609
8156.86 23.4266 25.0966
8159.59 23.2114 28.2541
8162.31 22.3177 24.4616
8165.03 22.8046 23.489
8167.76 20.808 23.1062
8170.48 19.7686 22.3947
8173.2 24.0212 24.3622
8175.92 21.3229 23.72
8178.65 23.213 24.8527
8181.37 22.8205 23.3024
8184.09 22.6793 21.0915
8186.81 23.387 23.2395
8189.53 22.9211 26.796
8192.25 19.9961 22.9926
8194.97 22.3877 26.8194
8197.69 23.8043 24.84
8200.41 22.6198 23.0235
8203.13 18.5903 23.9963
8205.85 22.6652 20.1942
8208.57 26.7343 27.3795
8211.29 22.182 27.6343
8214.01 20.0221 20.9708
8216.72 23.6714 25.5494
8219.44 23.6325 23.1872
8222.16 21.9826 23.0593
8224.88 22.0002 26.9866
8227.59 19.8506 25.5469
8230.31 20.928 21.7399
8233.03 21.8554 25.4607
8235.74 25.4727 24.9653
8238.46 22.1963 21.4574
8241.18 21.8443 22.241
8243.89 26.0363 27.2575
8246.61 21.0752 24.558
8249.32 25.3053 25.4484
8252.04 24.5667 26.6751
8254.75 23.1296 30.095
8257.47 26.941 27.233
8260.18 21.8912 24.9275
8262.9 22.9485 26.4871
8265.61 23.5155 22.3409
8268.32 23.9981 20.212
8271.04 24.1931 11.3466
8273.75 22.8623 -1.15627
8276.46 24.1426 -0.849816
8279.17 27.7864 3.19196
8281.89 23.7305 8.69092
8284.6 21.9165 21.8205
8287.31 17.5457 22.6763
8290.02 21.1571 24.8346
8292.73 20.4468 18.6622
8295.44 20.6805 19.5708
8298.15 27.1396 40.4958
8300.86 24.0227 46.6075
8303.57 21.9839 40.4415
8306.28 22.1445 24.8854
8308.99 21.3714 23.7719
8311.7 20.831 25.5993
8314.41 20.3005 30.525
8317.12 21.8994 26.6445
8319.83 22.5392 27.1615
8322.54 23.3928 24.4513
8325.24 25.642 23.2332
8327.95 23.5512 21.1707
8330.66 27.0498 21.4907
8333.37 16.1356 6.21765
8336.07 17.4564 -12.9402
8338.78 23.7776 -32.0449
8341.49 22.2331 -11.6626
8344.19 30.4366 22.6957
8346.9 25.8445 49.4206
8349.6 17.5549 55.4705
8352.31 13.5 40.0875
8355.01 16.0505 39.9473
8357.72 23.6504 30.7924
8360.42 14.987 19.5922
8363.13 23.4115 21.964
8365.83 20.8253 22.9286
8368.54 22.9815 29.8495
8371.24 21.0968 27.0261
8373.94 21.7022 22.8333
8376.65 22.4219 15.0806
8379.35 22.0219 13.8272
8382.05 22.0992 19.7645
8384.75 24.9259 29.9444
8387.45 14.4027 26.4811
8390.16 20.4391 20.9085
8392.86 24.5812 4.11374
8395.56 27.6563 10.0569
8398.26 30.2739 7.11701
8400.96 20.9225 37.5541
8403.66 18.5753 51.7376
8406.36 18.0015 36.2401
8409.06 18.4018 16.803
8411.76 21.7434 13.0182
8414.46 26.7095 23.0068
8417.16 26.9083 32.6525
8419.86 23.3178 29.703
8422.55 18.3545 9.34885
8425.25 23.5227 11.5336
8427.95 31.4444 23.5942
8430.65 18.1943 23.0944
8433.35 15.3836 19.5494
8436.04 17.744 20.7425
8438.74 20.9744 12.4055
8441.44 22.798 20.2466
8444.13 19.8239 14.684
8446.83 26.0954 20.7149
8449.52 23.4461 15.2594
8452.22 24.5767 25.4857
8454.91 25.7339 21.2091
8457.61 15.8203 13.783
8460.3 18.4549 15.6279
8463 26.7298 14.9418
8465.69 25.3954 19.2909
8468.39 18.2357 18.7195
8471.08 20.2173 24.2936
8473.77 25.1405 25.2002
8476.47 22.3681 20.8747
8479.16 19.5692 19.475
8481.85 20.0359 21.9405
8484.54 21.4035 20.9059
8487.24 20.2983 20.7641
8489.93 20.4128 18.9482
8492.62 26.9247 23.4212
8495.31 17.2086 20.4935
8498 21.6165 19.9171
8500.69 23.6305 22.8025
8503.38 21.513 23.1404
8506.07 26.5439 23.8637
8508.76 19.4323 15.5905
8511.45 22.9952 18.4436
8514.14 22.4858 20.3234
8516.83 22.0566 19.4066
8519.52 18.9822 22.0769
8522.21 24.7489 19.46
8524.89 22.9148 22.8949
8527.58 22.273 21.5081
8530.27 22.2334 21.8966
8532.96 21.2375 19.7868
8535.64 23.2965 24.3577
8538.33 25.513 24.011
8541.02 21.2783 19.4258
8543.7 24.5924 22.9126
8546.39 22.5582 20.3422
8549.07 18.9187 19.1987
8551.76 27.1986 14.9884
8554.44 21.2769 16.206
8557.13 27.6113 23.3677
8559.81 19.5584 13.2301
8562.5 21.0725 15.5739
8565.18 23.4473 18.6563
8567.86 24.9804 17.3095
8570.55 23.5324 17.2866
8573.23 20.9178 15.8705
8575.91 22.2474 15.7431
8578.6 28.6675 19.3528
8581.28 26.4962 18.38
8583.96 25.9066 18.7033
8586.64 27.3962 20.7404
8589.32 27.5447 20.2884
8592 24.3796 22.8568
8594.68 19.5396 19.2414
8597.36 27.1496 21.04
8600.05 24.7424 22.6868
8602.73 23.6743 17.4292
8605.4 24.9429 16.1846
8608.08 24.139 21.3728
8610.76 28.1722 30.7198
8613.44 28.6336 28.8036
8616.12 24.9188 28.8635
8618.8 29.6911 31.5043
8621.48 24.6498 34.5002
8624.15 27.7088 30.3986
8626.83 24.6593 24.5705
8629.51 27.7586 24.4807
8632.19 23.1522 19.1687
8634.86 23.7772 17.0456
8637.54 28.2802 13.7426
8640.21 23.693 17.708
8642.89 29.2052 19.1056
8645.57 29.3235 26.0681
8648.24 29.2892 28.2173
8650.91 27.5394 30.6928
8653.59 26.2722 25.5993
8656.26 23.7312 26.3679
8658.94 23.536 22.271
8661.61 29.5672 15.6539
8664.28 32.6559 21.9958
8666.96 25.9701 17.4777
8669.63 24.8782 18.1656
8672.3 30.912 15.5013
8674.98 28.2201 15.4651
8677.65 27.4121 17.9406
8680.32 24.8622 19.5537
8682.99 26.3009 15.6184
8685.66 28.076 19.3619
8688.33 25.0473 19.4239
8691 27.5192 22.5158
8693.67 29.9725 22.4293
8696.34 28.1906 24.5793
8699.01 28.3154 26.2649
8701.68 28.3357 23.2575
8704.35 25.2997 22.824
8707.02 26.7006 22.4236
8709.69 27.8807 17.7359
8712.36 26.6583 25.4914
8715.02 27.2132 18.5988
8717.69 26.2182 20.1598
8720.36 28.3944 23.2742
8723.02 23.0926 21.1339
8725.69 27.1516 24.3092
8728.36 27.8133 19.9712
8731.02 24.4158 19.6441
8733.69 27.2065 20.3339
8736.36 28.897 20.8686
8739.02 26.8696 19.6682
8741.69 26.5398 25.5289
8744.35 27.6618 22.7911
8747.01 26.3761 24.4335
8749.68 30.0047 25.7164
8752.34 25.9577 25.2147
8755.01 31.4312 53.9182
8757.67 19.1833 93.7946
8760.33 30.9478 111.351
8762.99 29.1168 125.498
8765.66 31.4401 92.5752
8768.32 28.7023 38.6361
8770.98 23.9254 9.62352
8773.64 19.7578 -16.1418
8776.3 30.5032 22.1508
8778.96 27.6205 32.1216
8781.62 19.56 -6.98088
8784.28 17.9393 -79.7967
8786.94 23.1283 -68.08
8789.6 26.4497 -33.9923
8792.26 22.9289 -5.54106
8794.92 24.0941 3.50826
8797.58 23.0629 -8.19566
8800.24 28.144 -13.1032
8802.9 26.5323 -3.68998
8805.55 25.9987 7.39075
8808.21 26.1226 13.871
8810.87 30.2106 26.321
8813.53 25.6712 21.7073
8816.18 23.8097 20.1139
8818.84 27.2132 31.9836
8821.49 22.9575 85.5524
8824.15 27.9889 226.74
8826.81 20.4551 272.719
8829.46 25.0447 210.725
8832.11 32.0579 46.3429
8834.77 24.9285 -73.6333
8837.42 23.9603 -111.733
8840.08 27.964 -109.474
8842.73 17.2381 -131.21
8845.38 24.3586 -97.3486
8848.04 22.9472 -50.5137
8850.69 23.4713 -7.09201
8853.34 26.6962 5.99297
8855.99 23.8845 -2.91289
8858.65 23.0395 -5.46543
8861.3 23.1317 4.55219
8863.95 24.9839 44.0294
8866.6 28.4762 77.3225
8869.25 24.4352 73.4809
8871.9 27.6229 37.8285
8874.55 19.9491 -14.9728
8877.2 28.7584 -28.5377
8879.85 24.3027 -6.7101
8882.5 26.5925 104.184
8885.15 23.3461 187.899
8887.79 15.7844 179.79
8890.44 22.2111 82.7262
8893.09 18.2269 -79.1643
8895.74 22.4975 -126.059
8898.38 24.488 -103.646
8901.03 26.7476 -30.1856
8903.68 28.6416 29.3051
8906.32 24.6925 43.091
8908.97 21.4747 -2.5258
8911.62 22.037 -30.4577
8914.26 21.5584 -1.50252
8916.91 24.3201 127.169
8919.55 29.4875 207.986
8922.2 17.8905 189.642
8924.84 21.6996 54.8739
8927.48 15.3221 -103.214
8930.13 14.4774 -154.524
8932.77 17.8283 -141.717
8935.41 23.0429 -108.231
8938.05 17.9577 -67.9931
8940.7 19.4171 4.68139
8943.34 22.2519 48.9255
8945.98 20.8234 60.9124
8948.62 17.0837 29.7671
8951.26 13.2065 -5.1235
8953.9 22.6265 34.0018
8956.54 16.5647 112.204
8959.18 23.7362 144.193
8961.82 17.4627 96.4324
8964.46 15.8621 -16.3654
8967.1 15.7131 -88.4451
8969.74 16.7481 -103.595
8972.38 15.9541 -87.2639
8975.02 15.8981 -67.4854
8977.65 18.2159 -48.9357
8980.29 15.4221 -29.0654
8982.93 17.6231 -3.62111
8985.57 19.1394 31.8941
8988.2 18.6998 54.3357
8990.84 13.7118 55.8135
8993.47 12.8817 33.3234
8996.11 17.5911 19.1489
8998.75 16.1594 48.8405
9001.38 15.5622 81.4917
9004.02 17.026 80.5937
9006.65 9.83136 33.6507
9009.28 18.8556 -32.0272
9011.92 16.4034 -60.5318
9014.55 19.4388 -57.5127
9017.18 15.0439 -47.548
9019.82 13.6094 -35.0083
9022.45 15.9717 -25.5062
9025.08 20.0378 -6.9911
9027.71 17.4265 1.12744
9030.34 20.475 9.2153
9032.98 17.6664 17.2851
9035.61 19.0491 35.1601
9038.24 21.1424 37.8691
9040.87 17.6079 39.4493
9043.5 16.6181 28.662
9046.13 15.9299 31.5493
9048.76 19.7824 47.0105
9051.38 15.5212 55.337
9054.01 16.4037 37.1272
9056.64 15.3669 5.69458
9059.27 17.6354 -18.1025
9061.9 15.7955 -21.3981
