wavelength spectrum_sum 3smoothed_sum spectrum_optimal 3smoothed_optimal
3504.62 115.129 99.2356 123.739 102.418
3507.54 182.578 170.792 183.515 172.333
3510.47 214.671 219.217 209.745 213.584
3513.39 260.403 255.571 247.492 237.531
3516.31 291.639 272.321 255.356 247.865
3519.23 264.922 288.092 240.747 265.738
3522.15 307.716 285.804 301.112 262.777
3525.07 284.773 270.718 246.472 246.265
3527.99 219.664 239.474 191.212 204.223
3530.91 213.983 213.47 174.986 187.965
3533.83 206.761 205.405 197.696 188.655
3536.75 195.471 221.342 193.284 203.008
3539.67 261.794 244.231 218.045 221.392
3542.59 275.428 257.382 252.847 232.846
3545.51 234.923 255.713 227.645 237.21
3548.43 256.789 248.069 231.139 239.069
3551.35 252.497 252.914 258.425 246.129
3554.27 249.456 268.147 248.825 269.489
3557.19 302.489 273.483 301.217 272.643
3560.11 268.503 274.51 267.887 266.557
3563.03 252.538 264.448 230.568 256.004
3565.95 272.302 256.592 269.556 247.592
3568.87 244.935 267.491 242.65 257.374
3571.79 285.235 267.112 259.915 259.101
3574.71 271.166 280.916 274.737 267.608
3577.63 286.347 284.88 268.173 271.863
3580.55 297.128 299.593 272.678 272.78
3583.47 315.304 306.953 277.489 270.475
3586.39 308.428 323.48 261.257 278.887
3589.31 346.709 307.003 297.915 268.706
3592.23 265.871 306.702 246.946 274.376
3595.15 307.526 292.624 278.265 267.843
3598.07 304.476 316.07 278.316 286.218
3600.99 336.207 312.329 302.072 290.471
3603.91 296.304 302.125 291.024 286.434
3606.83 273.865 306.768 266.205 295.943
3609.75 350.134 314.895 330.598 299.032
3612.67 320.687 354.842 300.291 331.005
3615.59 393.705 335.907 362.126 309.51
3618.51 293.329 349.959 266.114 320.169
3621.43 362.843 315.158 332.268 296.136
3624.34 289.303 307.982 290.027 294.468
3627.26 271.799 303.048 261.109 285.464
3630.18 348.041 315.43 305.256 288.844
3633.1 326.448 347.05 300.167 319.676
3636.02 366.661 338.518 353.606 316.12
3638.94 322.444 336.608 294.587 317.818
3641.86 320.72 319.105 305.261 298.03
3644.78 314.15 307.871 294.242 291.459
3647.7 288.744 310.619 274.875 286.189
3650.62 328.965 301.872 289.451 276.259
3653.54 287.907 287.049 264.45 266.057
3656.46 244.277 274.134 244.27 265.589
3659.38 290.217 274.782 288.047 270.577
3662.29 289.852 283.138 279.415 277.444
3665.21 269.343 273.371 264.869 266.643
3668.13 260.918 258.233 255.646 257.686
3671.05 244.438 266.862 252.543 259.219
3673.97 295.23 284.753 269.468 270.258
3676.89 314.59 277.514 288.764 251.624
3679.81 222.723 275.017 196.639 248.697
3682.73 287.737 248.235 260.689 221.123
3685.64 234.247 259.533 206.042 227.495
3688.56 256.616 238.582 215.754 206.868
3691.48 224.884 251.338 198.806 216.583
3694.4 272.513 248.137 235.188 224.904
3697.32 247.013 266.376 240.718 238.505
3700.24 279.603 251.78 239.608 240.505
3703.16 228.724 256.112 241.188 235.936
3706.08 260.008 228.23 227.012 220.034
3708.99 195.958 229.252 191.903 210.853
3711.91 231.789 221.815 213.644 206.229
3714.83 237.699 222.663 213.14 202.092
3717.75 198.502 199.072 179.492 178.543
3720.67 161.014 175.484 142.997 166.662
3723.59 166.934 185.06 177.497 177.424
3726.5 227.233 194.626 211.778 185.748
3729.42 189.71 210.732 167.968 192.999
3732.34 215.254 202.143 199.25 180.948
3735.26 201.466 197.206 175.626 186.014
3738.18 174.899 196.284 183.165 177.637
3741.09 212.487 191.208 174.12 173.506
3744.01 186.237 197.521 163.232 182.002
3746.93 193.838 179.615 208.654 190.219
3749.85 158.77 173.903 198.772 184.459
3752.77 169.1 172.732 145.951 173.47
3755.68 190.324 176.466 175.687 154.999
3758.6 169.975 197.384 143.359 176.971
3761.52 231.854 204.688 211.868 178.481
3764.44 212.236 214.919 180.217 195.501
3767.36 200.667 203.928 194.419 176.952
3770.27 198.881 192.717 156.221 178.994
3773.19 178.602 198.699 186.343 191.881
3776.11 218.613 184.911 233.077 200.56
3779.03 157.519 199.649 182.26 219.72
3781.94 222.815 194.652 243.824 216.047
3784.86 203.621 208.733 222.057 225.723
3787.78 199.763 210.51 211.289 214.514
3790.7 228.144 209.499 210.194 216.383
3793.61 200.588 211.177 227.666 215.561
3796.53 204.797 204.015 208.822 223.616
3799.45 206.659 213.099 234.36 218.221
3802.37 227.841 228.055 211.482 232.481
3805.28 249.665 241.075 251.601 240.892
3808.2 245.719 236.602 259.593 242.083
3811.12 214.423 244.315 215.056 246.744
3814.03 272.802 259.171 265.583 258.333
3816.95 290.29 289.42 294.36 284.655
3819.87 305.17 295.598 294.022 285.658
3822.79 291.335 290.558 268.591 286.373
3825.7 275.168 301.868 296.505 292.355
3828.62 339.099 310.411 311.971 309.267
3831.54 316.964 321.21 319.326 307.751
3834.45 307.565 319.805 291.955 302.062
3837.37 334.886 323.373 294.905 300.973
3840.29 327.668 326.465 316.06 306.754
3843.2 316.842 322.782 309.296 310.485
3846.12 323.838 324.041 306.099 305.537
3849.04 331.444 321.782 301.218 298.253
3851.95 310.064 326.652 287.442 310.922
3854.87 338.449 332.39 344.107 321.702
3857.79 348.658 338.82 333.559 335.104
3860.7 329.354 353.955 327.645 342.51
3863.62 383.852 358.925 366.327 353.357
3866.54 363.568 361.35 366.099 366.085
3869.45 336.63 359.337 365.829 377.88
3872.37 377.812 357.151 401.711 364.633
3875.29 357.011 362.528 326.359 374.376
3878.2 352.759 389.799 395.057 390.961
3881.12 459.628 411.797 451.465 418.878
3884.04 423.005 456.67 410.111 439.657
3886.95 487.377 473.46 457.395 460.597
3889.87 510 504.768 514.284 490.484
3892.78 516.929 512.701 499.773 499.425
3895.7 511.174 505.154 484.219 495.887
3898.62 487.359 515.258 503.669 508.574
3901.53 547.241 535.876 537.833 534.433
3904.45 573.027 561.32 561.798 548.62
3907.36 563.691 583.174 546.227 574.875
3910.28 612.804 606.274 616.599 603.13
3913.2 642.326 623.626 646.563 643.687
3916.11 615.749 635.549 667.899 663.016
3919.03 648.572 659.796 674.585 690.716
3921.94 715.066 692.163 729.664 708.967
3924.86 712.851 709.575 722.651 713.992
3927.78 700.809 712.236 689.66 695.865
3930.69 723.047 729.804 675.284 700.989
3933.61 765.555 740.454 738.023 713.772
3936.52 732.76 784.895 728.011 759.047
3939.44 856.37 786.803 811.108 785.768
3942.35 771.279 818.666 818.186 823.55
3945.27 828.348 833.234 841.356 852.927
3948.18 900.075 871.844 899.24 879.273
3951.1 887.107 900.801 897.224 920.475
3954.02 915.221 905.58 964.961 925.794
3956.93 914.412 927.406 915.196 942.233
3959.85 952.583 937.141 946.542 931.715
3962.76 944.428 948.551 933.407 941.921
3965.68 948.643 973.082 945.815 948.505
3968.59 1026.17 994.912 966.292 973.559
3971.51 1009.92 1011.52 1008.57 988.495
3974.42 998.473 1006.47 990.624 993.767
3977.34 1011 1005.65 982.106 997.991
3980.25 1007.48 1031.21 1021.24 1021.27
3983.17 1075.15 1041.34 1060.45 1054.41
3986.08 1041.39 1046.49 1081.53 1049.98
3989 1022.94 1049.58 1007.94 1060.78
3991.91 1084.41 1061.35 1092.88 1077.17
3994.83 1076.7 1086.44 1130.69 1102.23
3997.74 1098.21 1105.62 1083.11 1108.8
4000.66 1141.95 1110.1 1112.6 1097.46
4003.57 1090.16 1123.16 1096.67 1110.07
4006.48 1137.37 1112.63 1120.95 1114.64
4009.4 1110.37 1130.83 1126.29 1133.68
4012.31 1144.74 1157.29 1153.8 1150.86
4015.23 1216.77 1134.96 1172.49 1129.26
4018.14 1043.38 1100.31 1061.49 1107
4021.06 1040.79 1057 1087.02 1067.05
4023.97 1086.82 1080.81 1052.63 1073.34
4026.89 1114.83 1079.91 1080.36 1063.66
4029.8 1038.08 1082.6 1057.98 1076.56
4032.71 1094.9 1058.21 1091.35 1061.17
4035.63 1041.64 1064.83 1034.18 1061.76
4038.54 1057.95 1034.33 1059.76 1041.63
4041.46 1003.39 1035.56 1030.96 1048.11
4044.37 1045.33 1034.02 1053.61 1039.42
4047.28 1053.35 1045.69 1033.68 1035.71
4050.2 1038.37 1033.38 1019.84 1035.34
4053.11 1008.42 994.952 1052.5 1020.41
4056.03 938.069 992.587 988.876 1021.35
4058.94 1031.28 1005.13 1022.66 1015.8
4061.85 1046.03 1008.47 1035.86 1003.11
4064.77 948.09 1008.39 950.811 1007.51
4067.68 1031.04 1001.21 1035.85 998.168
4070.6 1024.5 1035.34 1007.84 1034.1
4073.51 1050.47 1062.9 1058.6 1061.05
4076.42 1113.74 1115.96 1116.71 1103.24
4079.34 1183.68 1117.75 1134.42 1112.9
4082.25 1055.84 1097.22 1087.58 1100.16
4085.16 1052.14 1057.77 1078.48 1079.45
4088.08 1065.32 1059.5 1072.28 1072.64
4090.99 1061.02 1065.96 1067.17 1095.19
4093.9 1071.54 1075.6 1146.13 1091.11
4096.82 1094.23 1114.84 1060.03 1130.65
4099.73 1178.75 1155.71 1185.81 1142.49
4102.64 1194.15 1202.58 1181.63 1212.5
4105.56 1234.85 1224.61 1270.08 1232.76
4108.47 1244.82 1234.06 1246.57 1265.37
4111.38 1222.5 1256.12 1279.46 1295.24
4114.3 1301.03 1272.42 1359.69 1319.13
4117.21 1293.75 1326.91 1318.25 1355.24
4120.12 1385.96 1322.41 1387.77 1355.63
4123.03 1287.51 1340.6 1360.88 1373.75
4125.95 1348.32 1336.79 1372.59 1381.03
4128.86 1374.54 1372.98 1409.62 1398.05
4131.77 1396.08 1393.29 1411.93 1411.58
4134.69 1409.24 1416.35 1413.2 1439.62
4137.6 1443.72 1412.36 1493.72 1442.6
4140.51 1384.14 1436.78 1420.87 1482.92
4143.42 1482.49 1462.53 1534.17 1498.18
4146.34 1520.95 1509.56 1539.5 1544.99
4149.25 1525.23 1524.91 1561.3 1543.56
4152.16 1528.56 1521.39 1529.88 1537.08
4155.07 1510.39 1520.29 1520.06 1524.63
4157.99 1521.93 1559.24 1523.94 1562.17
4160.9 1645.39 1598.97 1642.52 1609.56
4163.81 1629.59 1640.96 1662.24 1664.46
4166.72 1647.92 1623.06 1688.63 1649.52
4169.63 1591.66 1585.37 1597.68 1614.5
4172.55 1516.54 1571.06 1557.19 1598.31
4175.46 1604.97 1590.74 1640.07 1621.23
4178.37 1650.73 1594.02 1666.43 1622.48
4181.28 1526.37 1597.26 1560.94 1616.99
4184.2 1614.67 1591.45 1623.6 1616.61
4187.11 1633.3 1625.67 1665.3 1648.73
4190.02 1629.05 1611.85 1657.31 1650.49
4192.93 1573.19 1588.39 1628.87 1615.74
4195.84 1562.93 1572.94 1561.03 1572.2
4198.75 1582.71 1572.47 1526.7 1550.21
4201.67 1571.77 1547.91 1562.91 1530.69
4204.58 1489.25 1526.14 1502.46 1539.81
4207.49 1517.39 1527.75 1554.05 1537.67
4210.4 1576.61 1533.44 1556.49 1579.66
4213.31 1506.32 1524.8 1628.43 1572.76
4216.22 1491.49 1510.69 1533.37 1562.33
4219.13 1534.28 1516.28 1525.18 1545.84
4222.05 1523.08 1507.82 1578.99 1554.58
4224.96 1466.11 1511.69 1559.56 1574.57
4227.87 1545.87 1501.35 1585.15 1552.43
4230.78 1492.08 1533.23 1512.57 1565.4
4233.69 1561.73 1490.73 1598.48 1520.59
4236.6 1418.37 1533.52 1450.72 1564.21
4239.51 1620.46 1505.41 1643.43 1549.58
4242.42 1477.39 1533.32 1554.59 1576.16
4245.34 1502.1 1487.91 1530.45 1528.72
4248.25 1484.24 1489.96 1501.13 1516.74
4251.16 1483.54 1518.62 1518.63 1530.52
4254.07 1588.06 1507.34 1571.81 1534.74
4256.98 1450.42 1535.26 1513.79 1540.41
4259.89 1567.29 1517.59 1535.64 1535.23
4262.8 1535.07 1533.76 1556.26 1541.95
4265.71 1498.91 1504.18 1533.95 1532.05
4268.62 1478.55 1504.85 1505.94 1524.02
4271.53 1537.08 1482.52 1532.17 1514.17
4274.44 1431.93 1461.24 1504.4 1482.74
4277.35 1414.71 1433.43 1411.67 1468.85
4280.26 1453.65 1430.45 1490.49 1472.6
4283.17 1423 1411.45 1515.65 1473.15
4286.08 1357.71 1409.43 1413.31 1475.4
4288.99 1447.57 1425.56 1497.25 1479.95
4291.9 1471.39 1461.95 1529.29 1503.11
4294.81 1466.88 1462.26 1482.8 1495.23
4297.72 1448.51 1462.01 1473.59 1468.33
4300.63 1470.63 1395.06 1448.6 1427.17
4303.54 1266.05 1338.16 1359.32 1381.96
4306.45 1277.8 1274.82 1337.97 1325.74
4309.36 1280.62 1274.17 1279.92 1302.39
4312.27 1264.09 1274.1 1289.27 1291.1
4315.18 1277.6 1245.73 1304.1 1300.7
4318.09 1195.51 1231.55 1308.74 1298.62
4321 1221.53 1234.23 1283.04 1306.2
4323.91 1285.65 1246.48 1326.82 1279.92
4326.82 1232.26 1243.08 1229.92 1272.14
4329.73 1211.34 1214.26 1259.68 1251.41
4332.64 1199.17 1183.03 1264.64 1235.29
4335.55 1138.56 1166.62 1181.56 1202.17
4338.46 1162.12 1114.59 1160.31 1164.7
4341.37 1043.08 1103.26 1152.23 1159.56
4344.28 1104.58 1114.95 1166.15 1173.02
4347.19 1197.18 1106.42 1200.69 1160.7
4350.1 1017.5 1109.73 1115.27 1146.68
4353.01 1114.51 1078.41 1124.09 1119.27
4355.91 1103.23 1121.12 1118.46 1140.46
4358.82 1145.61 1129.71 1178.82 1149.14
4361.73 1140.28 1114.95 1150.14 1148.39
4364.64 1058.95 1052.21 1116.22 1111.7
4367.55 957.394 1015.99 1068.74 1089.61
4370.46 1031.63 995.518 1083.89 1075.85
4373.37 997.531 1051.73 1074.91 1099.47
4376.28 1126.04 1034 1139.62 1097.58
4379.19 978.441 1030.53 1078.21 1087.68
4382.09 987.099 1024.64 1045.22 1090.13
4385 1108.37 1047.75 1146.97 1078.27
4387.91 1047.79 1042.97 1042.63 1076.88
4390.82 972.736 1022.34 1041.03 1063.11
4393.73 1046.48 1070.29 1105.66 1102.77
4396.64 1191.66 1125.42 1161.63 1141.57
4399.54 1138.13 1160.52 1157.42 1178.01
4402.45 1151.78 1146.81 1214.99 1173.21
4405.36 1150.53 1140.12 1147.22 1166.35
4408.27 1118.04 1101.87 1136.84 1161.08
4411.18 1037.03 1072.87 1199.19 1162.85
4414.08 1063.55 1098.25 1152.52 1200.53
4416.99 1194.18 1130.25 1249.87 1200.53
4419.9 1133.03 1144.14 1199.19 1206.48
4422.81 1105.21 1137.26 1170.36 1197.97
4425.72 1173.55 1197.97 1224.35 1247.77
4428.62 1315.14 1238.22 1348.58 1296.52
4431.53 1225.98 1287.63 1316.63 1360.16
4434.44 1321.78 1284.48 1415.26 1362.35
4437.35 1305.67 1332.21 1355.17 1396.39
4440.25 1369.17 1345.3 1418.75 1416.88
4443.16 1361.05 1363.94 1476.71 1437.75
4446.07 1361.6 1355.06 1417.78 1436.58
4448.98 1342.52 1373.28 1415.25 1434.19
4451.88 1415.73 1377.97 1469.54 1455.2
4454.79 1375.66 1405.3 1480.8 1483.16
4457.7 1424.52 1360.41 1499.14 1471.66
4460.61 1281.04 1356.56 1435.04 1455.55
4463.51 1364.11 1361.04 1432.46 1460.03
4466.42 1437.97 1415.43 1512.58 1474.01
4469.33 1444.2 1468.66 1477 1517.5
4472.23 1523.81 1473.1 1562.93 1510.13
4475.14 1451.3 1466.24 1490.45 1514.26
4478.05 1423.61 1408.33 1489.39 1458.93
4480.95 1350.08 1387.34 1396.94 1437.32
4483.86 1388.33 1384.77 1425.64 1428.99
4486.77 1415.9 1378.77 1464.38 1453.53
4489.67 1332.09 1403.78 1470.57 1484.9
4492.58 1463.36 1384.31 1519.74 1475.66
4495.49 1357.48 1403.95 1436.67 1461.02
4498.39 1391 1382.51 1426.64 1429.11
4501.3 1399.03 1347.49 1424 1419.34
4504.21 1252.42 1348.26 1407.38 1428.63
4507.11 1393.32 1345.94 1454.5 1427.31
4510.02 1392.07 1356.3 1420.05 1421.82
4512.92 1283.53 1330.36 1390.91 1415.61
4515.83 1315.48 1327.79 1435.88 1450.45
4518.74 1384.36 1344.17 1524.55 1447
4521.64 1332.67 1364.2 1380.56 1449.81
4524.55 1375.57 1386.24 1444.31 1446.49
4527.45 1450.47 1426.01 1514.61 1506.12
4530.36 1452 1453.06 1559.43 1543.57
4533.27 1456.71 1473.29 1556.67 1559.08
4536.17 1511.16 1489.03 1561.12 1567.48
4539.08 1499.22 1493 1584.63 1561.3
4541.98 1468.62 1476.65 1538.15 1589.89
4544.89 1462.09 1496.08 1646.88 1608.67
4547.79 1557.52 1523.81 1640.97 1641.33
4550.7 1551.82 1572.92 1636.15 1657.11
4553.6 1609.43 1575.83 1694.21 1672.09
4556.51 1566.24 1584.22 1685.9 1677.21
4559.42 1576.98 1592.18 1651.53 1679.53
4562.32 1633.31 1609.82 1701.17 1706.29
4565.23 1619.18 1648.42 1766.16 1734.45
4568.13 1692.76 1644.92 1736.01 1738.88
4571.04 1622.83 1667.71 1714.45 1764.24
4573.94 1687.53 1631.42 1842.24 1767.65
4576.85 1583.91 1667.47 1746.26 1800.34
4579.75 1730.96 1671.03 1812.53 1782.72
4582.66 1698.22 1704.8 1789.39 1804.78
4585.56 1685.2 1718.3 1812.42 1813.38
4588.46 1771.47 1726.49 1838.33 1836.84
4591.37 1722.81 1758.92 1859.76 1861.92
4594.27 1782.47 1770.93 1887.68 1877.81
4597.18 1807.49 1808.86 1885.99 1898.72
4600.08 1836.63 1825.17 1922.5 1926.74
4602.99 1831.38 1845.35 1971.74 1946.45
4605.89 1868.05 1854.4 1945.12 1939.18
4608.8 1863.78 1857.34 1900.68 1921.17
4611.7 1840.18 1796.6 1917.71 1892.59
4614.6 1685.84 1781.88 1859.38 1892.85
4617.51 1819.62 1798.93 1901.44 1889.51
4620.41 1891.34 1830.32 1907.72 1920.55
4623.32 1780 1857.1 1952.5 1956.6
4626.22 1899.96 1833.6 2009.58 1963.09
4629.12 1820.82 1873.33 1927.18 1976.98
4632.03 1899.22 1852.32 1994.18 1954.89
4634.93 1836.91 1847.64 1943.31 1963.54
4637.83 1806.8 1811 1953.11 1939.94
4640.74 1789.28 1819.47 1923.39 1965.85
4643.64 1862.32 1799.6 2021.04 1957.56
4646.54 1747.21 1782.65 1928.25 1970.42
4649.45 1738.43 1759.4 1961.97 1921.12
4652.35 1792.55 1742.32 1873.15 1888.95
4655.25 1695.98 1777.45 1831.74 1874.76
4658.16 1843.82 1801.86 1919.38 1908.54
4661.06 1865.76 1832.93 1974.48 1956.96
4663.96 1789.19 1842.77 1977.03 1981.55
4666.87 1873.35 1842.01 1993.15 1962.97
4669.77 1863.48 1861.09 1918.74 1961.08
4672.67 1846.44 1862.98 1971.34 1941.78
4675.58 1879 1881.17 1935.27 1993.84
4678.48 1918.05 1900.51 2074.89 2012.54
4681.38 1904.49 1887.21 2027.45 2004.61
4684.28 1839.08 1868.85 1911.5 1964.86
4687.19 1862.97 1822.78 1955.63 1946.56
4690.09 1766.29 1855.71 1972.56 2001.52
4692.99 1937.87 1856.26 2076.37 1998.76
4695.89 1864.6 1876.09 1947.35 2010.88
4698.8 1825.78 1809.05 2008.94 1952.63
4701.7 1736.77 1812.75 1901.61 1965.47
4704.6 1875.68 1790.66 1985.86 1920.64
4707.5 1759.54 1819.41 1874.46 1910.98
4710.4 1823.01 1798.95 1872.62 1869.57
4713.31 1814.31 1751.15 1861.62 1852.37
4716.21 1616.14 1753.73 1822.88 1863.19
4719.11 1830.73 1654.91 1905.07 1830.65
4722.01 1517.85 1648.72 1764.01 1807.32
4724.91 1597.58 1609.66 1752.87 1769.11
4727.82 1713.56 1650.79 1790.45 1767
4730.72 1641.22 1647.5 1757.67 1728.61
4733.62 1587.72 1618.41 1637.72 1708.56
4736.52 1626.3 1584.92 1730.3 1688.57
4739.42 1540.73 1588.06 1697.69 1707.61
4742.32 1597.14 1595.4 1694.85 1699.89
4745.22 1648.32 1632.81 1707.13 1721.76
4748.13 1652.96 1629.66 1763.32 1702.71
4751.03 1587.71 1613.91 1637.68 1687.85
4753.93 1601.07 1573.94 1662.56 1644.75
4756.83 1533.03 1555.85 1634.01 1644.48
4759.73 1533.44 1550.47 1636.86 1661.77
4762.63 1584.95 1558.71 1714.45 1655.71
4765.53 1557.75 1583.33 1615.83 1673.74
4768.43 1607.28 1576.64 1690.94 1657.97
4771.33 1564.9 1594.39 1667.13 1685.89
4774.23 1610.99 1603.64 1699.61 1681.96
4777.13 1635.02 1555.79 1679.14 1662.08
4780.04 1421.35 1533.09 1607.5 1646.76
4782.94 1542.9 1447.99 1653.65 1614.54
4785.84 1379.71 1494.7 1582.46 1643.7
4788.74 1561.5 1509.41 1695 1654.45
4791.64 1587.01 1562.28 1685.9 1661.54
4794.54 1538.33 1545.45 1603.73 1638.5
4797.44 1511 1541.22 1625.88 1622.76
4800.34 1574.32 1520.16 1638.66 1603.37
4803.24 1475.17 1509.65 1545.58 1611.65
4806.14 1479.44 1492.54 1650.7 1596.7
4809.04 1523.01 1500.29 1593.83 1614.03
4811.94 1498.43 1514.62 1597.55 1613.65
4814.84 1522.42 1506.3 1649.56 1608.91
4817.74 1498.05 1501.44 1579.62 1599.72
4820.64 1483.85 1517.9 1569.98 1586.37
4823.54 1571.81 1519.39 1609.52 1605.43
4826.43 1502.5 1488.72 1636.8 1570.98
4829.33 1391.84 1435.03 1466.62 1539.92
4832.23 1410.76 1400.9 1516.32 1506.06
4835.13 1400.09 1379.56 1535.23 1526.59
4838.03 1327.83 1386.41 1528.23 1520.1
4840.93 1431.3 1465.4 1496.84 1561.69
4843.83 1637.08 1461.68 1660.02 1553.8
4846.73 1316.67 1495.19 1504.54 1584.97
4849.63 1531.82 1442.67 1590.35 1556.63
4852.53 1479.51 1456.51 1575.01 1555.21
4855.43 1358.19 1403.91 1500.28 1544.95
4858.32 1374.02 1342.12 1559.57 1528.54
4861.22 1294.15 1361.6 1525.78 1543.04
4864.12 1416.63 1383.1 1543.77 1553.36
4867.02 1438.5 1441.06 1590.52 1566.36
4869.92 1468.06 1452.4 1564.78 1551.4
4872.82 1450.65 1457.97 1498.91 1534.79
4875.72 1455.19 1439.06 1540.68 1550.92
4878.61 1411.34 1431.66 1613.16 1591.77
4881.51 1428.43 1381.39 1621.47 1572.76
4884.41 1304.4 1340.08 1483.65 1510.01
4887.31 1287.4 1347.74 1424.92 1486.05
4890.21 1451.42 1406.17 1549.59 1527.64
4893.1 1479.7 1467.1 1608.41 1566.14
4896 1470.2 1403.44 1540.42 1545.76
4898.9 1260.41 1368.11 1488.45 1504.86
4901.8 1373.72 1324.48 1485.71 1470.36
4904.69 1339.3 1328.56 1436.93 1451.91
4907.59 1272.67 1313.62 1433.09 1434.72
4910.49 1328.9 1271.36 1434.13 1395.27
4913.39 1212.51 1284.17 1318.6 1390.11
4916.28 1311.11 1294.22 1417.61 1383.6
4919.18 1359.05 1290.3 1414.6 1386.19
4922.08 1200.74 1242.52 1326.37 1335.88
4924.98 1167.78 1155.18 1266.67 1258.79
4927.87 1097.02 1169.41 1183.34 1241.91
4930.77 1243.43 1131.66 1275.71 1212.89
4933.67 1054.51 1204.29 1179.61 1261.82
4936.56 1314.94 1179.44 1330.14 1239.23
4939.46 1168.86 1185.9 1207.95 1236.02
4942.36 1073.88 1119.1 1169.97 1171.89
4945.25 1114.56 1095.98 1137.74 1136.97
4948.15 1099.51 1134.23 1103.2 1150.55
4951.05 1188.63 1129.1 1210.71 1161.91
4953.94 1099.15 1105.92 1171.82 1157.94
4956.84 1029.99 1079.56 1091.3 1130.03
4959.74 1109.55 1084.23 1126.99 1122.64
4962.63 1113.15 1125.96 1149.63 1147.31
4965.53 1155.18 1134.4 1165.31 1170.36
4968.42 1134.85 1162.24 1196.14 1191.6
4971.32 1196.67 1205.16 1213.36 1233.78
4974.22 1283.94 1195.81 1291.84 1243.15
4977.11 1106.81 1154.43 1224.24 1230.51
4980.01 1072.55 1119.24 1175.46 1213.12
4982.9 1178.36 1156.46 1239.65 1216.18
4985.8 1218.47 1217.34 1233.43 1249.74
4988.69 1255.18 1212.97 1276.14 1241.86
4991.59 1165.26 1204.26 1216.01 1244.05
4994.49 1192.35 1189.74 1239.99 1229.12
4997.38 1211.62 1204.42 1231.36 1239.07
5000.28 1209.3 1211.46 1245.86 1238.46
5003.17 1213.45 1234.83 1238.16 1279.84
5006.07 1281.73 1246.42 1355.51 1288.42
5008.96 1244.07 1283.96 1271.59 1328.87
5011.86 1326.08 1300.77 1359.52 1336.55
5014.75 1332.17 1342.58 1378.56 1377.99
5017.65 1369.48 1349.3 1395.89 1390.22
5020.54 1346.25 1340.41 1396.2 1381.39
5023.44 1305.49 1347.32 1352.07 1396.23
5026.33 1390.24 1351.71 1440.4 1387.37
5029.22 1359.4 1379.25 1369.65 1408.71
5032.12 1388.13 1364.73 1416.09 1441.08
5035.01 1346.66 1353.98 1537.5 1469.54
5037.91 1327.16 1367.52 1455.04 1492.23
5040.8 1428.76 1396.51 1484.16 1477.07
5043.7 1433.62 1438.65 1492.03 1508.81
5046.59 1453.57 1398.63 1550.24 1510.05
5049.48 1308.69 1420.07 1487.88 1546
5052.38 1497.94 1375.29 1599.88 1499.11
5055.27 1319.24 1436.74 1409.58 1523.74
5058.16 1493.05 1394.59 1561.76 1467.47
5061.06 1371.47 1451.46 1431.07 1534.55
5063.95 1489.85 1455.25 1610.81 1554.59
5066.85 1504.42 1483.27 1621.88 1591.59
5069.74 1455.53 1433.95 1542.09 1570.08
5072.63 1341.89 1395.63 1546.26 1555.35
5075.53 1389.46 1385.53 1577.69 1549.53
5078.42 1425.24 1442.63 1524.64 1574.82
5081.31 1513.21 1427.54 1622.12 1572.33
5084.21 1344.18 1393.03 1570.22 1583.46
5087.1 1321.71 1336.8 1558.04 1567.2
5089.99 1344.5 1407.23 1573.34 1605.78
5092.88 1555.47 1408.93 1685.97 1598.03
5095.78 1326.81 1432.31 1534.79 1612.64
5098.67 1414.65 1406.98 1617.18 1595.17
5101.56 1479.49 1483.29 1633.55 1633.8
5104.45 1555.72 1530.42 1650.66 1632.55
5107.35 1556.05 1535.61 1613.43 1642.35
5110.24 1495.06 1502.13 1662.94 1618.05
5113.13 1455.28 1448.14 1577.78 1639.8
5116.02 1394.08 1469.17 1678.67 1658.41
5118.92 1558.16 1501.69 1718.77 1694
5121.81 1552.82 1569.63 1684.56 1729.83
5124.7 1597.92 1586.88 1786.15 1727.65
5127.59 1609.91 1579.4 1712.26 1738.42
5130.48 1530.38 1547.76 1716.84 1693.54
5133.38 1502.98 1535.42 1651.53 1714.79
5136.27 1572.89 1504.88 1775.99 1737.79
5139.16 1438.77 1485.92 1785.84 1773.99
5142.05 1446.09 1459.48 1760.14 1733.09
5144.94 1493.57 1485.64 1653.28 1724.56
5147.83 1517.26 1537.86 1760.27 1717.73
5150.72 1602.75 1581.35 1739.62 1774.84
5153.62 1624.05 1629.85 1824.63 1780.81
5156.51 1662.74 1688.72 1778.19 1859.51
5159.4 1779.37 1676.03 1975.72 1872.55
5162.29 1585.98 1685.55 1863.74 1899.74
5165.18 1691.29 1630.42 1859.74 1825.97
5168.07 1613.99 1655.56 1754.43 1829.12
5170.96 1661.41 1608.66 1873.18 1833.42
5173.85 1550.57 1604.02 1872.66 1858.72
5176.74 1600.08 1598.72 1830.32 1873.65
5179.63 1645.52 1631.73 1917.96 1850.68
5182.52 1649.59 1667.09 1803.74 1870.95
5185.41 1706.15 1684.96 1891.15 1880.51
5188.3 1699.14 1731.39 1946.62 1935.71
5191.19 1788.89 1729.74 1969.37 1937.58
5194.08 1701.2 1740 1896.75 1926.07
5196.97 1729.9 1712.46 1912.1 1909.78
5199.86 1706.27 1732.9 1920.49 1939.24
5202.75 1762.54 1739.03 1985.14 1951.18
5205.64 1748.29 1697.49 1947.9 1947.15
5208.53 1581.65 1644.35 1908.4 1910.67
5211.42 1603.12 1648.22 1875.72 1904.96
5214.31 1759.87 1706.18 1930.77 1915.68
5217.2 1755.55 1725.62 1940.55 1903.94
5220.09 1661.43 1686.73 1840.49 1877.82
5222.98 1643.23 1682.24 1852.43 1870.82
5225.87 1742.07 1645.89 1919.54 1871.68
5228.76 1552.38 1676.84 1843.06 1881.6
5231.65 1736.08 1673.04 1882.19 1873.54
5234.54 1730.66 1736.15 1895.36 1892.4
5237.42 1741.71 1726.42 1899.64 1901.43
5240.31 1706.88 1673.98 1909.3 1874.04
5243.2 1573.35 1628.69 1813.18 1841.42
5246.09 1605.82 1544.09 1801.77 1805.4
5248.98 1453.11 1504.75 1801.23 1793.72
5251.87 1455.32 1534.72 1778.16 1819.22
5254.76 1695.73 1624.39 1878.26 1841.11
5257.64 1722.1 1694.01 1866.91 1858.62
5260.53 1664.21 1705.98 1830.69 1879.76
5263.42 1731.62 1719.45 1941.69 1894.11
5266.31 1762.51 1715.25 1909.96 1882.64
5269.2 1651.63 1698.48 1796.28 1874.71
5272.08 1681.31 1593.16 1917.89 1821.55
5274.97 1446.54 1575.64 1750.48 1847.91
5277.86 1599.08 1585.26 1875.37 1839.08
5280.75 1710.16 1630.83 1891.4 1862.64
5283.63 1583.25 1665.05 1821.15 1852.01
5286.52 1701.73 1688.65 1843.5 1844.35
5289.41 1780.98 1705.03 1868.41 1838.13
5292.3 1632.38 1644.78 1802.48 1831.35
5295.18 1520.98 1623.33 1823.17 1845.37
5298.07 1716.62 1632.99 1910.47 1859.23
5300.96 1661.38 1643.05 1844.05 1850.88
5303.84 1551.16 1559.4 1798.11 1789.22
5306.73 1465.65 1506.5 1725.51 1783.64
5309.62 1502.67 1533.65 1827.31 1782.06
5312.5 1632.62 1548.96 1793.37 1776.1
5315.39 1511.58 1551.63 1707.62 1745.09
5318.28 1510.7 1474.49 1734.27 1703.58
5321.16 1401.19 1424.36 1668.87 1654.93
5324.05 1361.19 1392.07 1561.65 1589.75
5326.94 1413.84 1384.27 1538.72 1547.51
5329.82 1377.79 1406.44 1542.16 1552.15
5332.71 1427.69 1369.68 1575.57 1551.49
5335.59 1303.57 1323.78 1536.73 1522.89
5338.48 1240.09 1282.88 1456.36 1482.58
5341.37 1304.98 1249.51 1454.64 1435.27
5344.25 1203.45 1259.14 1394.81 1419.33
5347.14 1268.99 1260.73 1408.54 1417.37
5350.02 1309.76 1306.15 1448.76 1453.39
5352.91 1339.71 1299.17 1502.85 1450.29
5355.79 1248.05 1294.24 1399.24 1440.02
5358.68 1294.97 1216.81 1417.97 1389.18
5361.56 1107.41 1203.5 1350.32 1353.08
5364.45 1208.12 1123.83 1290.96 1313.88
5367.33 1055.96 1100.43 1300.37 1289.88
5370.22 1037.2 1067.94 1278.32 1317.8
5373.1 1110.67 1102.83 1374.73 1339.27
5375.99 1160.63 1160.84 1364.77 1354.69
5378.87 1211.22 1217.13 1324.59 1361.49
5381.76 1279.55 1266.56 1395.11 1368.8
5384.64 1308.91 1289.05 1386.69 1378.4
5387.53 1278.7 1281.02 1353.39 1357.85
5390.41 1255.46 1281.68 1333.46 1344.56
5393.29 1310.89 1262.67 1346.81 1339.31
5396.18 1221.66 1181.25 1337.65 1310.67
5399.06 1011.18 1177.16 1247.53 1320.03
5401.95 1298.64 1182.87 1374.92 1335.58
5404.83 1238.79 1277.15 1384.29 1407.47
5407.71 1294.01 1218.24 1463.19 1378.89
5410.6 1121.93 1220.49 1289.17 1357.48
5413.48 1245.51 1208.28 1320.08 1299.6
5416.36 1257.38 1261.28 1289.56 1300.17
5419.25 1280.95 1239.72 1290.87 1284.51
5422.13 1180.84 1243.9 1273.11 1303.42
5425.01 1269.91 1266.28 1346.3 1347.81
5427.9 1348.08 1326.68 1424.01 1392.73
5430.78 1362.06 1315.41 1407.87 1373.45
5433.66 1236.1 1285.29 1288.46 1355.89
5436.55 1257.72 1268.79 1371.33 1352.04
5439.43 1312.54 1297.68 1396.33 1381.52
5442.31 1322.79 1346.21 1376.9 1401.34
5445.19 1403.29 1357.3 1430.79 1433.5
5448.08 1345.82 1379.73 1492.79 1454.61
5450.96 1390.08 1359.44 1440.25 1436.02
5453.84 1342.42 1378.57 1375.02 1414.52
5456.72 1403.19 1350.83 1428.3 1390.68
5459.6 1306.86 1397.5 1368.72 1432.34
5462.49 1482.44 1395.52 1500.01 1443.66
5465.37 1397.27 1392.47 1462.26 1461.31
5468.25 1297.72 1347.22 1421.67 1457.08
5471.13 1346.67 1358.08 1487.3 1457.63
5474.01 1429.85 1328.86 1463.92 1449.34
5476.9 1210.05 1355.91 1396.81 1419.73
5479.78 1427.82 1348.43 1398.46 1430.17
5482.66 1407.42 1428.23 1495.24 1467.54
5485.54 1449.45 1406.24 1508.94 1477.24
5488.42 1361.86 1403.27 1427.53 1468.16
5491.3 1398.5 1358.06 1468.01 1401.48
5494.18 1313.82 1397.26 1308.89 1433.45
5497.06 1479.46 1365.43 1523.44 1389.88
5499.94 1303.01 1320.37 1337.3 1382.55
5502.82 1178.65 1200.79 1286.91 1308.33
5505.71 1120.71 1223.26 1300.79 1309.9
5508.59 1370.42 1233.52 1342 1302.08
5511.47 1209.43 1285.65 1263.46 1295.43
5514.35 1277.12 1284.73 1280.84 1314.1
5517.23 1367.63 1328.69 1398.01 1335.39
5520.11 1341.33 1252.74 1327.33 1306.95
5522.99 1049.27 1166.69 1195.5 1264.16
5525.87 1109.48 1128.57 1269.66 1218.87
5528.75 1226.97 1180.59 1191.45 1244.22
5531.63 1205.33 1251.33 1271.55 1259.38
5534.51 1321.69 1296.9 1315.15 1323.62
5537.39 1363.67 1304.56 1384.17 1318.06
5540.26 1228.31 1260.45 1254.86 1270.59
5543.14 1189.38 1217.66 1172.73 1210.43
5546.02 1235.29 1210.58 1203.71 1195.39
5548.9 1207.07 1203 1209.72 1213.09
5551.78 1166.63 1154.13 1225.85 1211.99
5554.66 1088.7 1156.78 1200.39 1217.83
5557.54 1215.02 1157.04 1227.26 1213.24
5560.42 1167.41 1197.12 1212.08 1243
5563.3 1208.93 1183.92 1289.67 1272.05
5566.18 1175.43 1227.48 1314.41 1284.92
5569.05 1298.08 1270.03 1250.69 1264.12
5571.93 1336.56 1351 1227.25 1249.92
5574.81 1418.34 1366.96 1271.8 1215.01
5577.69 1345.98 1341.86 1145.97 1231.95
5580.57 1261.26 1291.91 1278.09 1232.26
5583.44 1268.5 1263.11 1272.72 1286.85
5586.32 1259.59 1287.01 1309.74 1341.51
5589.2 1332.93 1300.55 1442.08 1363.69
5592.08 1309.15 1286.99 1339.25 1377.67
5594.96 1218.89 1283.41 1351.67 1358.26
5597.83 1322.19 1277.98 1383.85 1350.27
5600.71 1292.87 1321.49 1315.3 1418.79
5603.59 1349.43 1363 1557.21 1454.86
5606.47 1446.69 1365.4 1492.05 1484.39
5609.34 1300.09 1395.01 1403.9 1462.39
5612.22 1438.25 1389.15 1491.21 1453.66
5615.1 1429.12 1450.51 1465.86 1511.2
5617.97 1484.15 1458.56 1576.52 1522.35
5620.85 1462.41 1442.58 1524.66 1552.8
5623.73 1381.18 1447.86 1557.22 1552.14
5626.6 1500 1496.62 1574.55 1587.92
5629.48 1608.68 1509.03 1631.98 1571.58
5632.36 1418.4 1533.37 1508.2 1588.05
5635.23 1573.04 1512.73 1623.97 1598.24
5638.11 1546.75 1482.57 1662.55 1611.34
5640.98 1327.93 1448.21 1547.48 1579.31
5643.86 1469.95 1424.32 1527.9 1577.37
5646.74 1475.09 1473.96 1656.74 1568.3
5649.61 1476.84 1506.01 1520.25 1599.29
5652.49 1566.1 1473.55 1620.88 1592.62
5655.36 1377.7 1497.89 1636.73 1601.41
5658.24 1549.86 1478.73 1546.6 1616.96
5661.11 1508.62 1541.77 1667.56 1617.23
5663.99 1566.82 1484.39 1637.53 1643.32
5666.86 1377.73 1455.64 1624.86 1610.82
5669.74 1422.37 1433.33 1570.08 1586.25
5672.61 1499.88 1436.74 1563.79 1561.19
5675.49 1387.97 1472.3 1549.69 1583.45
5678.36 1529.07 1485.51 1636.87 1597.11
5681.24 1539.49 1543.34 1604.78 1621.12
5684.11 1561.45 1573.13 1621.71 1653.98
5686.99 1618.44 1612.36 1735.44 1716.44
5689.86 1657.18 1546.01 1792.17 1703.95
5692.73 1362.41 1530.98 1584.25 1681.97
5695.61 1573.36 1522.02 1669.49 1635.11
5698.48 1630.28 1526.2 1651.6 1635.31
5701.36 1374.94 1512.97 1584.85 1618.91
5704.23 1533.68 1500.89 1620.28 1610.09
5707.1 1594.05 1576.03 1625.13 1644.33
5709.98 1600.36 1609.14 1687.58 1670.78
5712.85 1633 1587.28 1699.65 1678.66
5715.72 1528.47 1601.25 1648.74 1679.9
5718.6 1642.26 1572.86 1691.3 1653.74
5721.47 1547.84 1579.39 1621.19 1650.45
5724.34 1548.07 1559.92 1638.86 1649.43
5727.22 1583.83 1559.08 1688.23 1667.26
5730.09 1545.35 1584.11 1674.69 1685.97
5732.96 1623.15 1521.32 1695 1686.64
5735.83 1395.48 1520.44 1690.21 1655.28
5738.71 1542.69 1477.84 1580.63 1605.9
5741.58 1495.36 1549.39 1546.86 1584.49
5744.45 1610.13 1560.47 1625.99 1596.63
5747.32 1575.94 1583.96 1617.04 1631.71
5750.2 1565.83 1542.42 1652.11 1663.74
5753.07 1485.48 1539.15 1722.07 1672.9
5755.94 1566.14 1496.58 1644.51 1649.23
5758.81 1438.11 1522.86 1581.12 1617.01
5761.68 1564.32 1561.77 1625.4 1648.7
5764.56 1682.87 1625.08 1739.59 1683.61
5767.43 1628.07 1587.03 1685.85 1685.01
5770.3 1450.14 1565.12 1629.6 1665.44
5773.17 1617.14 1504.27 1680.88 1653.23
5776.04 1445.53 1553.08 1649.2 1681.85
5778.91 1596.57 1548.76 1715.47 1690.91
5781.78 1604.17 1602.39 1708.07 1693.34
5784.65 1606.44 1594.39 1656.47 1660.74
5787.52 1572.56 1590.25 1617.67 1634.17
5790.39 1591.75 1514.11 1628.37 1588.3
5793.27 1378.02 1521.71 1518.86 1607.79
5796.14 1595.34 1517.77 1676.13 1613.08
5799.01 1579.93 1566.71 1644.26 1654.57
5801.88 1524.86 1551.38 1643.31 1630.72
5804.75 1549.37 1547.76 1604.59 1623.23
5807.62 1569.04 1522.2 1621.79 1608.35
5810.49 1448.2 1490.27 1598.67 1572.31
5813.36 1453.57 1463.82 1496.46 1549.81
5816.23 1489.7 1406.23 1554.3 1499.85
5819.1 1275.42 1421.55 1448.8 1532.61
5821.96 1499.53 1426.75 1594.74 1531.95
5824.83 1505.3 1495.15 1552.3 1555.94
5827.7 1480.61 1511.41 1520.77 1554.37
5830.57 1548.31 1496.36 1590.03 1525.89
5833.44 1460.15 1492.54 1466.88 1506.16
5836.31 1469.15 1435.5 1461.56 1473.32
5839.18 1377.18 1437.29 1491.51 1469.22
5842.05 1465.53 1346.74 1454.58 1442.46
5844.92 1197.5 1339.2 1381.28 1446.54
5847.78 1354.56 1340.08 1503.74 1457.7
5850.65 1468.17 1394.2 1488.08 1502.45
5853.52 1359.87 1386.72 1515.53 1448.87
5856.39 1332.11 1352.54 1342.99 1409.66
5859.26 1365.63 1357.56 1370.45 1365.4
5862.12 1374.95 1384.34 1382.75 1401.88
5864.99 1412.44 1329.61 1452.45 1425.08
5867.86 1201.44 1332.93 1440.05 1434.71
5870.73 1384.89 1351.93 1411.64 1464.08
5873.6 1469.44 1413.28 1540.56 1519.8
5876.46 1385.5 1425.91 1607.19 1552.27
5879.33 1422.81 1474.17 1509.07 1585.63
5882.2 1614.21 1428.97 1640.62 1544.02
5885.06 1249.88 1393.44 1482.37 1493.54
5887.93 1316.24 1315.85 1357.64 1425.01
5890.8 1381.43 1338.83 1435.02 1381.89
5893.66 1318.81 1355.74 1352.99 1392.22
5896.53 1366.97 1397.88 1388.64 1419.21
5899.4 1507.85 1423.55 1515.99 1459.27
5902.26 1395.84 1448.88 1473.16 1473.3
5905.13 1442.96 1393.97 1430.73 1445.11
5908 1343.11 1397.63 1431.43 1435.18
5910.86 1406.83 1377.08 1443.38 1421.12
5913.73 1381.3 1430.21 1388.56 1463
5916.59 1502.49 1376.92 1557.06 1451.4
5919.46 1246.96 1432.53 1408.58 1520.7
5922.32 1548.15 1355.48 1596.46 1512.77
5925.19 1271.32 1380.83 1533.28 1505.66
5928.06 1323.03 1324.18 1387.24 1492.94
5930.92 1378.19 1323.51 1558.3 1487.33
5933.79 1269.3 1383.68 1516.46 1514.47
5936.65 1503.55 1415 1468.67 1505.2
5939.52 1472.16 1485.67 1530.46 1495.77
5942.38 1481.29 1491.97 1488.18 1545.31
5945.25 1522.48 1483.96 1617.3 1526.39
5948.11 1448.11 1510.13 1473.71 1565.94
5950.97 1559.8 1493.72 1606.81 1582.61
5953.84 1473.24 1496.62 1667.3 1605.29
5956.7 1456.83 1461.41 1541.76 1579.04
5959.57 1454.15 1455.26 1528.07 1547.39
5962.43 1454.8 1440.19 1572.34 1533.11
5965.29 1411.61 1493.06 1498.91 1573.78
5968.16 1612.75 1491.63 1650.08 1557.61
5971.02 1450.52 1491.44 1523.85 1595.29
5973.89 1411.06 1419.01 1611.94 1525.63
5976.75 1395.46 1427.99 1441.1 1527.91
5979.61 1477.47 1428.94 1530.7 1485.51
5982.47 1413.9 1460.71 1484.75 1514.25
5985.34 1490.76 1461.19 1527.3 1513.88
5988.2 1478.92 1438.15 1529.58 1538.57
5991.06 1344.77 1457.63 1558.83 1541.15
5993.93 1549.19 1487.92 1535.03 1547.76
5996.79 1569.79 1560.73 1549.42 1557.68
5999.65 1563.23 1548.94 1588.6 1556.48
6002.51 1513.8 1539.23 1531.41 1571.22
6005.38 1540.67 1531.01 1593.66 1559.61
6008.24 1538.57 1541.86 1553.77 1587.46
6011.1 1546.34 1515.8 1614.95 1570.08
6013.96 1462.5 1525.33 1541.51 1613.12
6016.82 1567.16 1465.53 1682.89 1588.88
6019.68 1366.94 1486.56 1542.23 1604.21
6022.55 1525.57 1469.46 1587.51 1560.71
6025.41 1515.87 1537.22 1552.4 1584.32
6028.27 1570.22 1540.43 1613.03 1574.51
6031.13 1535.18 1539.69 1558.09 1606.45
6033.99 1513.67 1509.19 1648.22 1573.89
6036.85 1478.71 1474.49 1515.36 1558.49
6039.71 1431.1 1448.73 1511.9 1503.21
6042.57 1436.39 1440.92 1482.38 1518.52
6045.43 1455.27 1419.89 1561.26 1497.79
6048.29 1368.01 1456.51 1449.72 1532.04
6051.15 1546.25 1455.42 1585.13 1528.6
6054.01 1451.99 1447.95 1550.95 1532.62
6056.87 1345.59 1431.73 1461.77 1491.83
6059.73 1497.61 1421.19 1462.78 1455.28
6062.59 1420.35 1489.61 1441.3 1472.56
6065.45 1550.87 1470.66 1513.61 1471.96
6068.31 1440.75 1414.31 1460.99 1469.24
6071.17 1251.31 1385.64 1433.12 1450.58
6074.03 1464.87 1390.61 1457.63 1467.65
6076.89 1455.66 1449.88 1512.19 1448.04
6079.75 1429.1 1437.05 1374.31 1443.7
6082.61 1426.39 1420.74 1444.61 1397.32
6085.47 1406.72 1382.75 1373.04 1382.17
6088.33 1315.13 1288.75 1328.87 1335.65
6091.19 1144.39 1273.23 1305.04 1342.43
6094.04 1360.18 1283 1393.37 1355.18
6096.9 1344.43 1304.59 1367.15 1363.7
6099.76 1209.14 1234.53 1330.59 1304.83
6102.62 1150.01 1177.24 1216.77 1217.49
6105.48 1172.58 1207.51 1105.11 1195.54
6108.34 1299.95 1173.71 1264.75 1173.88
6111.19 1048.61 1148.75 1151.77 1172.4
6114.05 1097.68 1074.05 1100.69 1121.58
6116.91 1075.85 1104.4 1112.3 1101.37
6119.77 1139.67 1126.78 1091.12 1119.53
6122.62 1164.82 1116.02 1155.18 1107.07
6125.48 1043.56 1056.86 1074.91 1055.15
6128.34 962.206 1031.08 935.363 1007.42
6131.19 1087.48 1044.55 1011.99 977.587
6134.05 1083.95 1066.03 985.406 992.599
6136.91 1026.64 1064.95 980.399 969.841
6139.76 1084.24 1020.39 943.717 946.852
6142.62 950.279 995.02 916.439 896.87
6145.48 950.54 922.195 830.453 867.651
6148.33 865.768 948.732 856.062 889.005
6151.19 1029.89 947.021 980.499 908.891
6154.04 945.408 936.061 890.113 921.102
6156.9 832.886 858.051 892.693 875.509
6159.76 795.86 839.532 843.72 860.383
6162.61 889.85 845.693 844.737 814.099
6165.47 851.369 836.846 753.84 799.732
6168.32 769.319 751.972 800.62 745.927
6171.18 635.229 723.833 683.322 755.43
6174.03 766.952 738.976 782.347 734.837
6176.89 814.747 777.561 738.842 740.117
6179.74 750.984 803.4 699.162 722.315
6182.6 844.468 805.912 728.94 713.406
6185.45 822.283 794.446 712.114 708
6188.31 716.586 791.887 682.944 677.222
6191.16 836.793 783.101 636.608 652.514
6194.01 795.924 817.5 637.99 670.219
6196.87 819.782 807.699 736.058 692.73
6199.72 807.391 795.858 704.142 721.989
6202.58 760.4 724.004 725.766 710.839
6205.43 604.219 677.885 702.609 690.806
6208.28 669.036 653.177 644.042 624.265
6211.14 686.275 666.917 526.144 605.61
6213.99 645.44 691.175 646.643 597.522
6216.84 741.81 711.916 619.78 636.242
6219.69 748.499 721.099 642.301 625.079
6222.55 672.988 711.782 613.157 626.771
6225.4 713.86 709.632 624.855 619.667
6228.25 742.047 725.342 620.988 617.824
6231.11 720.12 719.142 607.631 604.773
6233.96 695.26 743.286 585.7 626.989
6236.81 814.477 701.863 687.636 628.224
6239.66 595.852 694.112 611.336 686.106
6242.51 672.006 615.465 759.345 679.91
6245.37 578.537 665.835 669.048 690.436
6248.22 746.963 702.186 642.914 679.347
6251.07 781.057 749.504 726.079 682.919
6253.92 720.493 779.303 679.765 701.152
6256.77 836.359 696.149 697.613 666.732
6259.62 531.596 709.899 622.818 653.393
6262.47 761.743 677.627 639.747 673.683
6265.32 739.542 765.899 758.484 703.266
6268.18 796.413 738.913 711.568 727.45
6271.03 680.784 740.852 712.298 692.892
6273.88 745.359 750.007 654.809 691.062
6276.73 823.877 790.059 706.078 697.322
6279.58 800.941 802.019 731.081 726.245
6282.43 781.239 824.249 741.576 764.261
6285.28 890.568 816.129 820.127 765.358
6288.13 776.581 821.384 734.37 792.416
6290.98 797.003 856.622 822.75 787.482
6293.83 996.28 901.969 805.325 731.823
6296.68 912.623 993.489 567.395 664.285
6299.53 1071.56 757.121 620.134 671.94
6302.37 287.177 688.516 828.291 687.578
6305.22 706.809 551.622 614.309 830.637
6308.07 660.88 821.326 1049.31 933.905
6310.92 1096.29 820.926 1138.1 1057.19
6313.77 705.609 907.556 984.152 1038.24
6316.62 920.77 851.302 992.467 1040.4
6319.47 927.527 969.246 1144.59 1050.82
6322.32 1059.44 1010.69 1015.41 1041
6325.16 1045.1 1042.51 963.012 988.393
6328.01 1022.98 1041.26 986.758 994.048
6330.86 1055.69 1064.43 1032.37 1024.16
6333.71 1114.62 1092.88 1053.34 1044.98
6336.55 1108.34 1129.71 1049.23 1078.34
6339.4 1166.18 1140.49 1132.45 1099.73
6342.25 1146.95 1133.3 1117.51 1094.95
6345.1 1086.78 1103.18 1034.9 1077.5
6347.94 1075.81 1101.6 1080.09 1077.13
6350.79 1142.21 1135.1 1116.39 1131.38
6353.64 1187.26 1219.68 1197.67 1193.02
6356.48 1329.56 1248.5 1264.99 1197.01
6359.33 1228.68 1279.08 1128.38 1151.99
6362.18 1279.02 1245.5 1062.59 1089.08
6365.02 1228.79 1242.06 1076.26 1081.7
6367.87 1218.36 1176.68 1106.26 1083.65
6370.72 1082.89 1219.38 1068.43 1168.92
6373.56 1356.9 1244.6 1332.06 1257.13
6376.41 1294 1321.41 1370.9 1347.44
6379.25 1313.33 1283.82 1339.37 1322.65
6382.1 1244.14 1273.03 1257.67 1292.45
6384.94 1261.61 1200.22 1280.32 1212.86
6387.79 1094.9 1180.39 1100.61 1209.29
6390.63 1184.66 1159.54 1246.94 1189.04
6393.48 1199.07 1207.3 1219.56 1250.96
6396.32 1238.16 1209.03 1286.38 1249.41
6399.17 1189.86 1239.6 1242.3 1290.37
6402.01 1290.77 1250.77 1342.42 1309.38
6404.86 1271.67 1277.18 1343.42 1344.18
6407.7 1269.1 1277.5 1346.7 1341.63
6410.54 1291.74 1250.16 1334.78 1332.8
6413.39 1189.65 1234.81 1316.92 1327.97
6416.23 1223.04 1242.2 1332.2 1336.19
6419.08 1313.92 1274.15 1359.43 1350.19
6421.92 1285.49 1318.05 1358.92 1355.96
6424.76 1354.73 1326 1349.53 1374.39
6427.61 1337.77 1320.17 1414.72 1396.45
6430.45 1268.02 1299.62 1425.12 1371.96
6433.29 1293.06 1326.63 1276.04 1384.76
6436.13 1418.81 1299.46 1453.11 1346.02
6438.98 1186.52 1280.68 1308.92 1345.45
6441.82 1236.71 1254.87 1274.32 1317.86
6444.66 1341.4 1307.86 1370.35 1344.71
6447.5 1345.48 1340.05 1389.46 1361.41
6450.35 1333.27 1315.66 1324.42 1362.41
6453.19 1268.23 1326.91 1373.34 1355.7
6456.03 1379.24 1320.47 1369.33 1350.08
6458.87 1313.93 1344.56 1307.56 1359.99
6461.71 1340.51 1319.98 1403.09 1358.42
6464.55 1305.5 1271.28 1364.62 1352.81
6467.4 1167.83 1256.44 1290.73 1322.88
6470.24 1296.01 1281.98 1313.29 1301.48
6473.08 1382.11 1330.2 1300.4 1299.34
6475.92 1312.49 1315.39 1284.32 1322.24
6478.76 1251.57 1290.17 1381.99 1320.86
6481.6 1306.45 1309.26 1296.27 1363.78
6484.44 1369.74 1311.84 1413.09 1340.06
6487.28 1259.32 1261.77 1310.83 1345.8
6490.12 1156.24 1281.96 1313.47 1342.96
6492.96 1430.31 1322.4 1404.59 1352.36
6495.8 1380.64 1350.21 1339.04 1388.01
6498.64 1239.69 1296.76 1420.41 1397.35
6501.48 1269.94 1292.54 1432.6 1426.8
6504.32 1367.98 1309.27 1427.41 1402.08
6507.16 1289.89 1295.28 1346.23 1345.94
6510 1227.96 1264.79 1264.19 1343.21
6512.84 1276.53 1225.31 1419.2 1331.64
6515.67 1171.45 1264.33 1311.54 1355.61
6518.51 1345.02 1260.25 1336.09 1331.7
6521.35 1264.28 1312.57 1347.47 1342.65
6524.19 1328.41 1304.3 1344.4 1331.27
6527.03 1320.23 1334.65 1301.93 1339.33
6529.87 1355.32 1322.16 1371.66 1327.52
6532.7 1290.93 1305.91 1308.95 1328.29
6535.54 1271.47 1250.82 1304.24 1328.44
6538.38 1190.07 1280.38 1372.12 1354.72
6541.22 1379.58 1213.5 1387.8 1340.87
6544.05 1070.83 1250.07 1262.68 1331.09
6546.89 1299.79 1197.03 1342.79 1307.09
6549.73 1220.47 1258.37 1315.8 1338.21
6552.57 1254.86 1215.86 1356.05 1294.32
6555.4 1172.25 1204.76 1211.1 1274.05
6558.24 1187.18 1176.9 1255.01 1236.64
6561.08 1171.27 1194.41 1243.81 1232.97
6563.91 1224.78 1160.58 1200.09 1225.85
6566.75 1085.7 1212.66 1233.64 1244.92
6569.58 1327.51 1202.1 1301.01 1234.54
6572.42 1193.1 1273.7 1168.97 1265.74
6575.26 1300.49 1218.59 1327.23 1264.55
6578.09 1162.19 1215.02 1297.45 1296.07
6580.93 1182.37 1192.17 1263.52 1275.98
6583.76 1231.95 1209.65 1266.98 1268.52
6586.6 1214.62 1229.91 1275.07 1270.66
6589.43 1243.17 1235.75 1269.94 1254.79
6592.27 1249.45 1257.29 1219.35 1256.52
6595.1 1279.24 1246.77 1280.27 1250.72
6597.94 1211.61 1181.94 1252.56 1256.38
6600.77 1054.96 1164.48 1236.32 1237.22
6603.61 1226.88 1156.38 1222.77 1223.28
6606.44 1187.31 1191.94 1210.75 1216.65
6609.27 1161.63 1203.51 1216.44 1230.28
6612.11 1261.6 1200.12 1263.64 1243.5
6614.94 1177.13 1179.89 1250.42 1223.19
6617.77 1100.95 1180.43 1155.51 1220.38
6620.61 1263.2 1189.13 1255.22 1225.73
6623.44 1203.24 1212.1 1266.46 1236.73
6626.27 1169.85 1161.11 1188.51 1216.94
6629.11 1110.23 1149.11 1195.83 1212.17
6631.94 1167.23 1123.33 1252.17 1237.88
6634.77 1092.54 1140.68 1265.63 1248.76
6637.6 1162.26 1164.91 1228.49 1253.2
6640.44 1239.94 1211.07 1265.48 1239.06
6643.27 1231 1192.26 1223.2 1198.19
6646.1 1105.85 1174.84 1105.89 1174.54
6648.93 1187.66 1148.66 1194.54 1164.07
6651.76 1152.46 1154.79 1191.78 1181.35
6654.6 1124.26 1174.95 1157.74 1214
6657.43 1248.12 1219.63 1292.49 1249.85
6660.26 1286.52 1248.47 1299.32 1255.27
6663.09 1210.78 1191.87 1174.01 1194.02
6665.92 1078.32 1164.7 1108.73 1179.95
6668.75 1205.01 1159.41 1257.11 1212.8
6671.58 1194.9 1160.53 1272.54 1214.38
6674.41 1081.67 1149.04 1113.48 1200.27
6677.24 1170.55 1110.35 1214.78 1166.71
6680.07 1078.83 1132.26 1171.87 1180.42
6682.9 1147.4 1140.89 1154.61 1168.1
6685.73 1196.46 1141.87 1177.84 1153.14
6688.56 1081.75 1147.39 1126.97 1151.81
6691.39 1163.97 1121.95 1150.62 1138.91
6694.22 1120.11 1161.38 1139.14 1169.35
6697.05 1200.07 1128.51 1218.29 1162.91
6699.88 1065.36 1095.18 1131.29 1189.58
6702.71 1020.1 1055.09 1219.16 1168.56
6705.54 1079.82 1049.56 1155.25 1189.22
6708.37 1048.75 1064.6 1193.27 1156.04
6711.2 1065.22 1058.87 1119.59 1153.44
6714.02 1062.63 1084.21 1147.45 1146.47
6716.85 1124.78 1097.98 1172.36 1161.74
6719.68 1106.52 1089.59 1165.4 1170.93
6722.51 1037.45 1058.16 1175.03 1158.07
6725.34 1030.51 1060.5 1133.8 1158.63
6728.16 1113.54 1074.44 1167.06 1158.81
6730.99 1079.28 1115.06 1175.59 1188.62
6733.82 1152.36 1144.64 1223.21 1208.82
6736.64 1202.29 1166.98 1227.65 1212.06
6739.47 1146.31 1153.19 1185.31 1182.46
6742.3 1110.97 1124.94 1134.43 1159.08
6745.12 1117.55 1122.94 1157.52 1150.69
6747.95 1140.31 1124.33 1160.13 1158.24
6750.78 1115.13 1143.81 1157.07 1172.79
6753.6 1176 1134.38 1201.17 1163.1
6756.43 1112.01 1159.88 1131.05 1188.54
6759.26 1191.64 1156.61 1233.39 1179
6762.08 1166.19 1163.73 1172.54 1189.88
6764.91 1133.35 1141.33 1163.71 1173.89
6767.73 1124.45 1131.17 1185.43 1156.38
6770.56 1135.7 1113.25 1119.99 1144.69
6773.38 1079.61 1069.09 1128.65 1126.9
6776.21 991.957 1016.92 1132.06 1099.01
6779.03 979.182 1011.38 1036.32 1106.75
6781.86 1062.99 1041.09 1151.86 1123.17
6784.68 1081.09 1081.05 1181.33 1160.94
6787.5 1099.07 1073.31 1149.62 1133.59
6790.33 1039.77 1037.24 1069.82 1121.92
6793.15 972.874 1020.95 1146.31 1101.08
6795.98 1050.21 1011.22 1087.1 1108.73
6798.8 1010.58 1045.74 1092.79 1094.32
6801.62 1076.42 1026.74 1103.06 1074.94
6804.45 993.222 1009.33 1028.97 1056.44
6807.27 958.355 991.742 1037.29 1047
6810.09 1023.65 979.186 1074.73 1047.94
6812.92 955.553 991.374 1031.8 1060.41
6815.74 994.918 1024.98 1074.71 1084.54
6818.56 1124.48 1039.17 1147.1 1093.24
6821.38 998.13 1074.47 1057.91 1111.46
6824.21 1100.79 1010.11 1129.36 1040.77
6827.03 931.407 1029.08 935.039 1041.55
6829.85 1055.04 1009.26 1060.26 1003.16
6832.67 1041.34 997.238 1014.18 1045.79
6835.49 895.334 928.304 1062.93 1021.92
6838.31 848.241 914.916 988.668 1025.41
6841.13 1001.17 963.869 1024.64 1024.98
6843.96 1042.19 945.606 1061.64 1027.51
6846.78 793.452 954.912 996.257 1018.19
6849.6 1029.09 954.905 996.675 1013.21
6852.42 1042.17 1038.4 1046.7 1024.4
6855.24 1043.94 1028.27 1029.84 1014.1
6858.06 998.704 913.914 965.762 975.603
6860.88 699.094 907.341 931.212 980.427
6863.7 1024.22 852.763 1044.31 918.967
6866.52 834.97 850.838 781.382 869.684
6869.34 693.321 760.698 783.365 780.501
6872.16 753.803 754.867 776.757 798.712
6874.98 817.477 821.509 836.014 849.979
6877.79 893.246 875.301 937.166 885.589
6880.61 915.181 913.268 883.589 906.572
6883.43 931.376 914.276 898.962 894.764
6886.25 896.271 897.748 901.74 893.28
6889.07 865.597 865.871 879.138 892.18
6891.89 835.745 826.924 895.66 893.757
6894.71 779.429 849.37 906.471 918.576
6897.52 932.937 851.169 953.597 929.471
6900.34 841.142 885.09 928.345 922.817
6903.16 881.193 886.396 886.51 925.859
6905.98 936.853 884.099 962.721 895.87
6908.79 834.253 898.398 838.379 925.378
6911.61 924.089 899.12 975.033 928.811
6914.43 939.019 925.774 973.02 961.736
6917.24 914.215 896.04 937.155 938.513
6920.06 834.885 882.823 905.363 903.9
6922.88 899.37 866.786 869.183 874.667
6925.69 866.103 871.94 849.456 878.982
6928.51 850.346 878.324 918.308 890.474
6931.32 918.523 889.159 903.657 922.999
6934.14 898.609 871.003 947.033 929.285
6936.96 795.876 898.949 937.164 939.604
6939.77 1002.36 869.153 934.615 906.654
6942.59 809.221 889.9 848.182 876.841
6945.4 858.117 862.367 847.726 886.295
6948.22 919.762 889.539 962.977 878.77
6951.03 890.738 914.783 825.608 906.15
6953.85 933.85 911.768 929.865 903.613
6956.66 910.718 966.583 955.367 968.091
6959.47 1055.18 966.475 1019.04 967.746
6962.29 933.527 955.685 928.83 951.624
6965.1 878.347 865.46 907.002 921.629
6967.92 784.506 845.964 929.055 902.351
6970.73 875.038 839.61 870.997 897.451
6973.54 859.287 860.949 892.303 864.34
6976.36 848.521 823.291 829.722 862.665
6979.17 762.066 851.92 865.971 876.181
6981.98 945.174 874.846 932.852 898.127
6984.79 917.298 885.183 895.557 889.585
6987.61 793.077 886.224 840.347 865.654
6990.42 948.298 855.359 861.059 861.843
6993.23 824.702 921.75 884.123 895.82
6996.04 992.249 839.589 942.279 863.615
6998.85 701.815 864.88 764.443 836.945
7001.67 900.575 833.229 804.112 822.529
7004.48 897.297 917.279 899.032 883.24
7007.29 953.967 917.916 946.576 893.399
7010.1 902.484 903.954 834.59 884.149
7012.91 855.412 849.252 871.281 856.656
7015.72 789.859 823.802 864.098 844.971
7018.53 826.133 791.144 799.535 825.624
7021.34 757.438 804.149 813.24 808.242
7024.15 828.875 825.688 811.952 826.757
7026.96 890.75 863.6 855.078 838.925
7029.77 871.176 895.761 849.744 879.194
7032.58 925.358 902.495 932.761 893.875
7035.39 910.951 888.831 899.121 877.463
7038.2 830.185 879.662 800.509 844.502
7041.01 897.849 875.885 833.875 835.36
7043.82 899.622 874.428 871.696 827.943
7046.63 825.814 865.208 778.256 830.623
7049.44 870.189 885.894 841.918 851.684
7052.24 961.68 861.742 934.877 874.971
7055.05 753.357 879.302 848.12 851.649
7057.86 922.87 872.084 771.951 839.108
7060.67 940.024 923.961 897.253 860.993
7063.48 908.989 899.521 913.774 890.072
7066.28 849.549 890.392 859.189 883.963
7069.09 912.638 848.837 878.927 849.033
7071.9 784.324 798.997 808.982 835.891
7074.71 700.03 794.88 819.764 819.021
7077.51 900.287 826.744 828.318 829.992
7080.32 879.915 885.125 841.894 843.729
7083.13 875.172 825.178 860.975 830.445
7085.93 720.445 805.472 788.466 817.559
7088.74 820.8 774.621 803.235 817.257
7091.54 782.62 829.031 860.068 825.814
7094.35 883.674 854.058 814.138 836.158
7097.16 895.881 897.127 834.267 836.038
7099.96 911.826 867.578 859.71 818.453
7102.77 795.027 829.017 761.382 797.948
7105.57 780.199 815.902 772.752 779.78
7108.38 872.479 833.727 805.206 797.628
7111.18 848.502 856.243 814.926 820.814
7113.99 847.746 812.573 842.312 828.629
7116.79 741.472 807.822 828.649 820.489
7119.59 834.248 793.472 790.506 788.034
7122.4 804.697 810.2 744.949 774.589
7125.2 791.655 763.955 788.312 748.319
7128.01 695.512 775.769 711.697 780.702
7130.81 840.141 788.167 842.097 807.181
7133.61 828.848 850.427 867.748 835.44
7136.42 882.291 835.548 796.475 835.081
7139.22 795.506 834.479 841.021 810.523
7142.02 825.641 832.997 794.072 824.649
7144.82 877.844 825.746 838.855 796.04
7147.63 773.753 811.263 755.192 778.862
7150.43 782.192 781.756 742.538 755.835
7153.23 789.322 784.756 769.775 768.396
7156.03 782.755 777.178 792.875 764.334
7158.83 759.458 776.265 730.352 773.573
7161.64 786.584 803.288 797.492 769.618
7164.44 863.823 768.839 781.011 780.449
7167.24 656.11 786.48 762.843 786.827
7170.04 839.508 723.468 816.628 792.089
7172.84 674.785 723.556 796.796 764.309
7175.64 656.375 684.148 679.503 730.352
7178.44 721.285 732.306 714.756 714.81
7181.24 819.259 759.438 750.172 731.877
7184.04 737.771 755.931 730.701 731.863
7186.84 710.764 723.647 714.715 718.262
7189.64 722.405 722.729 709.37 702.926
7192.44 735.019 744.871 684.692 717.357
7195.24 777.189 744.659 758.009 709.317
7198.04 721.768 766.86 685.25 722.458
7200.84 801.622 728.622 724.114 700.146
7203.64 662.477 758.344 691.074 734.533
7206.43 810.934 748.252 788.412 742.655
7209.23 771.344 768.121 748.479 738.306
7212.03 722.084 740.689 678.026 722.645
7214.83 728.639 729.987 741.429 720.928
7217.63 739.237 742.067 743.33 725.49
7220.42 758.324 761.22 691.71 727.867
7223.22 786.1 776.495 748.561 727.374
7226.02 785.06 776.228 741.852 735.328
7228.82 757.525 766.278 715.572 724.184
7231.61 756.248 752.177 715.129 703.965
7234.41 742.758 716.671 681.195 677.094
7237.21 651.006 727.803 634.958 666.207
7240 789.645 628.513 682.469 700.915
7242.8 444.888 567.349 785.318 730.974
7245.59 467.514 538.432 725.135 719.052
7248.39 702.893 592.687 646.703 696.13
7251.19 607.654 688.293 716.553 701.601
7253.98 754.333 672.097 741.547 687.919
7256.78 654.305 695.051 605.656 659.787
7259.57 676.515 677.572 632.157 622.811
7262.37 701.895 693.774 630.619 649.378
7265.16 702.912 704.181 685.359 654.735
7267.95 707.735 735.584 648.225 683.137
7270.75 796.103 631.318 715.826 665.669
7273.54 390.115 685.061 632.954 692.125
7276.34 868.966 646.138 727.596 668.675
7279.13 679.334 759.551 645.476 706.13
7281.92 730.352 688.119 745.318 665.932
7284.72 654.67 651.112 607.001 668.522
7287.51 568.315 652.772 653.246 656.951
7290.3 735.33 646.368 710.606 668.67
7293.1 635.46 692.744 642.159 677.927
7295.89 707.441 622.431 681.017 629.094
7298.68 524.391 633.826 564.106 618.046
7301.47 669.647 622.248 609.015 585.797
7304.26 672.705 680.161 584.269 620.814
7307.06 698.131 688.579 669.157 628.919
7309.85 694.901 620.461 633.331 632.728
7312.64 468.35 638.789 595.695 629.446
7315.43 753.115 664.202 659.31 649.98
7318.22 771.14 724.099 694.934 654.974
7321.01 648.041 696.658 610.678 652.114
7323.8 670.794 663.071 650.731 615.444
7326.59 670.378 684.766 584.924 632.59
7329.38 713.126 679.929 662.114 613.85
7332.17 656.284 697.759 594.513 640.033
7334.96 723.868 660.649 663.473 579.907
7337.75 601.796 696.774 481.736 598.799
7340.54 764.658 650.123 651.19 603.807
7343.33 583.915 619.417 678.496 667.381
7346.12 509.678 568.029 672.456 677.202
7348.91 610.496 574.978 680.655 660.711
7351.7 604.762 575.62 629.02 659.175
7354.49 511.602 560.236 667.851 637.38
7357.27 564.344 559.678 615.269 640.252
7360.06 603.088 639.007 637.635 634.123
7362.85 749.588 697.629 649.465 641.066
7365.64 740.21 732.205 636.097 648.196
7368.43 706.817 609.096 659.026 629.422
7371.21 380.261 554.702 593.144 626.481
7374 577.03 513.293 627.274 617.933
7376.79 582.588 601.31 633.382 640.305
7379.57 644.311 619.426 660.261 630.064
7382.36 631.377 633.435 596.551 599.404
7385.15 624.617 637.957 541.4 582.965
7387.93 657.879 618.256 610.944 558.484
7390.72 572.273 591.86 523.108 572.233
7393.5 545.429 615.68 582.647 575.067
7396.29 729.337 618.995 619.447 613.269
7399.07 582.218 573.535 637.712 637.047
7401.86 409.05 465.774 653.982 615.808
7404.64 406.056 488.418 555.73 605.284
7407.43 650.149 551.219 606.14 588.839
7410.21 597.453 607.455 604.647 575.338
7413 574.761 583.473 515.226 542.399
7415.78 578.203 585.789 507.324 538.023
7418.57 604.402 573.397 591.519 536.251
7421.35 537.586 579.426 509.91 559.07
7424.13 596.29 551.501 575.78 553.806
7426.92 520.628 549.416 575.727 588.183
7429.7 531.33 538.663 613.041 579.242
7432.48 564.031 571.396 548.959 585.774
7435.26 618.827 581.218 595.323 584.548
7438.05 560.797 598.265 609.362 599.495
7440.83 615.17 588.903 593.799 602.948
7443.61 590.741 613.557 605.683 599.149
7446.39 634.761 596.747 597.965 558.258
7449.18 564.74 568.543 471.127 537.735
7451.96 506.128 529.159 544.113 523.455
7454.74 516.608 494.142 555.124 551.143
7457.52 459.69 522.475 554.19 564.283
7460.3 591.126 543.138 583.535 551.751
7463.08 578.597 588.297 517.527 547.908
7465.86 595.168 535.822 542.663 519.444
7468.64 433.702 538.629 498.142 548.434
7471.42 587.017 491.347 604.498 564.224
7474.2 453.322 547.377 590.033 591.356
7476.98 601.79 522.926 579.539 556.537
7479.76 513.666 527.437 500.038 568.82
7482.54 466.855 525.13 626.884 568.775
7485.32 594.867 558.582 579.403 584.983
7488.1 614.024 581.284 548.663 558.331
7490.88 534.961 527.814 546.929 540.421
7493.65 434.456 480.703 525.672 507.6
7496.43 472.692 470.936 450.198 489.994
7499.21 505.659 527.357 494.113 510.442
7501.99 603.721 534.742 587.015 534.589
7504.77 494.845 547.743 522.639 548.567
7507.54 544.662 523.416 536.047 510.217
7510.32 530.74 517.207 471.965 503.238
7513.1 476.22 478.994 501.701 473.819
7515.88 430.021 439.053 447.791 504.306
7518.65 410.918 409.043 563.425 507.971
7521.43 386.189 442.663 512.697 541.075
7524.2 530.882 415.353 547.102 521.483
7526.98 328.987 481.332 504.65 533.373
7529.76 584.127 462.876 548.368 515.221
7532.53 475.515 486.726 492.644 497.536
7535.31 400.535 473.158 451.596 475.655
7538.08 543.422 464.842 482.725 449.276
7540.86 450.567 470.694 413.507 449.713
7543.63 418.093 461.58 452.908 458.285
7546.41 516.082 477.365 508.44 465.866
7549.18 497.921 477.345 436.25 483.005
7551.95 418.034 471.864 504.323 467.297
7554.73 499.638 454.136 461.318 454.641
7557.5 444.736 484.335 398.281 444.783
7560.28 508.63 485.151 474.751 420.572
7563.05 502.087 525.154 388.684 447.803
7565.82 564.745 528.412 479.973 419.419
7568.6 518.405 520.652 389.599 430.681
7571.37 478.807 504.409 422.472 422.326
7574.14 516.016 436.506 454.909 446.835
7576.91 314.696 415.433 463.124 437.476
7579.68 415.587 383.172 394.395 437.073
7582.46 419.234 421.141 453.699 421.722
7585.23 428.603 412.325 417.072 422.004
7588 389.139 395.774 395.241 384.593
7590.77 369.581 361.932 341.465 359.344
7593.54 327.077 322.253 341.327 322.041
7596.31 270.102 252.891 283.331 274.239
7599.08 161.494 195.279 198.058 207.631
7601.85 154.241 155.529 141.505 161.117
7604.62 150.851 135.499 143.788 130.13
7607.39 101.406 142.022 105.098 136.753
7610.16 173.81 181.789 161.372 168.183
7612.93 270.15 248.199 238.08 221.039
7615.7 300.635 285.948 263.666 250.724
7618.47 287.06 287.994 250.425 261.808
7621.24 276.287 255.038 271.334 264.632
7624.01 201.768 242.829 272.136 259.045
7626.78 250.432 198.403 233.666 239.272
7629.54 143.01 177.452 212.013 214.512
7632.31 138.914 170.284 197.858 204.542
7635.08 228.928 207.79 203.754 217.515
7637.85 255.528 260.76 250.934 245.25
7640.62 297.824 273.838 281.061 255.659
7643.38 268.163 288.888 234.982 269.4
7646.15 300.677 281.023 292.158 264.354
7648.92 274.231 291.882 265.923 272.897
7651.68 300.738 305.767 260.611 281.586
7654.45 342.333 349.232 318.224 311.724
7657.21 404.624 374.61 356.337 338.659
7659.98 376.873 391.073 341.416 352.687
7662.75 391.722 413.491 360.306 368.587
7665.51 471.879 429.864 404.038 377.051
7668.28 425.99 424.165 366.809 380.287
7671.04 374.627 410.909 370.014 377.343
7673.81 432.111 406.637 395.205 394.829
7676.57 413.173 418.794 419.267 386.299
7679.34 411.097 423.054 344.426 380.098
7682.1 444.892 464.032 376.6 377.793
7684.86 536.107 468.767 412.353 374.784
7687.63 425.303 430.643 335.398 379.047
7690.39 330.518 400.362 389.39 368.784
7693.15 445.264 408.552 381.563 387.688
7695.92 449.874 421.835 392.111 389.087
7698.68 370.366 443.543 393.587 394.229
7701.44 510.389 472.535 396.988 389.894
7704.2 536.85 561.56 379.108 376.451
7706.97 637.441 511.815 353.256 357.015
7709.73 361.156 485.006 338.68 350.947
7712.49 456.421 462.973 360.906 386.905
7715.25 571.343 527.581 461.128 446.405
7718.01 554.98 429.376 517.18 484.205
7720.77 161.806 365.21 474.306 471.925
7723.54 378.846 302.735 424.288 434.803
7726.3 367.555 382.061 405.817 435.74
7729.06 399.783 392.417 477.115 421.395
7731.82 409.912 424.18 381.253 405.152
7734.58 462.844 420.397 357.09 363.535
7737.34 388.436 439.371 352.261 358.854
7740.1 466.833 413.301 367.211 352.847
7742.85 384.634 431.786 339.07 364.377
7745.61 443.891 440.791 386.85 366.489
7748.37 493.848 468.345 373.547 371.012
7751.13 467.296 486.509 352.638 404.93
7753.89 498.383 453.692 488.604 420.809
7756.65 395.398 443.527 421.184 464.36
7759.41 436.801 411.788 483.292 447.24
7762.16 403.164 439.013 437.244 468.022
7764.92 477.073 452.222 483.531 463.42
7767.68 476.429 464.441 469.486 454.219
7770.44 439.82 471.416 409.64 420.818
7773.19 497.998 471.175 383.327 388.897
7775.95 475.707 511.636 373.723 404.539
7778.7 561.203 500.313 456.567 406.693
7781.46 464.03 459.917 389.789 400.87
7784.22 354.517 435.602 356.253 366.989
7786.97 488.259 428.868 354.926 350.409
7789.73 443.829 457.839 340.047 352.018
7792.48 441.428 380.39 361.08 369.309
7795.24 255.914 402.455 406.798 424.481
7797.99 510.022 397.784 505.564 423.961
7800.75 427.415 475.093 359.521 435.742
7803.5 487.844 471 442.14 401.296
7806.26 497.741 499.56 402.227 417.638
7809.01 513.096 498.556 408.546 408.749
7811.76 484.831 488.817 415.475 392.172
7814.52 468.524 479.033 352.496 373.031
7817.27 483.744 365.836 351.123 324.337
7820.02 145.239 369.97 269.392 336.164
7822.78 480.926 372.835 387.977 405.524
7825.53 492.338 472.577 559.202 458.52
7828.28 444.467 418.505 428.383 468.541
7831.03 318.709 380.39 418.039 413.97
7833.78 377.992 390.759 395.489 382.734
7836.54 475.575 421.485 334.674 385.156
7839.29 410.887 465.188 425.306 387.534
7842.04 509.101 424.521 402.623 390.09
7844.79 353.574 362.061 342.34 336.668
7847.54 223.507 380.944 265.042 325.408
7850.29 565.752 301.925 368.842 352.357
7853.04 116.517 258.87 423.186 383.996
7855.79 94.3402 201.205 359.961 396.045
7858.54 392.758 315.922 404.988 409.916
7861.29 460.668 406.004 464.799 419.467
7864.04 364.587 362.236 388.614 431.236
7866.79 261.452 380.129 440.296 419.333
7869.54 514.347 368.256 429.089 411.125
7872.29 328.968 429.379 363.99 412.84
7875.04 444.822 412.034 445.44 407.694
7877.78 462.312 450.111 413.652 422.053
7880.53 443.199 458.434 407.066 393.154
7883.28 469.792 473.119 358.744 399.01
7886.03 506.365 419.995 431.22 399.493
7888.77 283.827 374.343 408.516 392.313
7891.52 332.835 293.088 337.203 359.849
7894.27 262.602 293.4 333.829 342.65
7897.01 284.765 330.382 356.919 372.447
7899.76 443.781 414.544 426.593 408.163
7902.51 515.087 445.757 440.976 386.714
7905.25 378.403 400.515 292.572 360.869
7908 308.056 392.372 349.06 306.49
7910.74 490.657 459.138 277.84 311.626
7913.49 578.702 499.388 307.977 305.919
7916.23 428.805 461.496 331.94 349.522
7918.98 376.982 454.224 408.648 402.048
7921.72 556.886 461.012 465.556 439.137
7924.47 449.167 467.637 443.208 421.291
7927.21 396.859 438.586 355.109 409.921
7929.95 469.732 420.113 431.447 401.434
7932.7 393.75 403.601 417.746 398.077
7935.44 347.321 351.309 345.038 386.513
7938.18 312.855 303.813 396.754 347.037
7940.93 251.262 341.636 299.32 359.331
7943.67 460.792 365.689 381.918 325.444
7946.41 385.012 417.752 295.093 348.024
7949.15 407.453 417.186 367.061 351.645
7951.9 459.095 444.642 392.783 374.09
7954.64 467.38 445.241 362.426 366.002
7957.38 409.249 466.176 342.796 370.045
7960.12 521.9 368.77 404.913 342.182
7962.86 175.162 408.614 278.838 349.985
7965.6 528.779 381.167 366.204 353.372
7968.34 439.56 461.712 415.073 392.523
7971.08 416.796 409.911 396.292 378.181
7973.82 373.377 377.923 323.179 334.794
7976.56 343.597 346.26 284.91 319.363
7979.3 321.806 353.446 350.001 322.287
7982.04 394.936 356.681 331.949 313.79
7984.78 353.301 389.418 259.421 286.552
7987.52 420.017 426.061 268.286 264.52
7990.26 504.865 458.067 265.854 267.501
7992.99 449.319 432.093 268.364 318.454
7995.73 342.096 419.419 421.145 374.461
7998.47 466.841 406.318 433.876 416.382
8001.21 410.016 388.533 394.126 399.554
8003.95 288.743 365.56 370.66 358.388
8006.68 397.921 341.102 310.377 308.617
8009.42 336.642 388.257 244.816 275.19
8012.16 430.209 374.224 270.376 276.25
8014.89 355.821 370.232 313.558 310.499
8017.63 324.668 369.655 347.565 321.415
8020.36 428.477 388.227 303.122 300.131
8023.1 411.537 394.165 249.707 282.744
8025.83 342.48 381.726 295.401 293.754
8028.57 391.162 370.531 336.155 333.853
8031.3 377.951 368.023 370.002 330.818
8034.04 334.955 368.796 286.297 322.306
8036.77 393.481 357.552 310.62 298.886
8039.51 344.22 377.238 299.741 311.686
8042.24 394.012 369.227 324.697 296.863
8044.98 369.448 361.741 266.153 290.346
8047.71 321.764 349.83 280.189 273.607
8050.44 358.279 312.096 274.479 282.31
8053.18 256.246 330.798 292.262 302.041
8055.91 377.869 324.009 339.381 306.561
8058.64 337.913 320.389 288.04 313.612
8061.37 245.385 285.538 313.414 284.322
8064.1 273.315 306.723 251.513 290.607
8066.84 401.469 354.817 306.893 290.005
8069.57 389.666 356.528 311.609 297.838
8072.3 278.449 346.086 275.012 295.604
8075.03 370.144 320.116 300.193 280.836
8077.76 311.755 365.897 267.303 286.35
8080.49 415.791 356.409 291.554 264.72
8083.22 341.68 353.449 235.304 262.909
8085.95 302.875 297.796 261.869 257.388
8088.68 248.832 308.282 274.992 278.279
8091.41 373.138 293.499 297.975 266.998
8094.14 258.527 324.316 228.028 252.168
8096.87 341.284 313.053 230.502 227.083
8099.6 339.348 335.332 222.719 234.55
8102.33 325.365 319.637 250.428 252.96
8105.05 294.197 297.246 285.732 256.801
8107.78 272.175 287.979 234.243 248.272
8110.51 297.564 300.807 224.842 237.091
8113.24 332.681 314.419 252.188 241.704
8115.96 313.012 332.7 248.081 264.346
8118.69 352.409 335.376 292.77 255.553
8121.42 340.708 323.796 225.807 245.578
8124.14 278.272 316.051 218.156 232.813
8126.87 329.173 305.531 254.477 236.789
8129.6 309.148 313.84 237.734 235.202
8132.32 303.198 305.518 213.396 233.16
8135.05 304.207 313.564 248.35 227.341
8137.77 333.286 309.941 220.278 235.328
8140.5 292.329 293.417 237.356 207.846
8143.22 254.637 295.965 165.902 228.593
8145.95 340.931 279.156 282.52 223.399
8148.67 241.9 302.866 221.773 230.206
8151.4 325.767 276.189 186.325 214.37
8154.12 260.9 297.335 235.01 221.465
8156.84 305.339 279.834 243.061 229.821
8159.57 273.265 296.717 211.392 212.86
8162.29 311.547 295.747 184.127 201.207
8165.01 302.431 300.609 208.1 205.999
8167.73 287.85 309.231 225.769 226.7
8170.46 337.411 311.487 246.232 238.275
8173.18 309.201 310.721 242.825 243.107
8175.9 285.55 287.385 240.266 224.673
8178.62 267.403 270.72 190.93 211.845
8181.34 259.206 269.736 204.339 197.783
8184.06 282.6 274.344 198.08 196.143
8186.78 281.226 277.234 186.008 196.031
8189.51 267.877 274.808 204.005 203.163
8192.23 275.32 289.515 219.474 231.321
8194.95 325.349 284.437 270.484 222.195
8197.67 252.642 276.236 176.626 226.129
8200.38 250.717 250.456 231.279 215.054
8203.1 248.01 246.533 237.258 236.063
8205.82 240.874 254.533 239.652 231.183
8208.54 274.716 263.956 216.64 223.847
8211.26 276.279 275.566 215.25 217.308
8213.98 275.703 267.99 220.035 209.063
8216.7 251.987 275.236 191.906 208.804
8219.41 298.017 292.861 214.473 207.93
8222.13 328.578 302.716 217.411 219.896
8224.85 281.552 278.399 227.805 219.367
8227.56 225.066 243.272 212.885 212.519
8230.28 223.198 224.969 196.866 199.717
8233 226.644 253.315 189.401 193.738
8235.71 310.104 275.234 194.948 206.077
8238.43 288.955 285.078 233.881 211.015
8241.14 256.174 258.603 204.216 210.298
8243.86 230.681 260.2 192.798 206.239
8246.58 293.745 281.818 221.703 207.16
8249.29 321.029 319.046 206.978 222.94
8252 342.363 317.716 240.139 223.626
8254.72 289.757 294.342 223.761 220.495
8257.43 250.906 276.544 197.585 212.516
8260.15 288.968 271.715 216.202 214.449
8262.86 275.271 275.534 229.56 214.88
8265.57 262.363 268.54 198.878 206.342
8268.29 267.985 270.886 190.589 190.402
8271 282.311 265.321 181.737 188.048
8273.71 245.668 219.976 191.817 177.663
8276.42 131.948 199.976 159.436 171.296
8279.14 222.311 227.291 162.634 190.54
8281.85 327.615 265.404 249.551 201.369
8284.56 246.286 264.473 191.922 193.08
8287.27 219.518 146.759 137.767 155.847
8289.98 -25.5287 96.2013 137.852 157.404
8292.69 94.6146 112.832 196.594 179.961
8295.4 269.411 249.663 205.437 231.515
8298.11 384.963 286.389 292.513 216.38
8300.82 204.792 231.789 151.188 222.228
8303.53 105.613 184.446 222.982 205.28
8306.24 242.934 199.677 241.67 195.81
8308.95 250.485 238.259 122.776 175.738
8311.66 221.359 214.48 162.767 160.528
8314.37 171.598 202.806 196.042 186.493
8317.07 215.46 203.783 200.671 193.465
8319.78 224.292 254.503 183.681 194.143
8322.49 323.757 268.555 198.076 189.953
8325.2 257.617 268.583 188.101 191.817
8327.9 224.375 248.841 189.274 194.29
8330.61 264.531 247.49 205.495 172.789
8333.32 253.565 250.081 123.598 161.807
8336.02 232.146 296.037 156.328 158.472
8338.73 402.401 349.1 195.489 170.826
8341.44 412.754 398.38 160.662 168.121
8344.14 379.984 328.806 148.21 155.531
8346.85 193.681 246.305 157.722 181.745
8349.55 165.25 196.605 239.302 206.208
8352.26 230.883 127.049 221.601 210.95
8354.96 -14.985 68.6472 171.946 196.83
8357.67 -9.95664 45.5187 196.942 180.01
8360.37 161.498 131.734 171.142 173.705
8363.07 243.66 170.122 153.032 160.721
8365.78 105.208 191.339 157.989 178.069
8368.48 225.149 207.805 223.185 201.022
8371.18 293.057 235.584 221.893 211.831
8373.89 188.545 268.713 190.415 220.951
8376.59 324.536 280.773 250.546 186.429
8379.29 329.238 296.324 118.326 181.954
8381.99 235.197 237.221 176.989 142.657
8384.69 147.229 178.609 132.655 141.957
8387.39 153.401 182.79 116.225 144.405
8390.1 247.741 237.767 184.335 171.294
8392.8 312.159 209.936 213.322 179.818
8395.5 69.9062 103.19 141.797 186.603
8398.2 -72.4965 117.247 204.689 180.89
8400.9 354.331 175.036 196.185 199.937
8403.6 243.274 258.953 198.936 181.626
8406.3 179.252 209.554 149.756 167.194
8408.99 206.136 213.307 152.89 136.397
8411.69 254.531 203.561 106.546 130.526
8414.39 150.015 223.827 132.143 119.422
8417.09 266.936 197.583 119.577 112.997
8419.79 175.798 198.16 87.2696 126.562
8422.49 151.746 202.64 172.839 121.253
8425.18 280.377 264.197 103.651 137.91
8427.88 360.467 207.551 137.24 131.023
8430.58 -18.1904 157.163 152.178 118.074
8433.27 129.214 20.4942 64.8029 129.977
8435.97 -49.5411 110.4 172.95 147.187
8438.67 251.528 157.535 203.809 176.577
8441.36 270.617 264.018 152.973 172.641
8444.06 269.91 242.474 161.142 160.063
8446.75 186.895 201.34 166.075 153.104
8449.45 147.215 198.43 132.096 152.025
8452.14 261.181 165.894 157.905 156.566
8454.84 89.2864 170.314 179.696 171.718
8457.53 160.475 140.039 177.552 185.614
8460.22 170.355 214.506 199.593 166.342
8462.92 312.689 223.81 121.88 152.372
8465.61 188.386 247.299 135.643 137.559
8468.3 240.82 162.195 155.155 139.111
8471 57.378 161.978 126.537 120.622
8473.69 187.736 142.103 80.1751 113.301
8476.38 181.195 212.161 133.191 111.121
8479.07 267.552 229.964 119.997 141.163
8481.77 241.144 255.736 170.3 135.759
8484.46 258.512 259.515 116.98 161.285
8487.15 278.887 277.084 196.576 149.508
8489.84 293.851 223.782 134.967 141.804
8492.53 98.6076 254.055 93.8688 139.213
8495.22 369.705 252.899 188.804 142.327
8497.91 290.383 311.225 144.309 158.613
8500.6 273.587 298.931 142.726 140.19
8503.29 332.824 319.122 133.535 129.727
8505.98 350.955 263.079 112.919 128.686
8508.67 105.457 243.012 139.604 143.346
8511.36 272.623 204.609 177.514 135.599
8514.04 235.747 256.038 89.6786 137.975
8516.73 259.742 259.887 146.734 128.482
8519.42 284.17 262.549 149.032 144.06
8522.11 243.736 255.83 136.415 138.7
8524.79 239.583 252.43 130.655 143.99
8527.48 273.971 265.503 164.9 150.34
8530.17 282.956 284.543 155.464 141.283
8532.85 296.703 280.482 103.485 147.047
8535.54 261.788 283.324 182.193 142.034
8538.23 291.481 254.436 140.424 155.945
8540.91 210.04 246.453 145.217 142.765
8543.6 237.838 232.647 142.654 151.913
8546.28 250.063 251.047 167.866 157.453
8548.97 265.241 272.95 161.839 154.705
8551.65 303.546 270.357 134.41 151.189
8554.33 242.283 253.626 157.319 130.044
8557.02 215.049 238.001 98.4035 128.245
8559.7 256.671 254.904 129.014 128.305
8562.38 292.992 276.273 157.498 149.55
8565.07 279.155 289.924 162.138 154.844
8567.75 297.626 290.004 144.895 152.614
8570.43 293.229 289.846 150.808 164.978
8573.11 278.681 297.025 199.232 172.514
8575.8 319.163 312.067 167.504 177.321
8578.48 338.356 320.956 165.227 156.267
8581.16 305.349 294.278 136.071 151.164
8583.84 239.13 264.86 152.195 135.199
8586.52 250.1 263.248 117.33 158.666
8589.2 300.514 277.599 206.473 163.009
8591.88 282.183 292.838 165.223 180.289
8594.56 295.818 264.69 169.171 165.96
8597.24 216.069 275.797 163.488 168.544
8599.92 315.506 250.455 172.974 160.386
8602.6 219.79 276.18 144.695 154.357
8605.28 293.245 257.81 145.402 149.971
8607.95 260.395 265.17 159.815 147.91
8610.63 241.87 247.295 138.514 153.789
8613.31 239.62 255.927 163.037 163.633
8615.99 286.293 279.625 189.347 168.232
8618.66 312.964 301.799 152.311 169.551
8621.34 306.14 298.103 166.995 170.64
8624.02 275.205 280.869 192.615 173.964
8626.69 261.263 282.515 162.281 167.375
8629.37 311.078 273.103 147.229 139.046
8632.05 246.967 228.643 107.627 143.057
8634.72 127.884 190.482 174.315 117.239
8637.4 196.594 217.59 69.7745 133.101
8640.07 328.293 267.093 155.212 121.468
8642.75 276.391 290.517 139.419 132.113
8645.42 266.866 292.368 101.708 132.453
8648.09 333.848 340.263 156.232 136.477
8650.77 420.075 389.637 151.49 170.709
8653.44 414.988 369.904 204.406 159.185
8656.11 274.65 310.474 121.659 158.613
8658.79 241.785 231.418 149.775 119.241
8661.46 177.819 197.58 86.289 147.133
8664.13 173.136 194.248 205.334 149.636
8666.8 231.791 254.251 157.285 175.915
8669.48 357.827 273.524 165.125 152.099
8672.15 230.953 260.788 133.887 136.119
8674.82 193.582 211.506 109.346 116.404
8677.49 209.984 193.104 105.978 115.329
8680.16 175.747 225.89 130.664 139.629
8682.83 291.94 233.632 182.247 157.749
8685.5 233.207 265.258 160.337 167.558
8688.17 270.627 259.385 160.09 153.426
8690.84 274.32 277.593 139.853 152.088
8693.51 287.831 305.502 156.321 151.335
8696.17 354.354 330.819 157.832 170.119
8698.84 350.273 348.197 196.205 175.481
8701.51 339.963 336.642 172.406 158.728
8704.18 319.689 315.433 107.573 124.568
8706.85 286.647 294.613 93.7243 122.926
8709.51 277.503 293.758 167.482 129.832
8712.18 317.125 292.754 128.29 139.34
8714.85 283.634 296.96 122.248 118.39
8717.51 290.12 285.286 104.63 111.836
8720.18 282.106 286.411 108.629 117.331
8722.84 287.006 295.959 138.733 139.603
8725.51 318.763 314.199 171.447 150.772
8728.18 336.828 313.101 142.137 152.408
8730.84 283.711 307.616 143.639 137.033
8733.5 302.308 302.002 125.322 136.575
8736.17 319.989 322.421 140.765 147.096
8738.83 344.965 298.697 175.201 149.008
8741.5 231.137 281.93 131.057 131.688
8744.16 269.689 251.257 88.8051 100.829
8746.82 252.946 271.838 82.6257 90.5751
8749.49 292.88 290.966 100.294 106.805
8752.15 327.072 249.809 137.496 118.903
8754.81 129.473 246.356 118.92 152.799
8757.47 282.522 216.404 201.982 122.09
8760.13 237.218 189.131 45.3671 94.8095
8762.79 47.6538 183.352 37.0791 -5.83677
8765.45 265.185 193.639 -99.9565 -36.051
8768.12 268.077 69.5626 -45.2757 -96.0734
8770.78 -324.575 -58.9034 -142.988 -38.8976
8773.44 -120.213 -16.0557 71.571 4.29185
8776.1 396.62 199.114 84.2926 29.2049
8778.75 320.935 236.666 -68.2488 -3.39453
8781.41 -7.55583 209.206 -26.2275 -58.1817
8784.07 314.24 215.502 -80.0687 -2.82039
8786.73 339.821 268.118 97.835 19.6346
8789.39 150.293 210.579 41.1376 45.9386
8792.05 141.624 188.725 -1.15688 38.547
8794.7 274.259 206.889 75.6602 31.0604
8797.36 204.783 242.111 18.678 67.0539
8800.02 247.291 242.816 106.824 61.1058
8802.68 276.375 266.695 57.8158 72.9575
8805.33 276.42 280.505 54.2331 48.852
8807.99 288.719 295.535 34.507 37.1833
8810.64 321.465 298.886 22.8099 24.6789
8813.3 286.474 321.859 16.7199 41.2726
8815.95 357.637 315.124 84.288 59.4399
8818.61 301.259 300.524 77.3119 108.699
8821.26 242.674 332.632 164.496 43.9793
8823.92 453.963 389.628 -109.87 -24.9815
8826.57 472.246 388.991 -129.571 -183.851
8829.22 240.764 330.678 -312.112 -179.396
8831.88 279.024 230.984 -96.5063 -98.982
8834.53 173.164 100.804 111.672 0.0214467
8837.18 -149.777 111.989 -15.1012 41.2588
8839.84 312.581 108.572 27.2058 59.2898
8842.49 162.913 253.532 165.765 86.4312
8845.14 285.102 237.093 66.3231 116.956
8847.79 263.266 269.246 118.779 71.2348
8850.44 259.37 289.318 28.6019 24.2761
8853.09 345.317 278.059 -74.553 14.2925
8855.74 229.491 255.759 88.8284 16.7837
8858.39 192.469 231.405 36.0756 48.2847
8861.04 272.255 260.904 19.9501 12.5386
8863.69 317.988 285.515 -18.41 1.4955
8866.34 266.302 306.262 2.9464 -6.47177
8868.99 334.496 244.559 -3.95174 -5.31781
8871.64 132.881 259.835 -14.9481 39.1162
8874.29 312.128 238.606 136.248 43.2719
8876.93 270.811 255.473 8.51526 44.6543
8879.58 183.481 183.997 -10.8009 -33.0591
8882.23 97.6998 235.194 -96.8916 -23.5217
8884.88 424.403 108.458 37.1273 7.09528
8887.52 -196.728 145.267 81.0501 108.632
8890.17 208.127 23.8574 207.717 138.151
8892.82 60.1733 149.124 125.687 136.42
8895.46 179.071 150.792 75.8564 52.0377
8898.11 213.133 252.126 -45.4302 -8.91049
8900.75 364.176 224.952 -57.1577 -46.472
8903.4 97.5464 257.731 -36.8282 -16.1071
8906.04 311.472 213.78 45.6645 -0.985763
8908.69 232.321 248.959 -11.7936 9.70128
8911.33 203.085 145.01 -4.7671 -59.6826
8913.97 -0.375388 100.437 -162.487 -86.1958
8916.62 98.6012 -12.6842 -91.3333 -41.6793
8919.26 -136.278 -130.979 128.783 -30.2195
8921.9 -355.26 -106.636 -128.108 37.2381
8924.54 171.63 -141.912 111.04 -53.7554
8927.19 -242.107 39.806 -144.198 -20.2454
8929.83 189.895 60.0527 -27.5778 -55.7031
8932.47 232.37 210.554 4.66668 -34.7676
8935.11 209.397 224.378 -81.3917 -22.9486
8937.75 231.367 248.91 7.87923 -40.913
8940.39 305.967 185.789 -49.2265 -10.2948
8943.03 20.0345 205.986 10.4629 14.3973
8945.67 291.957 170.525 81.9556 -17.1791
8948.31 199.584 196.904 -143.956 -99.9445
8950.95 99.1722 154.799 -237.833 -199.798
8953.59 165.64 200.728 -217.604 -122.436
8956.23 337.372 284.678 88.1302 12.4312
8958.87 351.021 149.542 166.768 78.6313
8961.5 -239.768 41.733 -19.0042 -67.7364
8964.14 13.9461 -50.5958 -350.973 -219.278
8966.78 74.0344 82.9013 -287.857 -288.807
8969.41 160.723 159.225 -227.592 -185.445
8972.05 242.916 213.987 -40.887 -80.6546
8974.69 238.322 228.679 26.5157 1.00758
8977.32 204.798 210.473 17.3941 29.277
8979.96 188.299 213.63 43.9214 32.7326
8982.59 247.795 216.812 36.8824 43.0587
8985.23 214.343 208.655 48.3724 66.3701
8987.86 163.827 220.633 113.856 81.5041
8990.5 283.728 223.983 82.2842 70.679
8993.13 224.393 240.441 15.8974 -11.3766
8995.77 213.201 153.957 -132.312 44.551
8998.4 24.2761 153.687 250.067 110.876
9001.03 223.585 158.246 214.874 226.249
9003.67 226.876 198.868 213.807 92.4037
9006.3 146.144 183.065 -151.47 -119.804
9008.93 176.174 180.42 -421.749 -250.482
9011.56 218.941 193.136 -178.228 -222.236
9014.19 184.294 211.705 -66.7321 -67.9825
9016.82 231.882 208.177 41.0126 27.7882
9019.45 208.355 221.983 109.084 63.0599
9022.08 225.713 210.113 39.083 76.475
9024.72 196.273 215.034 81.2577 88.819
9027.34 223.118 209.674 146.116 122.96
9029.97 209.633 210.889 141.507 125.111
9032.6 199.917 229.15 87.7087 139.891
9035.23 277.901 215.889 190.458 159.079
9037.86 169.848 230.58 199.072 154.607
9040.49 243.991 203.035 74.2906 99.2199
9043.12 195.265 246.995 24.2972 81.0153
9045.74 301.728 246.252 144.458 152.459
9048.37 241.762 254.485 288.622 180.82
9051 219.967 226.658 109.38 135.589
9053.62 218.245 194.086 8.76564 -13.287
9056.25 144.047 182.576 -158.007 -87.7242
9058.88 185.437 189.555 -113.931 -88.5924
9061.5 239.182 202.285 6.1608 -13.7366
9064.13 182.236 194.355 66.5605 62.4031
9066.75 161.646 156.063 114.488 77.6519
9069.38 124.307 95.3178 51.9072 55.4651
