wavelength spectrum_sum 3smoothed_sum spectrum_optimal 3smoothed_optimal
3505.79 118.379 100.995 123.765 102.423
3508.71 184.607 170.414 183.504 172.344
3511.62 208.257 217.337 209.762 213.593
3514.54 259.146 249.953 247.511 237.544
3517.45 282.456 268.566 255.36 247.871
3520.37 264.098 282.799 240.742 265.715
3523.28 301.843 279.834 301.043 262.746
3526.19 273.561 265.641 246.453 246.255
3529.11 221.52 236.455 191.27 204.242
3532.02 214.284 212.255 175.004 188.003
3534.94 200.962 201.942 197.736 188.685
3537.85 190.581 215.816 193.314 203.049
3540.76 255.904 235.616 218.098 221.439
3543.68 260.363 248.457 252.906 232.88
3546.59 229.104 245.653 227.635 237.253
3549.51 247.49 242.65 231.217 239.102
3552.42 251.355 249.577 258.455 246.168
3555.33 249.885 263.171 248.832 269.506
3558.25 288.273 269.138 301.231 272.64
3561.16 269.257 271.757 267.858 266.561
3564.08 257.741 266.644 230.594 256.014
3566.99 272.934 258.986 269.591 247.622
3569.91 246.283 265.549 242.681 257.423
3572.82 277.431 266.383 259.997 259.145
3575.73 275.435 278.719 274.758 267.663
3578.65 283.29 284.25 268.234 271.893
3581.56 294.024 295.295 272.687 272.792
3584.48 308.572 303.944 277.456 270.483
3587.39 309.237 318 261.305 278.901
3590.3 336.192 303.698 297.943 268.751
3593.22 265.666 296.791 247.005 274.401
3596.13 288.514 280.747 278.256 267.871
3599.05 288.06 299.407 278.353 286.229
3601.96 321.647 303.038 302.078 290.506
3604.87 299.408 301.902 291.087 286.486
3607.79 284.65 309.587 266.293 295.994
3610.7 344.702 317.536 330.603 299.08
3613.61 323.255 348.437 300.345 331.039
3616.53 377.353 329.846 362.171 309.567
3619.44 288.93 342.058 266.186 320.217
3622.36 359.891 311.213 332.295 296.194
3625.27 284.819 306.17 290.102 294.508
3628.18 273.801 296.969 261.128 285.501
3631.1 332.286 308.765 305.272 288.867
3634.01 320.208 339.356 300.201 319.72
3636.93 365.572 334.255 353.687 316.173
3639.84 316.986 333.084 294.63 317.872
3642.75 316.693 313.98 305.298 298.062
3645.67 308.26 300.907 294.257 291.493
3648.58 277.767 299.526 274.924 286.231
3651.49 312.55 289.506 289.512 276.303
3654.41 278.2 278.895 264.473 266.107
3657.32 245.936 271.031 244.335 265.64
3660.24 288.956 274.341 288.112 270.617
3663.15 288.133 282.223 279.406 277.49
3666.06 269.579 273.817 264.951 266.683
3668.98 263.738 260.78 255.691 257.754
3671.89 249.022 266.323 252.621 259.277
3674.8 286.209 279.021 269.519 270.295
3677.72 301.831 266.504 288.746 251.657
3680.63 211.473 261.232 196.705 248.728
3683.55 270.39 237.535 260.734 221.162
3686.46 230.741 249.519 206.046 227.524
3689.37 247.426 233.143 215.791 206.902
3692.29 221.261 245.537 198.87 216.634
3695.2 267.924 241.866 235.242 224.947
3698.11 236.412 256.721 240.73 238.54
3701.03 265.827 242.557 239.649 240.548
3703.94 225.432 246.546 241.265 235.98
3706.85 248.379 221.364 227.026 220.079
3709.77 190.281 219.379 191.945 210.859
3712.68 219.478 216.791 213.606 206.23
3715.59 240.613 218.327 213.139 202.093
3718.51 194.892 200.32 179.533 178.583
3721.42 165.456 177.832 143.076 166.683
3724.33 173.149 189.323 177.441 177.446
3727.25 229.365 195.24 211.822 185.748
3730.16 183.207 204.614 167.982 193.017
3733.07 201.27 189.855 199.248 180.924
3735.99 185.087 189.834 175.541 186.013
3738.9 183.145 189.649 183.248 177.644
3741.81 200.716 186.593 174.142 173.55
3744.73 175.917 190.228 163.26 182.016
3747.64 194.052 178.485 208.646 190.243
3750.55 165.487 172.768 198.824 184.482
3753.47 158.764 169.575 145.977 173.502
3756.38 184.474 168.877 175.705 155.012
3759.29 163.393 189.192 143.355 176.983
3762.21 219.707 194.214 211.889 178.494
3765.12 199.542 207.412 180.239 195.519
3768.03 202.988 196.317 194.43 176.974
3770.95 186.42 183.854 156.252 179.018
3773.86 162.155 186.284 186.372 191.906
3776.77 210.278 176.738 233.096 200.567
3779.69 157.779 194.232 182.233 219.702
3782.6 214.639 196.608 243.779 216.031
3785.51 217.406 207.055 222.082 225.728
3788.43 189.119 209.908 211.323 214.546
3791.34 223.198 210.268 210.232 216.422
3794.25 218.487 213.697 227.711 215.595
3797.16 199.405 204.133 208.844 223.653
3800.08 194.507 204.656 234.406 218.252
3802.99 220.056 216.454 211.508 232.504
3805.9 234.799 236.092 251.6 240.897
3808.82 253.421 235.964 259.585 242.123
3811.73 219.671 246.587 215.183 246.767
3814.64 266.669 257.251 265.531 258.356
3817.56 285.412 281.394 294.354 284.635
3820.47 292.101 285.167 294.019 285.673
3823.38 277.989 283.965 268.646 286.397
3826.29 281.803 291.943 296.526 292.389
3829.21 316.036 305.954 311.995 309.302
3832.12 320.022 312.954 319.386 307.808
3835.03 302.803 317.723 292.043 302.111
3837.95 330.345 326.045 294.906 300.999
3840.86 344.986 329.858 316.05 306.765
3843.77 314.242 325.998 309.341 310.506
3846.68 318.766 313.945 306.129 305.577
3849.6 308.827 315.672 301.261 298.285
3852.51 319.422 319.541 287.465 310.971
3855.42 330.374 329.981 344.188 321.749
3858.33 340.148 333.283 333.594 335.158
3861.25 329.329 348.635 327.692 342.548
3864.16 376.427 355.947 366.357 353.385
3867.07 362.086 359.998 366.105 366.117
3869.98 341.48 356.944 365.889 377.922
3872.9 367.266 352.154 401.77 364.699
3875.81 347.715 362.802 326.439 374.436
3878.72 373.423 393.011 395.098 390.99
3881.63 457.895 419.494 451.433 418.903
3884.55 427.165 455.738 410.179 439.703
3887.46 482.153 476.955 457.496 460.685
3890.37 521.548 504.168 514.381 490.543
3893.28 508.802 520.521 499.753 499.474
3896.2 531.214 513.849 484.287 495.901
3899.11 501.529 530.825 503.664 508.591
3902.02 559.732 539.323 537.821 534.469
3904.93 556.708 557.299 561.921 548.654
3907.85 555.457 586.367 546.219 574.926
3910.76 646.937 608.794 616.638 603.17
3913.67 623.989 626.413 646.654 643.732
3916.58 608.313 627.379 667.905 663.055
3919.49 649.836 650.887 674.605 690.737
3922.41 694.514 674.881 729.699 709.001
3925.32 680.294 686.052 722.699 714.054
3928.23 683.35 685.326 689.764 695.955
3931.14 692.334 706.749 675.401 701.107
3934.05 744.564 715.694 738.156 713.884
3936.97 710.184 757.106 728.095 759.154
3939.88 816.569 768.981 811.212 785.841
3942.79 780.19 805.854 818.217 823.621
3945.7 820.804 824.557 841.435 852.967
3948.61 872.677 854.944 899.249 879.336
3951.53 871.35 884.631 897.325 920.532
3954.44 909.866 887.453 965.023 925.867
3957.35 881.143 903.665 915.254 942.286
3960.26 919.987 906.379 946.583 931.778
3963.17 918.006 924.381 933.497 942.015
3966.09 935.151 947.751 945.965 948.589
3969 990.096 973.644 966.304 973.651
3971.91 995.684 980.451 1008.69 988.596
3974.82 955.573 974.689 990.8 993.904
3977.73 972.808 974.843 982.228 998.129
3980.64 996.148 1006.35 1021.36 1021.39
3983.56 1050.1 1032.12 1060.57 1054.54
3986.47 1050.12 1034.7 1081.68 1050.09
3989.38 1003.88 1035.7 1008.03 1060.88
3992.29 1053.09 1048.37 1092.94 1077.29
3995.2 1088.14 1066.59 1130.9 1102.34
3998.11 1058.53 1084.5 1083.18 1108.91
4001.03 1106.82 1080.84 1112.64 1097.56
4003.94 1077.16 1088.66 1096.88 1110.2
4006.85 1082.01 1085.5 1121.07 1114.78
4009.76 1097.32 1094.38 1126.4 1133.79
4012.67 1103.81 1127.72 1153.89 1150.96
4015.58 1182.03 1100.39 1172.6 1129.4
4018.49 1015.33 1070.55 1061.7 1107.15
4021.41 1014.29 1020.67 1087.16 1067.21
4024.32 1032.4 1040.33 1052.76 1073.46
4027.23 1074.29 1036.14 1080.47 1063.81
4030.14 1001.74 1047.03 1058.2 1076.71
4033.05 1065.07 1027.75 1091.45 1061.33
4035.96 1016.43 1033.3 1034.32 1061.88
4038.87 1018.41 1011.09 1059.87 1041.74
4041.78 998.438 1012.39 1031.03 1048.2
4044.69 1020.31 1009.59 1053.71 1039.52
4047.61 1010.01 1006.95 1033.82 1035.8
4050.52 990.524 1003.98 1019.86 1035.44
4053.43 1011.41 984.82 1052.65 1020.48
4056.34 952.523 987.642 988.944 1021.43
4059.25 998.99 986.978 1022.71 1015.89
4062.16 1009.42 977.324 1036.02 1003.22
4065.07 923.562 977.549 950.929 1007.62
4067.98 999.667 968.95 1035.93 998.252
4070.89 983.621 1002.08 1007.9 1034.17
4073.8 1022.95 1024.69 1058.68 1061.13
4076.71 1067.5 1069.08 1116.81 1103.32
4079.63 1116.8 1070.56 1134.48 1113
4082.54 1027.39 1059.64 1087.7 1100.24
4085.45 1034.71 1029.74 1078.55 1079.54
4088.36 1027.12 1029.65 1072.36 1072.74
4091.27 1027.12 1044.5 1067.32 1095.28
4094.18 1079.26 1051.33 1146.15 1091.21
4097.09 1047.6 1089.94 1060.15 1130.74
4100 1142.97 1111.99 1185.92 1142.62
4102.91 1145.39 1165.44 1181.79 1212.62
4105.82 1207.97 1186.44 1270.17 1232.87
4108.73 1205.96 1201.87 1246.66 1265.46
4111.64 1191.69 1222.95 1279.57 1295.34
4114.55 1271.22 1243.31 1359.8 1319.25
4117.46 1267.04 1288.91 1318.38 1355.38
4120.37 1328.48 1295.46 1387.95 1355.81
4123.28 1290.87 1307.16 1361.11 1373.93
4126.19 1302.12 1310.08 1372.73 1381.2
4129.1 1337.24 1329.29 1409.77 1398.17
4132.01 1348.51 1344.47 1412 1411.7
4134.92 1347.67 1361.21 1413.32 1439.75
4137.83 1387.46 1358.86 1493.93 1442.74
4140.74 1341.46 1402.99 1420.98 1483.08
4143.65 1480.05 1429.86 1534.32 1498.3
4146.56 1468.08 1472.01 1539.59 1545.16
4149.47 1467.91 1472.01 1561.57 1543.74
4152.38 1480.04 1469.82 1530.05 1537.26
4155.29 1461.5 1470.79 1520.14 1524.76
4158.2 1470.83 1505.66 1524.09 1562.29
4161.11 1584.65 1542.29 1642.63 1609.71
4164.02 1571.39 1576.03 1662.41 1664.64
4166.93 1572.04 1562.8 1688.87 1649.68
4169.84 1544.97 1532.98 1597.74 1614.66
4172.75 1481.93 1522.61 1557.37 1598.45
4175.66 1540.94 1544.05 1640.25 1621.39
4178.57 1609.28 1541.05 1666.55 1622.63
4181.48 1472.93 1547.35 1561.08 1617.11
4184.39 1559.86 1539.14 1623.7 1616.73
4187.3 1584.64 1572.2 1665.42 1648.86
4190.21 1572.09 1560.27 1657.45 1650.65
4193.12 1524.07 1534.65 1629.07 1615.89
4196.03 1507.81 1515.14 1561.16 1572.31
4198.94 1513.55 1509.88 1526.7 1550.27
4201.85 1508.27 1486.18 1562.96 1530.76
4204.76 1436.71 1473.52 1502.63 1539.93
4207.67 1475.58 1473.02 1554.2 1537.82
4210.58 1506.77 1496.11 1556.62 1579.82
4213.49 1505.97 1481.04 1628.64 1572.96
4216.4 1430.4 1467.97 1533.61 1562.52
4219.31 1467.54 1454.38 1525.32 1546.04
4222.21 1465.21 1469.23 1579.17 1554.74
4225.12 1474.94 1481.71 1559.72 1574.74
4228.03 1504.98 1478.7 1585.33 1552.57
4230.94 1456.18 1487.59 1512.67 1565.54
4233.85 1501.6 1445.44 1598.61 1520.72
4236.76 1378.54 1480.93 1450.87 1564.33
4239.67 1562.66 1467.98 1643.52 1549.69
4242.58 1462.72 1497.66 1554.69 1576.25
4245.49 1467.61 1451.98 1530.56 1528.85
4248.4 1425.61 1442.46 1501.3 1516.86
4251.3 1434.15 1455.77 1518.72 1530.67
4254.21 1507.54 1452.81 1571.98 1534.85
4257.12 1416.74 1475.63 1513.85 1540.55
4260.03 1502.62 1470.76 1535.81 1535.34
4262.94 1492.91 1483.51 1556.36 1542.07
4265.85 1455.01 1453.83 1534.03 1532.16
4268.76 1413.57 1449.1 1506.08 1524.13
4271.67 1478.71 1444.04 1532.27 1514.29
4274.57 1439.84 1426.66 1504.51 1482.86
4277.48 1361.44 1403.28 1411.8 1468.93
4280.39 1408.56 1388.38 1490.48 1472.68
4283.3 1395.12 1370.08 1515.77 1473.23
4286.21 1306.54 1359.36 1413.45 1475.49
4289.12 1376.43 1368.55 1497.26 1480.04
4292.02 1422.69 1403.1 1529.41 1503.14
4294.93 1410.17 1412.64 1482.76 1495.28
4297.84 1405.05 1402.62 1473.67 1468.39
4300.75 1392.64 1361.08 1448.73 1427.26
4303.66 1285.56 1306.32 1359.37 1382.05
4306.57 1240.77 1246.01 1338.05 1325.8
4309.47 1211.71 1223.48 1279.99 1302.47
4312.38 1217.97 1225.13 1289.36 1291.2
4315.29 1245.72 1225.98 1304.26 1300.8
4318.2 1214.26 1227.53 1308.79 1298.71
4321.11 1222.61 1227.78 1283.09 1306.27
4324.01 1246.47 1214.45 1326.94 1280.02
4326.92 1174.26 1199.25 1230.02 1272.26
4329.83 1177.01 1172.53 1259.8 1251.48
4332.74 1166.32 1153.58 1264.62 1235.37
4335.64 1117.42 1131.28 1181.69 1202.23
4338.55 1110.09 1099.42 1160.39 1164.74
4341.46 1070.76 1079.9 1152.15 1159.6
4344.37 1058.84 1092 1166.26 1173.04
4347.28 1146.41 1079.14 1200.7 1160.77
4350.18 1032.16 1085.15 1115.37 1146.77
4353.09 1076.87 1056.93 1124.24 1119.33
4356 1061.77 1081.8 1118.37 1140.51
4358.91 1106.75 1083.83 1178.9 1149.15
4361.81 1082.97 1070.61 1150.19 1148.46
4364.72 1022.12 1034.61 1116.3 1111.75
4367.63 998.728 1018.18 1068.75 1089.67
4370.53 1033.68 995.426 1083.95 1075.89
4373.44 953.869 1021.37 1074.98 1099.54
4376.35 1076.55 1010.7 1139.69 1097.67
4379.26 1001.69 1020.45 1078.34 1087.76
4382.16 983.123 1017.72 1045.25 1090.19
4385.07 1068.36 1017.11 1146.97 1078.31
4387.98 999.842 1017.87 1042.72 1076.95
4390.88 985.417 997.247 1041.16 1063.19
4393.79 1006.48 1040.26 1105.69 1102.82
4396.7 1128.89 1074.85 1161.61 1141.59
4399.6 1089.18 1105.05 1157.47 1178.03
4402.51 1097.09 1097.32 1215.02 1173.27
4405.42 1105.69 1091.02 1147.33 1166.44
4408.32 1070.29 1087.54 1136.98 1161.2
4411.23 1086.65 1080.24 1199.3 1162.94
4414.14 1083.78 1103.5 1152.55 1200.61
4417.04 1140.07 1106.12 1249.98 1200.58
4419.95 1094.53 1108.29 1199.21 1206.51
4422.86 1090.28 1117.73 1170.33 1197.98
4425.76 1168.39 1165.69 1224.41 1247.8
4428.67 1238.39 1202.88 1348.65 1296.53
4431.58 1201.86 1237.36 1316.54 1360.18
4434.48 1271.85 1238.81 1415.35 1362.4
4437.39 1242.73 1270.26 1355.31 1396.48
4440.3 1296.21 1290.17 1418.77 1416.98
4443.2 1331.58 1310.95 1476.86 1437.82
4446.11 1305.07 1302.21 1417.84 1436.72
4449.01 1269.99 1304.82 1415.44 1434.29
4451.92 1339.41 1309.64 1469.57 1455.28
4454.83 1319.52 1340.55 1480.83 1483.21
4457.73 1362.71 1333.21 1499.23 1471.7
4460.64 1317.39 1335.31 1435.05 1455.6
4463.54 1325.84 1341.17 1432.52 1460.08
4466.45 1380.28 1363.64 1512.68 1474.11
4469.36 1384.8 1407.39 1477.13 1517.6
4472.26 1457.09 1408.35 1562.98 1510.22
4475.17 1383.15 1405.58 1490.56 1514.34
4478.07 1376.48 1351.17 1489.48 1459.02
4480.98 1293.88 1330.02 1397.01 1437.4
4483.88 1319.69 1324.46 1425.71 1429.07
4486.79 1359.82 1346.72 1464.5 1453.59
4489.69 1360.64 1373.3 1470.56 1484.96
4492.6 1399.44 1358.26 1519.83 1475.71
4495.51 1314.71 1344.04 1436.73 1461.08
4498.41 1317.99 1323.57 1426.68 1429.19
4501.32 1338.02 1310.57 1424.17 1419.41
4504.22 1275.69 1317.41 1407.37 1428.7
4507.13 1338.53 1310.93 1454.57 1427.38
4510.03 1318.56 1313.66 1420.21 1421.89
4512.94 1283.88 1289.28 1390.9 1415.65
4515.84 1265.4 1297.64 1435.84 1450.45
4518.75 1343.63 1288.86 1524.61 1447.02
4521.65 1257.56 1313.4 1380.61 1449.86
4524.56 1339.03 1337.15 1444.37 1446.49
4527.46 1414.87 1388.82 1514.5 1506.09
4530.37 1412.57 1412.19 1559.4 1543.52
4533.27 1409.12 1414.12 1556.66 1559.07
4536.18 1420.65 1425.4 1561.16 1567.47
4539.08 1446.42 1429.22 1584.6 1561.3
4541.98 1420.59 1453.99 1538.15 1589.91
4544.89 1494.96 1465.72 1646.98 1608.7
4547.79 1481.61 1492.51 1640.97 1641.37
4550.7 1500.95 1508.78 1636.15 1657.13
4553.6 1543.77 1527.45 1694.28 1672.12
4556.51 1537.62 1536.85 1685.93 1677.24
4559.41 1529.17 1544.67 1651.52 1679.55
4562.32 1567.23 1579.74 1701.2 1706.29
4565.22 1642.84 1604.84 1766.16 1734.52
4568.12 1604.47 1605.54 1736.18 1738.91
4571.03 1569.31 1619.14 1714.39 1764.31
4573.93 1683.64 1605.33 1842.37 1767.65
4576.84 1563.04 1637.36 1746.19 1800.37
4579.74 1665.4 1611.78 1812.54 1782.78
4582.64 1606.91 1634.8 1789.62 1804.86
4585.55 1632.09 1650.15 1812.41 1813.46
4588.45 1711.45 1673.29 1838.35 1836.84
4591.35 1676.34 1697.13 1859.75 1861.95
4594.26 1703.59 1700.97 1887.76 1877.86
4597.16 1722.99 1729.68 1886.07 1898.78
4600.07 1762.46 1759.18 1922.52 1926.8
4602.97 1792.08 1783.74 1971.81 1946.48
4605.87 1796.67 1794.09 1945.1 1939.21
4608.78 1793.53 1784.22 1900.72 1921.19
4611.68 1762.45 1758.51 1917.74 1892.65
4614.58 1719.55 1738.8 1859.47 1892.89
4617.49 1734.4 1743.47 1901.47 1889.6
4620.39 1776.48 1764.87 1907.85 1920.61
4623.29 1783.72 1791.71 1952.52 1956.7
4626.2 1814.94 1802.75 2009.72 1963.12
4629.1 1809.58 1815.8 1927.14 1977
4632 1822.88 1800.29 1994.14 1954.88
4634.9 1768.4 1783.08 1943.36 1963.53
4637.81 1757.95 1777.08 1953.09 1939.98
4640.71 1804.87 1805.5 1923.48 1965.87
4643.61 1853.68 1801.65 2021.04 1957.61
4646.52 1746.41 1788.64 1928.31 1970.46
4649.42 1765.83 1751.07 1962.01 1921.12
4652.32 1740.98 1734.42 1873.03 1888.9
4655.22 1696.46 1734.63 1831.67 1874.71
4658.13 1766.46 1754.97 1919.42 1908.5
4661.03 1802 1786.78 1974.42 1956.97
4663.93 1791.86 1804.02 1977.07 1981.57
4666.83 1818.19 1797.69 1993.23 1963.06
4669.74 1783.01 1799.72 1918.89 1961.15
4672.64 1797.95 1796.01 1971.32 1941.83
4675.54 1807.07 1841.88 1935.28 1993.87
4678.44 1920.61 1876.54 2075 2012.54
4681.35 1901.95 1867.41 2027.33 2004.63
4684.25 1779.67 1823.79 1911.57 1964.84
4687.15 1789.74 1787.53 1955.62 1946.56
4690.05 1793.17 1811.59 1972.48 2001.47
4692.95 1851.86 1811.58 2076.3 1998.68
4695.85 1789.7 1820.31 1947.25 2010.82
4698.76 1819.38 1765.68 2008.91 1952.57
4701.66 1687.95 1772.19 1901.56 1965.42
4704.56 1809.25 1728.12 1985.8 1920.57
4707.46 1687.15 1740.1 1874.34 1910.94
4710.36 1723.9 1715.2 1872.68 1869.55
4713.26 1734.54 1697.76 1861.63 1852.43
4716.17 1634.84 1710.8 1822.99 1863.19
4719.07 1763.01 1664.43 1904.95 1830.67
4721.97 1595.45 1660.13 1764.05 1807.29
4724.87 1621.95 1615.91 1752.86 1769.11
4727.77 1630.35 1609.97 1790.42 1766.98
4730.67 1577.6 1571.07 1757.67 1728.65
4733.57 1505.26 1546.59 1637.84 1708.57
4736.47 1556.93 1538.96 1730.2 1688.6
4739.38 1554.69 1557.87 1697.75 1707.59
4742.28 1562 1561.28 1694.82 1699.89
4745.18 1567.14 1574.81 1707.08 1721.69
4748.08 1595.3 1568.38 1763.18 1702.59
4750.98 1542.7 1562.51 1637.51 1687.67
4753.88 1549.54 1516.43 1662.33 1644.64
4756.78 1457.05 1496.08 1634.09 1644.41
4759.68 1481.66 1489.27 1636.8 1661.78
4762.58 1529.1 1500.83 1714.44 1655.62
4765.48 1491.74 1519.99 1615.61 1673.64
4768.38 1539.12 1520.07 1690.86 1657.85
4771.28 1529.36 1534.28 1667.08 1685.89
4774.18 1534.37 1535.63 1699.74 1681.93
4777.08 1543.16 1518.85 1678.99 1662.08
4779.98 1479.03 1506.04 1607.52 1646.71
4782.88 1495.95 1468.02 1653.62 1614.53
4785.78 1429.07 1490.98 1582.46 1643.65
4788.68 1547.92 1501.99 1694.89 1654.4
4791.58 1528.97 1519.92 1685.85 1661.45
4794.48 1482.86 1485.49 1603.62 1638.45
4797.38 1444.64 1477.46 1625.88 1622.7
4800.28 1504.89 1448.25 1638.59 1603.39
4803.18 1395.23 1460.52 1545.68 1611.64
4806.08 1481.45 1449.02 1650.63 1596.68
4808.98 1470.37 1464.16 1593.72 1613.91
4811.88 1440.65 1458.82 1597.39 1613.53
4814.78 1465.44 1452.14 1649.48 1608.83
4817.68 1450.32 1442.02 1579.63 1599.67
4820.58 1410.29 1442.17 1569.89 1586.31
4823.48 1465.9 1451.33 1609.42 1605.35
4826.38 1477.79 1424.22 1636.73 1570.91
4829.28 1328.98 1386.65 1466.58 1539.85
4832.18 1353.19 1345.44 1516.25 1505.93
4835.08 1354.14 1352.52 1534.97 1526.47
4837.97 1350.23 1352.69 1528.19 1520
4840.87 1353.69 1414.61 1496.83 1561.7
4843.77 1539.89 1410.24 1660.08 1553.8
4846.67 1337.14 1436.56 1504.48 1584.96
4849.57 1432.64 1392.37 1590.32 1556.59
4852.47 1407.34 1381.35 1574.98 1555.19
4855.37 1304.07 1366.84 1500.26 1544.96
4858.27 1389.12 1345.31 1559.63 1528.54
4861.16 1342.75 1363.06 1525.72 1543.02
4864.06 1357.3 1358.35 1543.72 1553.33
4866.96 1375 1369.44 1590.55 1566.37
4869.86 1376.02 1382.16 1564.83 1551.4
4872.76 1395.45 1383.15 1498.83 1534.77
4875.65 1377.97 1398.4 1540.66 1550.86
4878.55 1421.79 1392.61 1613.1 1591.72
4881.45 1378.08 1374.99 1621.41 1572.69
4884.35 1325.1 1314.01 1483.55 1509.94
4887.25 1238.85 1314.81 1424.86 1485.97
4890.14 1380.49 1340.98 1549.5 1527.56
4893.04 1403.61 1391.62 1608.31 1566.06
4895.94 1390.76 1362.04 1540.36 1545.7
4898.84 1291.74 1335.05 1488.43 1504.8
4901.74 1322.66 1292.51 1485.62 1470.29
4904.63 1263.13 1297.21 1436.82 1451.79
4907.53 1305.83 1283.96 1432.92 1434.53
4910.43 1282.91 1248.97 1433.85 1395.11
4913.32 1158.17 1232.78 1318.57 1389.96
4916.22 1257.28 1241.05 1417.45 1383.48
4919.12 1307.7 1255.07 1414.41 1386.05
4922.02 1200.24 1208.58 1326.3 1335.8
4924.91 1117.81 1129.19 1266.69 1258.73
4927.81 1069.51 1115.77 1183.2 1241.83
4930.71 1159.99 1083.79 1275.58 1212.78
4933.6 1021.87 1135.75 1179.54 1261.74
4936.5 1225.4 1119.58 1330.09 1239.16
4939.4 1111.47 1123.9 1207.85 1235.95
4942.29 1034.82 1071.81 1169.91 1171.78
4945.19 1069.15 1045.5 1137.58 1136.87
4948.09 1032.52 1068.69 1103.13 1150.4
4950.98 1104.41 1063.42 1210.49 1161.81
4953.88 1053.34 1054.03 1171.81 1157.8
4956.78 1004.35 1035.98 1091.1 1129.94
4959.67 1050.25 1038.89 1126.91 1122.54
4962.57 1062.05 1072.5 1149.59 1147.22
4965.47 1105.19 1085.05 1165.16 1170.23
4968.36 1087.91 1102.72 1195.94 1191.46
4971.26 1115.05 1139.88 1213.29 1233.68
4974.15 1216.7 1158.79 1291.82 1243.07
4977.05 1144.64 1156.44 1224.09 1230.41
4979.94 1107.98 1129.62 1175.31 1212.98
4982.84 1136.24 1134.63 1239.55 1216.01
4985.74 1159.66 1158.73 1233.16 1249.58
4988.63 1180.28 1158 1276.02 1241.66
4991.53 1134.07 1152.7 1215.8 1243.86
4994.42 1143.74 1140.61 1239.76 1228.93
4997.32 1144.01 1145.34 1231.22 1238.91
5000.21 1148.27 1149.06 1245.74 1238.37
5003.11 1154.9 1177.45 1238.14 1279.77
5006 1229.18 1189.28 1355.42 1288.38
5008.9 1183.75 1223.56 1271.6 1328.8
5011.79 1257.74 1236.81 1359.39 1336.48
5014.69 1268.93 1280.54 1378.44 1377.86
5017.58 1314.96 1292 1395.75 1390.1
5020.48 1292.11 1282.34 1396.11 1381.28
5023.37 1239.95 1289.32 1351.99 1396.11
5026.27 1335.9 1288.46 1440.22 1387.28
5029.16 1289.53 1310.27 1369.62 1408.61
5032.06 1305.39 1323.05 1415.97 1440.94
5034.95 1374.22 1342.68 1537.22 1469.37
5037.85 1348.44 1361.28 1454.93 1492.05
5040.74 1361.18 1368.02 1484.01 1476.92
5043.63 1394.45 1383.17 1491.82 1508.61
5046.53 1393.86 1382.42 1549.99 1509.84
5049.42 1358.95 1393.86 1487.7 1545.8
5052.32 1428.77 1359.65 1599.7 1498.92
5055.21 1291.21 1376.76 1409.36 1523.56
5058.1 1410.29 1334.44 1561.62 1467.3
5061 1301.81 1376.93 1430.92 1534.36
5063.89 1418.69 1387.59 1610.55 1554.4
5066.79 1442.26 1419.68 1621.73 1591.35
5069.68 1398.08 1404.87 1541.79 1569.85
5072.57 1374.27 1399.77 1546.04 1555.11
5075.47 1426.96 1390.87 1577.5 1549.29
5078.36 1371.38 1410.91 1524.34 1574.59
5081.25 1434.39 1396.1 1621.94 1572.09
5084.15 1382.54 1392.16 1570 1583.25
5087.04 1359.55 1368.02 1557.82 1566.99
5089.93 1361.96 1395.92 1573.16 1605.59
5092.82 1466.25 1388.86 1685.79 1597.91
5095.72 1338.36 1389.89 1534.78 1612.54
5098.61 1365.06 1368.53 1617.05 1595.1
5101.5 1402.18 1415.73 1633.47 1633.64
5104.4 1479.96 1441.66 1650.39 1632.41
5107.29 1442.84 1460.58 1613.37 1642.15
5110.18 1458.95 1435.2 1662.68 1617.87
5113.07 1403.8 1435.37 1577.56 1639.58
5115.97 1443.34 1451.15 1678.5 1658.18
5118.86 1506.29 1477.69 1718.47 1693.74
5121.75 1483.43 1508.99 1684.26 1729.57
5124.64 1537.24 1516.85 1785.97 1727.43
5127.54 1529.87 1510.04 1712.05 1738.21
5130.43 1463 1487.11 1716.62 1693.33
5133.32 1468.47 1475.8 1651.33 1714.54
5136.21 1495.95 1491.45 1775.67 1737.5
5139.1 1509.94 1499.79 1785.5 1773.66
5141.99 1493.48 1484.66 1759.82 1732.76
5144.89 1450.56 1470.55 1652.95 1724.25
5147.78 1467.62 1483.35 1759.97 1717.41
5150.67 1531.87 1522.47 1739.32 1774.52
5153.56 1567.92 1561.21 1824.27 1780.53
5156.45 1583.85 1624.48 1777.99 1859.19
5159.34 1721.66 1643.58 1975.3 1872.19
5162.23 1625.24 1657.21 1863.28 1899.27
5165.13 1624.74 1595.92 1859.23 1825.57
5168.02 1537.78 1593.96 1754.2 1828.75
5170.91 1619.36 1588.11 1872.82 1833.07
5173.8 1607.2 1593.5 1872.19 1858.34
5176.69 1553.93 1605.55 1830.02 1873.28
5179.58 1655.51 1593.27 1917.63 1850.39
5182.47 1570.36 1623.81 1803.53 1870.64
5185.36 1645.57 1625.12 1890.77 1880.15
5188.25 1659.43 1678.82 1946.16 1935.3
5191.14 1731.47 1672.05 1968.98 1937.15
5194.03 1625.25 1677.84 1896.29 1925.69
5196.92 1676.79 1647.88 1911.79 1909.42
5199.81 1641.6 1675.62 1920.17 1938.9
5202.7 1708.48 1668.79 1984.74 1950.81
5205.59 1656.29 1667.69 1947.53 1946.78
5208.48 1638.31 1644.99 1908.06 1910.31
5211.37 1640.37 1657.15 1875.33 1904.59
5214.26 1692.77 1681.73 1930.39 1915.31
5217.15 1712.05 1667.46 1940.2 1903.62
5220.04 1597.56 1629.49 1840.28 1877.52
5222.93 1578.85 1617.43 1852.08 1870.52
5225.82 1675.87 1607.98 1919.21 1871.33
5228.71 1569.21 1633.93 1842.7 1881.22
5231.6 1656.72 1626.61 1881.74 1873.18
5234.49 1653.91 1662.09 1895.09 1892.02
5237.38 1675.65 1665.01 1899.24 1901.03
5240.27 1665.48 1627.4 1908.77 1873.62
5243.16 1541.08 1579.4 1812.85 1841.06
5246.04 1531.64 1532.28 1801.56 1805.09
5248.93 1524.12 1505.54 1800.85 1793.41
5251.82 1460.85 1522.65 1777.82 1818.81
5254.71 1582.98 1535.99 1877.77 1840.71
5257.6 1564.13 1557.45 1866.53 1858.19
5260.49 1525.26 1559.94 1830.27 1879.37
5263.38 1590.42 1580.77 1941.32 1893.68
5266.26 1626.62 1582.03 1909.45 1882.23
5269.15 1529.06 1568.56 1795.9 1874.27
5272.04 1550.01 1515.3 1917.45 1821.12
5274.93 1466.83 1538.81 1750.02 1847.48
5277.82 1599.6 1545.98 1874.97 1838.66
5280.71 1571.5 1548.63 1891 1862.27
5283.59 1474.78 1543.51 1820.83 1851.62
5286.48 1584.25 1550.33 1843.05 1843.96
5289.37 1591.97 1570.93 1868.01 1837.72
5292.26 1536.57 1559.31 1802.09 1830.9
5295.14 1549.38 1562.05 1822.6 1844.91
5298.03 1600.21 1567.36 1910.04 1858.74
5300.92 1552.48 1547.8 1843.58 1850.48
5303.81 1490.72 1499.22 1797.82 1788.84
5306.69 1454.46 1493.65 1725.13 1783.3
5309.58 1535.76 1513.86 1826.95 1781.68
5312.47 1551.36 1510.59 1792.95 1775.7
5315.35 1444.65 1478.24 1707.22 1744.63
5318.24 1438.71 1415.92 1733.72 1703.13
5321.13 1364.4 1367.07 1668.47 1654.53
5324.01 1298.09 1325.68 1561.39 1589.45
5326.9 1314.55 1300.6 1538.48 1547.21
5329.79 1289.15 1310.64 1541.75 1551.82
5332.67 1328.23 1295.31 1575.21 1551.14
5335.56 1268.57 1272.31 1536.46 1522.52
5338.45 1220.13 1242.66 1455.88 1482.23
5341.33 1239.27 1220.09 1454.37 1434.88
5344.22 1200.86 1215.38 1394.39 1418.97
5347.1 1206 1213.71 1408.17 1416.93
5349.99 1234.28 1243.85 1448.23 1452.9
5352.88 1291.27 1240.85 1502.31 1449.78
5355.76 1197.01 1238.52 1398.79 1439.52
5358.65 1227.27 1192.85 1417.46 1388.73
5361.53 1154.28 1170.5 1349.94 1352.74
5364.42 1129.96 1122.1 1290.81 1313.56
5367.3 1082.06 1107.39 1299.93 1289.53
5370.19 1110.14 1119.64 1277.86 1317.36
5373.07 1166.73 1146.49 1374.28 1338.87
5375.96 1162.59 1154.88 1364.48 1354.36
5378.84 1135.32 1176.62 1324.34 1361.19
5381.73 1231.94 1200.36 1394.75 1368.45
5384.61 1233.81 1221.5 1386.26 1378
5387.5 1198.75 1204.38 1352.99 1357.4
5390.38 1180.58 1195.91 1332.96 1344.15
5393.27 1208.4 1181.52 1346.51 1338.86
5396.15 1155.58 1143.03 1337.12 1310.28
5399.04 1065.11 1145.69 1247.22 1319.64
5401.92 1216.37 1159.8 1374.59 1335.23
5404.81 1197.91 1242.3 1383.87 1407.1
5407.69 1312.63 1221.65 1462.83 1378.5
5410.57 1154.41 1220.32 1288.8 1357.07
5413.46 1193.93 1176.72 1319.59 1299.19
5416.34 1181.81 1196.42 1289.19 1299.74
5419.23 1213.53 1170.5 1290.43 1284.1
5422.11 1116.17 1178.33 1272.68 1302.98
5424.99 1205.29 1201.59 1345.82 1347.33
5427.88 1283.32 1254.84 1423.48 1392.24
5430.76 1275.9 1239.02 1407.43 1372.98
5433.64 1157.85 1218.03 1288.02 1355.39
5436.53 1220.32 1216.13 1370.72 1351.6
5439.41 1270.23 1248.34 1396.07 1381.08
5442.29 1254.47 1279.08 1376.44 1400.91
5445.18 1312.54 1308.26 1430.23 1432.94
5448.06 1357.75 1326.12 1492.16 1454.06
5450.94 1308.07 1312.92 1439.8 1435.53
5453.82 1272.94 1295.97 1374.63 1414.1
5456.71 1306.92 1268.29 1427.87 1390.28
5459.59 1225.01 1295.1 1368.32 1431.88
5462.47 1353.37 1297.58 1499.44 1443.19
5465.35 1314.35 1319.96 1461.8 1460.84
5468.24 1292.15 1300.5 1421.27 1456.59
5471.12 1294.99 1315.93 1486.71 1457.07
5474 1360.65 1302.95 1463.25 1448.72
5476.88 1253.2 1307.56 1396.2 1419.12
5479.76 1308.82 1306.19 1397.93 1429.61
5482.65 1356.55 1347.41 1494.71 1467.04
5485.53 1376.86 1345.34 1508.5 1476.73
5488.41 1302.62 1338.31 1426.98 1467.57
5491.29 1335.45 1287.57 1467.24 1400.86
5494.17 1224.66 1322.63 1308.36 1432.81
5497.05 1407.77 1283.72 1522.84 1389.33
5499.94 1218.74 1277.23 1336.8 1382.02
5502.82 1205.18 1200.61 1286.43 1307.85
5505.7 1177.92 1223.14 1300.32 1309.44
5508.58 1286.32 1213.43 1341.57 1301.59
5511.46 1176.04 1225.81 1262.89 1294.97
5514.34 1215.06 1224.68 1280.45 1313.6
5517.22 1282.93 1246.91 1397.45 1334.88
5520.1 1242.75 1211.88 1326.76 1306.47
5522.98 1109.96 1167.55 1195.2 1263.67
5525.86 1149.95 1139.83 1269.06 1218.43
5528.74 1159.59 1153.07 1191.03 1243.68
5531.62 1149.65 1177.03 1270.94 1258.9
5534.5 1221.85 1219.14 1314.74 1323.14
5537.38 1285.91 1227.68 1383.74 1317.61
5540.26 1175.28 1193.27 1254.36 1270.11
5543.14 1118.63 1144.22 1172.23 1209.95
5546.02 1138.75 1131.29 1203.28 1194.9
5548.9 1136.48 1128.53 1209.18 1212.64
5551.78 1110.35 1125.82 1225.45 1211.56
5554.66 1130.64 1124.68 1200.05 1217.39
5557.54 1133.06 1123.73 1226.68 1212.75
5560.42 1107.48 1128.84 1211.52 1242.47
5563.3 1145.99 1126.33 1289.21 1271.44
5566.18 1125.53 1153.81 1313.6 1284.27
5569.06 1189.92 1178.03 1249.99 1263.46
5571.94 1218.63 1242.52 1226.79 1249.4
5574.81 1319 1262.43 1271.41 1214.53
5577.69 1249.66 1260.67 1145.38 1231.52
5580.57 1213.35 1227.13 1277.75 1231.72
5583.45 1218.36 1206.59 1272.01 1286.39
5586.33 1188.06 1224.99 1309.42 1340.99
5589.21 1268.54 1234.52 1441.54 1363.26
5592.09 1246.95 1228.74 1338.81 1377.12
5594.96 1170.73 1226.41 1351.03 1357.7
5597.84 1261.55 1216.6 1383.27 1349.66
5600.72 1217.53 1289.95 1314.69 1418.12
5603.6 1390.77 1329.13 1556.39 1454.14
5606.47 1379.08 1340.43 1491.33 1483.64
5609.35 1251.45 1336.67 1403.21 1461.67
5612.23 1379.47 1336.14 1490.47 1452.94
5615.11 1377.49 1394.97 1465.13 1510.42
5617.98 1427.96 1402.99 1575.64 1521.56
5620.86 1403.52 1418.05 1523.89 1552.06
5623.74 1422.68 1425.01 1556.63 1551.37
5626.62 1448.82 1456.69 1573.58 1587.17
5629.49 1498.56 1437.38 1631.3 1570.8
5632.37 1364.76 1445.42 1507.53 1587.35
5635.25 1472.93 1440.09 1623.22 1597.47
5638.12 1482.57 1454.14 1661.65 1610.5
5641 1406.92 1429.02 1546.62 1578.45
5643.88 1397.56 1442.3 1527.07 1576.51
5646.75 1522.43 1440.98 1655.85 1567.51
5649.63 1402.94 1458.32 1519.62 1598.58
5652.5 1449.58 1425.68 1620.26 1591.9
5655.38 1424.52 1440.8 1635.82 1600.63
5658.26 1448.29 1468.43 1545.82 1616.1
5661.13 1532.47 1490.67 1666.67 1616.4
5664.01 1491.25 1481.5 1636.71 1642.48
5666.88 1420.79 1428.53 1624.07 1610.03
5669.76 1373.54 1412.29 1569.31 1585.45
5672.63 1442.53 1418.69 1562.98 1560.43
5675.51 1439.99 1448.99 1548.98 1582.69
5678.39 1464.46 1455.68 1636.1 1596.35
5681.26 1462.61 1473.37 1603.98 1620.34
5684.14 1493.04 1494.17 1620.95 1653.14
5687.01 1526.84 1531.49 1734.5 1715.55
5689.88 1574.59 1506.53 1791.19 1702.99
5692.76 1418.14 1498.2 1583.27 1681.05
5695.63 1501.88 1496.2 1668.68 1634.22
5698.51 1568.58 1497.37 1650.72 1634.56
5701.38 1421.67 1482.28 1584.28 1618.14
5704.26 1456.58 1465.09 1619.4 1609.3
5707.13 1517.03 1500.47 1624.21 1643.4
5710.01 1527.79 1540.62 1686.61 1669.81
5712.88 1577.04 1533.89 1698.63 1677.66
5715.75 1496.84 1536.99 1647.74 1678.99
5718.63 1537.08 1495.69 1690.59 1652.92
5721.5 1453.15 1491.05 1620.43 1649.61
5724.37 1482.92 1484.02 1637.82 1648.52
5727.25 1515.98 1500.68 1687.32 1666.29
5730.12 1503.15 1525.12 1673.74 1685.02
5732.99 1556.25 1512.88 1693.99 1685.65
5735.87 1479.24 1495.74 1689.23 1654.34
5738.74 1451.75 1458.53 1579.79 1604.97
5741.61 1444.59 1471.41 1545.88 1583.57
5744.49 1517.89 1493.83 1625.02 1595.63
5747.36 1519 1510.41 1615.99 1630.73
5750.23 1494.33 1515.13 1651.19 1662.78
5753.1 1532.04 1511.29 1721.15 1671.95
5755.98 1507.49 1484.59 1643.5 1648.28
5758.85 1414.24 1472.51 1580.19 1616.05
5761.72 1495.82 1495.42 1624.44 1647.73
5764.59 1576.2 1541.67 1738.57 1682.61
5767.46 1553 1534.98 1684.82 1684
5770.34 1475.72 1524.91 1628.61 1664.46
5773.21 1546.01 1511.23 1679.96 1652.26
5776.08 1511.95 1531.27 1648.21 1680.83
5778.95 1535.85 1531.51 1714.31 1689.83
5781.82 1546.72 1533.85 1706.97 1692.25
5784.69 1518.97 1520.31 1655.46 1659.68
5787.57 1495.24 1506.39 1616.61 1633.15
5790.44 1504.97 1472.64 1627.38 1587.32
5793.31 1417.72 1484.5 1517.98 1606.83
5796.18 1530.8 1483.06 1675.12 1612.11
5799.05 1500.64 1491.33 1643.22 1653.53
5801.92 1442.54 1472.3 1642.25 1629.67
5804.79 1473.71 1468.54 1603.53 1622.17
5807.66 1489.38 1468.84 1620.73 1607.31
5810.53 1443.43 1431.97 1597.68 1571.35
5813.4 1363.09 1404.03 1495.64 1548.91
5816.27 1405.58 1373.48 1553.41 1498.98
5819.14 1351.78 1401.68 1447.88 1531.65
5822.01 1447.68 1406.29 1593.65 1530.96
5824.88 1419.4 1426.62 1551.34 1554.97
5827.75 1412.77 1437.62 1519.92 1553.41
5830.62 1480.69 1420.21 1588.98 1524.98
5833.49 1367.17 1407.38 1466.05 1505.24
5836.36 1374.27 1384.08 1460.68 1472.44
5839.23 1410.8 1394.87 1490.6 1468.26
5842.1 1399.55 1367.31 1453.49 1441.45
5844.97 1291.58 1360.99 1380.26 1445.5
5847.84 1391.83 1364.42 1502.74 1456.73
5850.7 1409.86 1402.89 1487.19 1501.48
5853.57 1406.98 1361.84 1514.5 1447.95
5856.44 1268.68 1327.01 1342.15 1408.76
5859.31 1305.36 1299.66 1369.64 1364.52
5862.18 1324.95 1331.35 1381.77 1400.98
5865.05 1363.75 1338 1451.52 1424.09
5867.91 1325.28 1340.76 1438.97 1433.73
5870.78 1333.25 1349.45 1410.68 1463.1
5873.65 1389.81 1391 1539.65 1518.88
5876.52 1449.95 1406.41 1606.31 1551.42
5879.39 1379.47 1453.58 1508.31 1584.77
5882.25 1531.32 1426.61 1639.69 1543.18
5885.12 1369.03 1389.14 1481.54 1492.66
5887.99 1267.07 1317.72 1356.74 1424.15
5890.86 1317.06 1286.89 1434.15 1380.99
5893.72 1276.55 1286.43 1352.08 1391.33
5896.59 1265.69 1318.62 1387.74 1418.23
5899.46 1413.62 1342.07 1514.86 1458.26
5902.32 1346.9 1368.42 1472.18 1472.28
5905.19 1344.73 1324.33 1429.8 1444.14
5908.06 1281.37 1319.58 1430.43 1434.25
5910.92 1332.65 1312.62 1442.52 1420.19
5913.79 1323.85 1366.15 1387.6 1461.99
5916.66 1441.97 1375.67 1555.84 1450.32
5919.52 1361.21 1424.15 1407.53 1519.55
5922.39 1469.26 1407.11 1595.28 1511.62
5925.25 1390.85 1372.42 1532.06 1504.54
5928.12 1257.14 1367.37 1386.28 1491.93
5930.99 1454.11 1357.93 1557.45 1486.32
5933.85 1362.54 1406.39 1515.22 1513.46
5936.72 1402.52 1390.67 1467.7 1504.09
5939.58 1406.94 1405.08 1529.36 1494.72
5942.45 1405.79 1429.33 1487.1 1544.2
5945.31 1475.25 1414.65 1616.14 1525.25
5948.18 1362.92 1446.33 1472.51 1564.71
5951.04 1500.83 1466.99 1605.49 1581.37
5953.91 1537.23 1477.81 1666.1 1604.06
5956.77 1395.35 1450.1 1540.59 1577.85
5959.64 1417.7 1398.93 1526.85 1546.23
5962.5 1383.75 1387.49 1571.25 1531.96
5965.36 1361.02 1420.14 1497.76 1572.61
5968.23 1515.65 1427.69 1648.83 1556.33
5971.09 1406.42 1470.33 1522.41 1593.96
5973.96 1488.91 1411.82 1610.64 1524.35
5976.82 1340.14 1415.61 1440 1526.71
5979.68 1417.77 1373.73 1529.49 1484.36
5982.55 1363.29 1398.53 1483.6 1513.05
5985.41 1414.53 1399.9 1526.06 1512.67
5988.27 1421.88 1418.39 1528.34 1537.31
5991.14 1418.76 1437.01 1557.52 1539.88
5994 1470.39 1456.99 1533.77 1546.49
5996.86 1481.83 1476.02 1548.19 1556.45
5999.73 1475.84 1460.33 1587.38 1555.25
6002.59 1423.32 1456.47 1530.16 1569.95
6005.45 1470.25 1455.05 1592.29 1558.35
6008.31 1471.58 1477.32 1552.59 1586.17
6011.18 1490.12 1452.07 1613.62 1568.82
6014.04 1394.52 1458.78 1540.25 1611.76
6016.9 1491.69 1431.28 1681.41 1587.52
6019.76 1407.63 1454.06 1540.89 1602.8
6022.62 1462.85 1439.85 1586.1 1559.41
6025.49 1449.07 1466.08 1551.25 1583.02
6028.35 1486.33 1455.21 1611.72 1573.26
6031.21 1430.22 1485.98 1556.79 1605.08
6034.07 1541.4 1460.41 1646.73 1572.56
6036.93 1409.62 1448.74 1514.17 1557.19
6039.79 1395.2 1397.23 1510.67 1502
6042.65 1386.87 1395.33 1481.17 1517.23
6045.52 1403.93 1364.34 1559.87 1496.54
6048.38 1302.22 1390.98 1448.6 1530.73
6051.24 1466.8 1381.85 1583.71 1527.34
6054.1 1376.54 1401.75 1549.7 1531.33
6056.96 1361.91 1385.37 1460.58 1490.61
6059.82 1417.67 1382.13 1461.56 1454.08
6062.68 1366.8 1411.41 1440.09 1471.33
6065.54 1449.77 1393.38 1512.34 1470.74
6068.4 1363.59 1383.51 1459.8 1468.05
6071.26 1337.17 1367.2 1432.01 1449.38
6074.12 1400.85 1376.31 1456.33 1466.4
6076.98 1390.92 1375.61 1510.86 1446.83
6079.84 1335.05 1368.2 1373.31 1442.48
6082.7 1378.64 1348.46 1443.26 1396.09
6085.56 1331.7 1321.04 1371.71 1380.87
6088.41 1252.77 1264.2 1327.63 1334.43
6091.27 1208.12 1255.14 1303.95 1341.25
6094.13 1304.51 1266.37 1392.16 1353.99
6096.99 1286.48 1285.5 1365.85 1362.47
6099.85 1265.52 1250.57 1329.4 1303.62
6102.71 1199.71 1187.03 1215.61 1216.35
6105.57 1095.86 1175.87 1104.05 1194.45
6108.42 1232.04 1140.81 1263.68 1172.88
6111.28 1094.52 1122.74 1150.9 1171.46
6114.14 1041.67 1057.29 1099.79 1120.64
6117 1035.69 1052.07 1111.24 1100.35
6119.86 1078.85 1077.78 1090.03 1118.5
6122.71 1118.8 1067.24 1154.24 1106.03
6125.57 1004.08 1003.11 1073.83 1054.19
6128.43 886.436 971.454 934.511 1006.51
6131.29 1023.85 977.624 1011.2 976.722
6134.14 1022.59 1004.13 984.455 991.732
6137 965.942 998.676 979.541 968.906
6139.86 1007.5 947.431 942.72 945.949
6142.71 868.855 925.481 915.586 895.984
6145.57 900.093 863.893 829.647 866.805
6148.43 822.73 887.995 855.182 888.18
6151.28 941.162 879.062 979.711 908.05
6154.14 873.293 902.807 889.258 920.305
6157 893.964 863.16 891.947 874.729
6159.85 822.222 844.434 842.98 859.662
6162.71 817.116 806.084 844.06 813.432
6165.56 778.916 808.612 753.255 799.039
6168.42 829.803 775.886 799.803 745.253
6171.27 718.94 786.667 682.7 754.662
6174.13 811.258 761.145 781.483 734.087
6176.98 753.236 755.637 738.077 739.317
6179.84 702.416 754.329 698.391 721.579
6182.69 807.336 755.025 728.268 712.676
6185.55 755.324 769.529 711.37 707.337
6188.4 745.928 748.86 682.374 676.583
6191.26 745.328 731.827 636.005 651.949
6194.11 704.225 743.919 637.467 669.63
6196.97 782.206 737.644 735.419 692.101
6199.82 726.503 744.403 703.416 721.285
6202.68 724.502 711.363 725.02 710.095
6205.53 683.085 706.98 701.848 690.1
6208.38 713.353 674.964 643.433 623.669
6211.24 628.452 680.329 525.725 605.066
6214.09 699.18 665.381 646.039 597.008
6216.94 668.51 676.757 619.259 635.657
6219.8 662.582 651.328 641.674 624.449
6222.65 622.893 650.333 612.413 626.123
6225.5 665.524 660.123 624.281 619.023
6228.36 691.95 669.529 620.374 617.194
6231.21 651.114 665.652 606.926 604.096
6234.06 653.892 681.354 584.988 626.294
6236.91 739.055 694.335 686.967 627.547
6239.77 690.059 733.565 610.686 685.412
6242.62 771.58 711.438 758.585 679.148
6245.47 672.674 707.736 668.172 689.684
6248.32 678.953 692.064 642.293 678.619
6251.17 724.567 700.753 725.39 682.23
6254.03 698.739 727.767 679.006 700.444
6256.88 759.996 716.342 696.936 666.07
6259.73 690.29 716.566 622.267 652.788
6262.58 699.411 727.994 639.162 673.063
6265.43 794.282 747.861 757.759 702.532
6268.28 749.89 763.502 710.674 726.652
6271.13 746.335 733.786 711.524 692.11
6273.98 705.134 740.527 654.134 690.315
6276.83 770.113 747.213 705.286 696.541
6279.68 766.391 783.898 730.202 725.409
6282.54 815.189 800.108 740.74 763.408
6285.39 818.742 789.522 819.283 764.465
6288.24 734.635 775.667 733.374 791.467
6291.09 773.624 844.232 821.744 786.367
6293.94 1024.44 883.624 803.983 730.771
6296.78 852.812 928.676 566.586 663.257
6299.63 908.779 912.943 619.202 671.004
6302.48 977.239 833.893 827.223 686.552
6305.33 615.662 854.331 613.232 829.515
6308.18 970.091 874.587 1048.09 932.669
6311.03 1038.01 967.653 1136.68 1055.95
6313.88 894.86 941.291 983.069 1037.04
6316.73 891.005 932.756 991.361 1039.28
6319.58 1012.4 969.209 1143.4 1049.71
6322.43 1004.22 1001.44 1014.37 1039.87
6325.27 987.701 987.987 961.843 987.239
6328.12 972.041 985.98 985.508 992.809
6330.97 998.199 999.348 1031.07 1022.9
6333.82 1027.8 1019.05 1052.11 1043.74
6336.67 1031.15 1049.89 1048.04 1077.1
6339.51 1090.71 1067.08 1131.15 1098.45
6342.36 1079.37 1070.16 1116.17 1093.68
6345.21 1040.39 1055.44 1033.72 1076.21
6348.06 1046.57 1063.5 1078.74 1075.81
6350.9 1103.55 1090.34 1114.98 1130
6353.75 1120.89 1167.28 1196.27 1191.58
6356.6 1277.38 1173.13 1263.49 1195.65
6359.44 1121.12 1192.65 1127.21 1150.65
6362.29 1179.46 1144.55 1061.25 1087.83
6365.14 1133.07 1146.17 1075.04 1080.44
6367.98 1125.99 1094.44 1105.04 1082.38
6370.83 1024.25 1143.94 1067.05 1167.5
6373.67 1281.59 1182.91 1330.4 1255.59
6376.52 1242.89 1255.19 1369.32 1345.87
6379.37 1241.1 1232.57 1337.88 1321.11
6382.21 1213.72 1204.74 1256.13 1290.92
6385.06 1159.39 1147.9 1278.75 1211.37
6387.9 1070.6 1123.22 1099.23 1207.76
6390.75 1139.67 1113.98 1245.31 1187.56
6393.59 1131.67 1144.07 1218.13 1249.42
6396.44 1160.86 1152 1284.81 1247.86
6399.28 1163.48 1181.8 1240.64 1288.76
6402.13 1221.06 1193.63 1340.83 1307.74
6404.97 1196.34 1211.46 1341.75 1342.5
6407.82 1216.97 1203.74 1344.92 1339.97
6410.66 1197.89 1221.72 1333.25 1331.22
6413.5 1250.29 1208.64 1315.5 1326.4
6416.35 1177.74 1219.21 1330.45 1334.53
6419.19 1229.6 1207.07 1357.64 1348.39
6422.04 1213.88 1234.82 1357.09 1354.16
6424.88 1260.97 1257.82 1347.75 1372.62
6427.72 1298.62 1286.65 1413.01 1394.72
6430.57 1300.38 1277.02 1423.41 1370.23
6433.41 1232.07 1292.71 1274.29 1382.97
6436.25 1345.69 1259.8 1451.22 1344.22
6439.09 1201.64 1238.44 1307.17 1343.69
6441.94 1168 1215.71 1272.67 1316.11
6444.78 1277.48 1245.52 1368.49 1342.9
6447.62 1291.07 1280.31 1387.54 1359.61
6450.46 1272.38 1285.62 1322.79 1360.65
6453.31 1293.4 1285.63 1371.62 1354
6456.15 1291.1 1273.11 1367.59 1348.4
6458.99 1234.83 1257.73 1306.01 1358.24
6461.83 1247.27 1239.76 1401.14 1356.65
6464.67 1237.2 1239.55 1362.8 1350.95
6467.51 1234.19 1231.73 1288.92 1321.11
6470.36 1223.8 1258.85 1311.61 1299.74
6473.2 1318.56 1251.77 1298.7 1297.62
6476.04 1212.96 1274.37 1282.53 1320.44
6478.88 1291.6 1245 1380.08 1319.05
6481.72 1230.44 1276.21 1294.54 1361.94
6484.56 1306.58 1242.32 1411.18 1338.24
6487.4 1189.93 1229.13 1309 1344
6490.24 1190.89 1242.39 1311.8 1341.19
6493.08 1346.36 1274.67 1402.77 1350.6
6495.92 1286.76 1321.93 1337.24 1386.13
6498.76 1332.66 1311.72 1418.39 1395.44
6501.6 1315.73 1318.72 1430.69 1424.87
6504.44 1307.77 1289.85 1425.53 1400.23
6507.28 1246.07 1245.99 1344.48 1344.14
6510.12 1184.14 1248.91 1262.4 1341.36
6512.96 1316.51 1241.2 1417.21 1329.83
6515.79 1222.97 1266.4 1309.89 1353.81
6518.63 1259.72 1235.07 1334.33 1329.97
6521.47 1222.52 1245.79 1345.68 1340.91
6524.31 1255.13 1238.33 1342.71 1329.51
6527.15 1237.33 1255.44 1300.13 1337.54
6529.99 1273.87 1242.18 1369.79 1325.68
6532.82 1215.35 1231.87 1307.11 1326.4
6535.66 1206.38 1225.84 1302.31 1326.53
6538.5 1255.8 1245.67 1370.15 1352.82
6541.34 1274.85 1231.43 1386 1339.01
6544.18 1163.66 1215.46 1260.89 1329.3
6547.01 1207.88 1175.86 1341 1305.27
6549.85 1156.03 1190.91 1313.94 1336.32
6552.69 1208.83 1168.19 1354.04 1292.46
6555.52 1139.71 1161.93 1209.39 1272.19
6558.36 1137.26 1130.44 1253.14 1234.86
6561.2 1114.35 1132.24 1242.05 1231.08
6564.03 1145.09 1135.5 1198.06 1224.02
6566.87 1147.06 1175.06 1231.94 1243.1
6569.71 1233.01 1165.36 1299.3 1232.9
6572.54 1116 1193.43 1167.44 1264.1
6575.38 1231.27 1160.72 1325.55 1262.86
6578.21 1134.9 1166.97 1295.59 1294.27
6581.05 1134.74 1141.32 1261.68 1274.14
6583.88 1154.31 1144.21 1265.15 1266.68
6586.72 1143.58 1158.27 1273.2 1268.83
6589.55 1176.93 1163.59 1268.14 1252.98
6592.39 1170.27 1189.32 1217.61 1254.75
6595.22 1220.75 1175.5 1278.51 1248.99
6598.06 1135.48 1155.5 1250.84 1254.67
6600.89 1110.28 1130.65 1234.67 1235.56
6603.73 1146.2 1130.54 1221.16 1221.54
6606.56 1135.15 1138.44 1208.79 1214.92
6609.39 1133.95 1148.4 1214.8 1228.46
6612.23 1176.11 1171.82 1261.79 1241.77
6615.06 1205.39 1150.45 1248.72 1221.49
6617.9 1069.86 1160.65 1153.98 1218.77
6620.73 1206.71 1142.17 1253.61 1224.08
6623.56 1149.94 1155.29 1264.64 1235
6626.39 1109.23 1102.46 1186.74 1215.17
6629.23 1048.2 1093.89 1194.13 1210.43
6632.06 1124.23 1102.59 1250.42 1236.08
6634.89 1135.34 1114.14 1263.68 1246.95
6637.73 1082.85 1124.93 1226.75 1251.38
6640.56 1156.58 1143.07 1263.7 1237.37
6643.39 1189.79 1136.09 1221.67 1196.5
6646.22 1061.9 1126.88 1104.14 1172.83
6649.05 1128.95 1093.32 1192.68 1162.26
6651.89 1089.12 1100.96 1189.97 1179.51
6654.72 1084.8 1115.01 1155.88 1212.15
6657.55 1171.1 1155.09 1290.6 1248
6660.38 1209.36 1171.2 1297.52 1253.55
6663.21 1133.13 1121.57 1172.52 1192.36
6666.04 1022.22 1097.68 1107.04 1178.32
6668.87 1137.69 1114.81 1255.41 1211.03
6671.7 1184.51 1119.1 1270.65 1212.61
6674.53 1035.09 1114.11 1111.76 1198.4
6677.36 1122.72 1071.22 1212.8 1164.88
6680.19 1055.86 1086.56 1170.07 1178.6
6683.02 1081.09 1076.82 1152.94 1166.33
6685.85 1093.51 1075.72 1175.98 1151.36
6688.68 1052.57 1078.16 1125.17 1150.01
6691.51 1088.4 1065.25 1148.87 1137.07
6694.34 1054.77 1091.95 1137.18 1167.5
6697.17 1132.68 1063.87 1216.45 1161.16
6700 1004.15 1072.01 1129.86 1187.91
6702.83 1079.22 1039.98 1217.42 1166.95
6705.66 1036.57 1073.72 1153.58 1187.54
6708.49 1105.38 1054.09 1191.62 1154.39
6711.31 1020.33 1049.16 1117.97 1151.76
6714.14 1021.77 1037.64 1145.71 1144.81
6716.97 1070.81 1053.29 1170.77 1160.06
6719.8 1067.27 1067.87 1163.71 1169.26
6722.63 1065.52 1058.47 1173.29 1156.39
6725.45 1042.6 1054.1 1132.17 1156.94
6728.28 1054.17 1046.03 1165.34 1157.11
6731.11 1041.32 1056.56 1173.81 1186.85
6733.94 1074.19 1075.96 1221.39 1207.05
6736.76 1112.39 1084.33 1225.94 1210.3
6739.59 1066.42 1072.09 1183.57 1180.76
6742.42 1037.46 1050.23 1132.78 1157.4
6745.24 1046.8 1052.58 1155.87 1148.95
6748.07 1073.49 1058.15 1158.22 1156.47
6750.9 1054.14 1078.23 1155.32 1170.96
6753.72 1107.07 1078.56 1199.34 1161.32
6756.55 1074.46 1101.95 1129.3 1186.73
6759.37 1124.33 1097.17 1231.55 1177.24
6762.2 1092.71 1099.45 1170.87 1188.1
6765.02 1081.32 1079.17 1161.89 1172.15
6767.85 1063.48 1063.46 1183.68 1154.62
6770.67 1045.57 1036.89 1118.28 1142.95
6773.5 1001.61 1022.43 1126.9 1125.18
6776.32 1020.11 987.322 1130.35 1097.34
6779.15 940.24 989.747 1034.78 1105.11
6781.97 1008.89 987.33 1150.2 1121.5
6784.8 1012.86 1013.06 1179.51 1159.15
6787.62 1017.43 1003.25 1147.73 1131.81
6790.44 979.446 1007.4 1068.19 1120.16
6793.27 1025.31 1001.83 1144.55 1099.37
6796.09 1000.74 992.674 1085.35 1107.01
6798.92 951.975 989.666 1091.12 1092.59
6801.74 1016.28 971.114 1101.3 1073.21
6804.56 945.084 991.143 1027.23 1054.76
6807.38 1012.06 979.108 1035.74 1045.32
6810.21 980.178 975.512 1072.99 1046.26
6813.03 934.295 956.459 1030.05 1058.66
6815.85 954.905 982.661 1072.94 1082.83
6818.67 1058.78 988.667 1145.51 1091.57
6821.5 952.314 1015.36 1056.28 1109.8
6824.32 1034.99 962.184 1127.62 1039.09
6827.14 899.248 973.057 933.387 1039.83
6829.96 984.933 957.579 1058.48 1001.47
6832.78 988.556 998.349 1012.53 1044.08
6835.6 1021.56 983.902 1061.24 1020.18
6838.43 941.592 975.227 986.775 1023.71
6841.25 962.533 964.162 1023.11 1023.26
6844.07 988.362 941.863 1059.89 1025.84
6846.89 874.696 942.48 994.518 1016.5
6849.71 964.382 934.36 995.097 1011.55
6852.53 964.002 960.958 1045.05 1022.74
6855.35 954.489 953.477 1028.08 1012.48
6858.17 941.941 916.469 964.315 973.971
6860.99 852.977 922.561 929.52 978.851
6863.81 972.765 866.501 1042.72 917.445
6866.63 773.761 843.844 780.095 868.313
6869.45 785.006 759.168 782.125 779.241
6872.27 718.735 768.158 775.503 797.376
6875.09 800.732 796.868 834.5 848.561
6877.9 871.137 835.799 935.679 884.089
6880.72 835.528 859.522 882.088 905.089
6883.54 871.902 850.698 897.501 893.241
6886.36 844.665 841.023 900.135 891.83
6889.18 806.502 824.072 877.854 890.745
6892 821.05 829.279 894.246 892.365
6894.81 860.285 854.064 904.994 917.123
6897.63 880.857 884.169 952.127 927.952
6900.45 911.363 871.902 926.734 921.334
6903.27 823.484 877.356 885.142 924.274
6906.08 897.22 844.546 960.946 894.342
6908.9 812.932 853.257 836.939 923.782
6911.72 849.619 852.115 973.461 927.305
6914.53 893.794 868.007 971.514 960.242
6917.35 860.61 847.841 935.752 937.06
6920.17 789.12 833.293 903.914 902.41
6922.98 850.149 826.473 867.566 873.099
6925.8 840.151 836.187 847.817 877.42
6928.61 818.261 844.315 916.877 888.913
6931.43 874.534 854.269 902.046 921.458
6934.25 870.011 869.335 945.45 927.721
6937.06 863.46 890.094 935.667 938.092
6939.88 936.81 863.362 933.159 905.17
6942.69 789.814 845.741 846.685 875.37
6945.51 810.598 826.908 846.266 884.738
6948.32 880.312 846.938 961.263 877.232
6951.13 849.904 863.315 824.166 904.577
6953.95 859.73 864.076 928.3 902.073
6956.76 882.594 913.896 953.751 966.512
6959.58 999.365 912.522 1017.48 966.167
6962.39 855.606 890.892 927.263 950.072
6965.2 817.705 847.027 905.469 920.057
6968.02 867.768 850.408 927.439 900.799
6970.83 865.75 847.767 869.488 895.895
6973.64 809.783 825.589 890.757 862.84
6976.46 801.235 813.038 828.274 861.162
6979.27 828.096 845.343 864.454 874.735
6982.08 906.698 867.509 931.477 896.663
6984.89 867.733 847.519 894.057 888.171
6987.71 768.126 839.556 838.978 864.213
6990.52 882.808 814.508 859.603 860.392
6993.33 792.591 863.451 882.596 894.339
6996.14 914.955 814.547 940.819 862.12
6998.95 736.094 822.257 762.946 835.481
7001.76 815.721 807.072 802.679 821.053
7004.58 869.402 856.003 897.534 881.754
7007.39 882.885 859.719 945.048 891.922
7010.2 826.869 840.517 833.184 882.73
7013.01 811.796 825.624 869.957 855.28
7015.82 838.207 811.538 862.698 843.607
7018.63 784.612 812.869 798.167 824.263
7021.44 815.788 795.535 811.924 806.892
7024.25 786.205 817.773 810.586 825.386
7027.06 851.327 821.413 853.647 837.504
7029.87 826.706 852.003 848.28 877.701
7032.68 877.976 860.58 931.177 892.42
7035.49 877.057 845.667 897.804 876.052
7038.3 781.968 832.87 799.175 843.122
7041.1 839.585 818.521 832.388 833.915
7043.91 834.011 806.025 870.183 826.459
7046.72 744.478 792.627 776.807 829.19
7049.53 799.393 815.563 840.582 850.239
7052.34 902.817 833.928 933.328 873.542
7055.15 799.575 849.787 846.715 850.284
7057.95 846.969 841.483 770.81 837.732
7060.76 877.907 853.144 895.671 859.585
7063.57 834.557 839.798 912.274 888.57
7066.38 806.931 829.422 857.764 882.466
7069.18 846.778 798.199 877.36 847.53
7071.99 740.887 782.861 807.466 834.404
7074.8 760.918 780.64 818.385 817.562
7077.6 840.115 810.097 826.834 828.537
7080.41 829.258 834.173 840.392 842.213
7083.22 833.146 808.116 859.413 828.966
7086.02 761.945 790.94 787.092 816.091
7088.83 777.73 783.243 801.769 815.818
7091.63 810.054 806.271 858.594 824.34
7094.44 831.029 824.127 812.657 834.727
7097.24 831.298 842.142 832.929 834.585
7100.05 864.1 816.101 858.17 817.04
7102.85 752.905 790.298 760.022 796.522
7105.66 753.888 774.242 771.375 778.397
7108.46 815.931 786.454 803.794 796.221
7111.27 789.542 794.959 813.495 819.373
7114.07 779.404 786.962 840.832 827.193
7116.88 791.939 783.643 827.251 819.064
7119.68 779.586 776.543 789.108 786.664
7122.48 758.105 757.991 743.631 773.234
7125.29 736.281 721.234 786.963 747.017
7128.09 669.317 731.58 710.457 779.349
7130.89 789.142 751.835 840.626 805.736
7133.7 797.045 802.462 866.124 833.938
7136.5 821.198 810.688 795.065 833.565
7139.3 813.82 802.869 839.506 809.084
7142.1 773.588 795.664 792.682 823.199
7144.91 799.584 769.194 837.41 794.606
7147.71 734.409 755.553 753.727 777.449
7150.51 732.665 751.716 741.209 754.481
7153.31 788.074 759.472 768.508 767.039
7156.11 757.675 759.887 791.4 762.965
7158.91 733.91 750.937 728.986 772.148
7161.72 761.226 768.786 796.057 768.226
7164.52 811.221 756.595 779.635 779.076
7167.32 697.339 763.394 761.534 785.537
7170.12 781.622 732.73 815.443 790.784
7172.92 719.229 706.466 795.376 763.037
7175.72 618.548 678.451 678.291 729.061
7178.52 697.575 688.35 713.515 713.548
7181.32 748.928 714.195 748.839 730.612
7184.12 696.083 707.947 729.481 730.575
7186.92 678.832 691.668 713.403 717.019
7189.72 700.088 691.686 708.172 701.681
7192.52 696.137 711.816 683.469 716.076
7195.31 739.223 704.203 756.588 708.012
7198.11 677.25 719.689 683.98 721.142
7200.91 742.595 703.345 722.858 698.941
7203.71 690.191 725.52 689.986 733.298
7206.51 743.774 725.713 787.05 741.422
7209.31 743.172 724.089 747.23 737.009
7212.1 685.319 714.043 676.748 721.379
7214.9 713.638 696.021 740.159 719.68
7217.7 689.106 703.113 742.132 724.302
7220.5 706.595 706.211 690.614 726.618
7223.29 722.931 727.575 747.108 726.12
7226.09 753.198 718.507 740.638 734.057
7228.89 679.392 709.835 714.424 722.957
7231.68 696.915 693.717 713.809 702.73
7234.48 704.846 677.259 679.959 675.836
7237.27 630.017 683.056 633.739 665.056
7240.07 714.305 711.785 681.471 699.815
7242.87 791.034 739.173 784.234 729.9
7245.66 712.181 724.364 723.995 717.955
7248.46 669.876 662.904 645.634 694.947
7251.25 606.654 658.479 715.211 700.377
7254.05 698.907 635.468 740.286 686.673
7256.84 600.843 635.698 604.521 658.58
7259.64 607.344 619.733 630.934 621.671
7262.43 651.012 633.232 629.557 648.21
7265.22 641.341 654.464 684.139 653.6
7268.02 671.039 677.124 647.104 681.897
7270.81 718.992 693.147 714.448 664.496
7273.61 689.41 737.62 631.936 690.887
7276.4 804.457 714.451 726.277 667.547
7279.19 649.487 719.966 644.427 704.97
7281.99 705.955 658.221 744.206 664.837
7284.78 619.22 669.196 605.877 667.43
7287.57 682.412 665.389 652.207 655.831
7290.36 694.534 655.207 709.41 667.49
7293.16 588.675 654.65 640.854 676.722
7295.95 680.743 630.769 679.904 627.881
7298.74 622.888 638.226 562.887 616.887
7301.53 611.047 614.148 607.872 584.684
7304.32 608.509 625.181 583.295 619.691
7307.11 655.987 655.625 667.907 627.81
7309.91 702.38 667.218 632.228 631.599
7312.7 643.289 687.904 594.662 628.37
7315.49 718.042 689.06 658.221 648.889
7318.28 705.85 675.499 693.784 653.845
7321.07 602.606 643.544 609.529 650.929
7323.86 622.176 616.241 649.474 614.282
7326.65 623.94 641.421 583.844 631.493
7329.44 678.147 649.38 661.161 612.816
7332.23 646.053 675.712 593.444 638.985
7335.02 702.937 647.592 662.351 578.846
7337.81 593.787 675.433 480.743 597.725
7340.6 729.575 649.943 650.082 602.786
7343.38 626.469 673.726 677.531 666.346
7346.17 665.135 637.417 671.424 676.179
7348.96 620.648 637.683 679.581 659.66
7351.75 627.267 648.664 627.977 658.073
7354.54 698.076 636.51 666.662 636.192
7357.33 584.188 631.223 613.938 639.033
7360.11 611.405 634.207 636.5 632.919
7362.9 707.027 663.752 648.317 639.934
7365.69 672.824 685.335 634.985 647.037
7368.47 676.154 637.563 657.809 628.307
7371.26 563.711 594.666 592.127 625.404
7374.05 544.134 554.05 626.276 616.872
7376.83 554.306 569.569 632.214 639.229
7379.62 610.267 577.913 659.197 628.995
7382.41 569.168 583.552 595.574 598.435
7385.19 571.221 574.76 540.533 581.982
7387.98 583.892 570.998 609.838 557.494
7390.76 557.881 586.676 522.112 571.189
7393.55 618.256 615.599 581.616 574.049
7396.33 670.659 621.492 618.42 612.175
7399.12 575.561 608.772 636.49 635.94
7401.9 580.094 556.454 652.91 614.66
7404.69 513.705 568.139 554.58 604.163
7407.47 610.618 563.514 604.999 587.737
7410.26 566.22 575.512 603.634 574.344
7413.04 549.696 552.075 514.398 541.46
7415.82 540.308 549.173 506.347 537.053
7418.61 557.515 538.663 590.415 535.273
7421.39 518.165 536.902 509.057 558.118
7424.17 535.024 549.128 574.881 552.884
7426.96 594.194 579.973 574.713 587.147
7429.74 610.702 576.762 611.847 578.207
7432.52 525.392 580.385 548.06 584.742
7435.3 605.061 584.628 594.318 583.562
7438.09 623.431 598.049 608.309 598.481
7440.87 565.656 579.441 592.817 601.902
7443.65 549.237 564.408 604.581 598.167
7446.43 578.332 547.581 597.103 557.328
7449.21 515.174 539.177 470.301 536.865
7451.99 524.026 517.557 543.191 522.519
7454.77 513.472 520.048 554.065 550.211
7457.55 522.646 533.546 553.376 563.291
7460.33 564.521 536.514 582.431 550.8
7463.12 522.377 549.525 516.593 546.908
7465.9 561.678 532.009 541.7 518.562
7468.67 511.972 538.388 497.394 547.539
7471.45 541.513 530.115 603.524 563.322
7474.23 536.861 543.637 589.048 590.371
7477.01 552.538 525.798 578.541 555.637
7479.79 487.994 526.641 499.322 567.95
7482.57 539.39 535.013 625.987 567.902
7485.35 577.654 560.43 578.397 584.077
7488.13 564.248 546.664 547.847 557.436
7490.91 498.09 517.421 546.064 539.596
7493.68 489.927 479.032 524.878 506.794
7496.46 449.078 475.259 449.441 489.167
7499.24 486.771 493.171 493.183 509.553
7502.02 543.663 514.323 586.035 533.653
7504.79 512.535 523.277 521.74 547.646
7507.57 513.632 506.185 535.164 509.342
7510.35 492.389 504.184 471.121 502.364
7513.12 506.531 497.769 500.806 472.98
7515.9 494.386 512.599 447.012 503.431
7518.68 536.88 530.797 562.476 507.104
7521.45 561.125 532.667 511.824 540.128
7524.23 499.995 529.729 546.084 520.592
7527 528.065 523.265 503.869 532.483
7529.78 541.733 501.737 547.496 514.425
7532.56 435.412 479.892 491.91 496.755
7535.33 462.531 471.897 450.86 474.901
7538.1 517.746 490.356 481.933 448.526
7540.88 490.79 485.311 412.784 448.991
7543.65 447.398 475.672 452.257 457.516
7546.43 488.826 470.837 507.508 465.076
7549.2 476.288 478.246 435.463 482.148
7551.98 469.625 463.375 503.472 466.494
7554.75 444.212 447.22 460.547 453.846
7557.52 427.823 454.307 397.518 443.992
7560.29 490.886 455.071 473.91 419.866
7563.07 446.504 484.943 388.168 447.093
7565.84 517.439 478.447 479.201 418.757
7568.61 471.4 477.43 388.902 429.956
7571.39 443.451 459.924 421.764 421.668
7574.16 464.92 436.921 454.338 446.172
7576.93 402.392 414.008 462.415 436.823
7579.7 374.71 416.733 393.717 436.384
7582.47 473.097 420.352 453.019 421.058
7585.24 413.25 410.458 416.439 421.369
7588.01 345.028 373.852 394.649 384.007
7590.78 363.279 338.401 340.934 358.816
7593.56 306.896 305.838 340.865 321.589
7596.33 247.341 252.227 282.969 273.894
7599.1 202.445 196.264 197.847 207.406
7601.87 139.007 154.736 141.402 160.937
7604.64 122.755 124.738 143.563 129.978
7607.4 112.451 136.824 104.969 136.514
7610.17 175.267 179.177 161.01 167.904
7612.94 249.813 236.409 237.733 220.666
7615.71 284.147 265.319 263.256 250.344
7618.48 261.997 265.909 250.043 261.394
7621.25 251.583 240.172 270.883 264.206
7624.02 206.937 236.085 271.69 258.644
7626.79 249.734 220.757 233.357 238.928
7629.55 205.601 218.211 211.737 214.205
7632.32 199.297 210.004 197.521 204.211
7635.09 225.113 221.494 203.374 217.173
7637.86 240.072 246.6 250.623 244.853
7640.62 274.614 260.008 280.562 255.28
7643.39 265.338 277.094 234.655 268.961
7646.16 291.33 284.987 291.664 263.917
7648.92 298.292 289 265.432 272.445
7651.69 277.379 297.561 260.24 281.151
7654.45 317.011 323.74 317.781 311.258
7657.22 376.831 338.51 355.753 338.168
7659.98 321.689 356.891 340.969 352.154
7662.75 372.152 379.063 359.741 368.085
7665.52 443.348 398.442 403.544 376.523
7668.28 379.825 410.13 366.284 379.782
7671.04 407.216 393.034 369.517 376.803
7673.81 392.06 395.615 394.609 394.226
7676.57 387.569 384.306 418.55 385.681
7679.34 373.289 401.018 343.883 379.443
7682.1 442.196 424.534 375.897 377.189
7684.86 458.116 431.249 411.787 374.185
7687.63 393.436 410.675 334.87 378.482
7690.39 380.473 395.19 388.788 368.216
7693.15 411.66 401.9 380.988 387.116
7695.92 413.567 409.978 391.57 388.506
7698.68 404.708 431.234 392.959 393.715
7701.44 475.427 461.652 396.615 389.472
7704.2 504.821 528.292 378.841 376.146
7706.96 604.627 488.161 352.983 356.604
7709.73 355.035 465.268 337.989 350.383
7712.49 436.142 429.823 360.178 386.219
7715.25 498.292 474.58 460.49 445.671
7718.01 489.307 456.037 516.345 483.478
7720.77 380.511 412.863 473.6 471.238
7723.53 368.771 405.992 423.768 434.152
7726.29 468.694 436.445 405.088 435.103
7729.05 471.869 442.223 476.453 420.693
7731.81 386.106 425.74 380.538 404.477
7734.57 419.246 408.117 356.44 362.901
7737.33 418.999 426.167 351.726 358.253
7740.09 440.255 434.19 366.593 352.247
7742.85 443.314 434.856 338.421 363.68
7745.61 420.999 431.63 386.026 365.795
7748.36 430.576 433.071 372.937 370.319
7751.12 447.638 449.504 351.992 404.287
7753.88 470.299 438.162 487.932 420.133
7756.64 396.548 423.998 420.475 463.67
7759.4 405.146 402.335 482.603 446.548
7762.15 405.309 417.592 436.565 467.332
7764.91 442.321 431.913 482.829 462.732
7767.67 448.109 430.969 468.802 453.584
7770.42 402.476 443.448 409.122 420.204
7773.18 479.76 440.836 382.687 388.311
7775.94 440.273 477.562 373.123 403.949
7778.69 512.654 464.039 456.038 406.113
7781.45 439.189 424.429 389.177 400.318
7784.2 321.444 398.736 355.738 366.384
7786.96 435.576 388.593 354.237 349.825
7789.72 408.758 419.067 339.499 351.394
7792.47 412.867 424.041 360.445 368.694
7795.22 450.499 449.342 406.138 423.748
7797.98 484.66 444.121 504.661 423.297
7800.73 397.204 445.769 359.093 435.095
7803.49 455.443 436.923 441.532 400.74
7806.24 458.122 471.306 401.594 417.047
7809 500.354 471.207 408.013 408.122
7811.75 455.145 466.853 414.758 391.54
7814.5 445.062 443.308 351.85 372.391
7817.25 429.718 414.907 350.565 323.813
7820.01 369.94 407.944 269.025 335.678
7822.76 424.174 416.286 387.444 404.968
7825.51 454.743 429.144 558.437 457.855
7828.26 408.513 418.111 427.684 467.898
7831.02 391.078 404.04 417.574 413.354
7833.77 412.529 409.911 394.803 382.178
7836.52 426.125 441.332 334.156 384.514
7839.27 485.341 462.937 424.583 386.929
7842.02 477.345 437.801 402.048 389.428
7844.77 350.716 414.382 341.654 336.06
7847.52 415.084 432.144 264.478 324.845
7850.27 530.633 479.041 368.403 351.8
7853.02 491.406 484.931 422.519 383.446
7855.77 432.754 436.58 359.415 395.376
7858.52 385.579 429.802 404.195 409.278
7861.27 471.074 407.525 464.223 418.847
7864.02 365.921 427.603 388.123 430.632
7866.77 445.815 435.055 439.55 418.724
7869.52 493.43 468.342 428.5 410.483
7872.27 465.781 452.76 363.399 412.268
7875.01 399.07 438.861 444.906 407.097
7877.76 451.733 417.285 412.986 421.454
7880.51 401.051 425.222 406.469 392.523
7883.26 422.882 424.391 358.114 398.367
7886 449.24 443.222 430.518 398.847
7888.75 457.545 415.664 407.91 391.699
7891.5 340.207 387.92 336.668 359.269
7894.24 366.007 351.387 333.229 342.066
7896.99 347.947 396.368 356.299 371.852
7899.74 475.149 437.307 426.029 407.532
7902.48 488.826 436.482 440.269 386.141
7905.23 345.47 436.568 292.125 360.255
7907.97 475.409 413.171 348.371 305.994
7910.72 418.635 465.879 277.485 311.133
7913.46 503.593 439.134 307.543 305.507
7916.21 395.173 421.343 331.493 349.079
7918.95 365.262 415.4 408.2 401.543
7921.7 485.766 421.897 464.935 438.575
7924.44 414.664 422.561 442.59 420.691
7927.18 367.254 405.798 354.549 409.358
7929.93 435.475 396.587 430.934 400.878
7932.67 387.032 411.253 417.15 397.522
7935.41 411.252 402.612 344.482 385.949
7938.16 409.551 378.606 396.216 346.522
7940.9 315.015 383.049 298.866 358.832
7943.64 424.581 372.086 381.413 324.988
7946.38 376.661 427.965 294.683 347.561
7949.13 482.653 426.528 366.588 351.204
7951.87 420.272 443.122 392.342 373.6
7954.61 426.442 415.943 361.872 365.537
7957.35 401.114 437.232 342.398 369.53
7960.09 484.138 415.989 404.321 341.75
7962.83 362.715 431.019 278.531 349.552
7965.57 446.203 407.408 365.802 352.934
7968.31 413.305 417.863 414.469 392.009
7971.05 394.08 392.835 395.755 377.662
7973.79 371.119 375.045 322.762 334.317
7976.53 359.936 389.389 284.435 318.868
7979.27 437.114 390.699 349.407 321.7
7982.01 375.049 378.644 331.257 313.272
7984.75 323.77 365.772 259.153 286.105
7987.49 398.496 397.974 267.906 264.13
7990.23 471.657 427.617 265.332 267.029
7992.97 412.699 408.981 267.848 318
7995.7 342.589 401.081 420.819 374.037
7998.44 447.955 391.898 433.444 415.924
8001.18 385.148 393.931 393.509 399.037
8003.92 348.689 364.732 370.157 357.918
8006.65 360.359 336.699 310.087 308.219
8009.39 301.05 356.565 244.415 274.814
8012.13 408.286 346.472 269.94 275.817
8014.86 330.081 379.137 313.096 310.05
8017.6 399.046 378.35 347.115 321.015
8020.33 405.924 387.43 302.834 299.708
8023.07 357.32 361.58 249.174 282.366
8025.8 321.495 353.275 295.09 293.329
8028.54 381.01 350.74 335.721 333.452
8031.27 349.715 347.328 369.544 330.402
8034.01 311.259 344.166 285.941 321.922
8036.74 371.525 336.483 310.282 298.519
8039.48 326.664 361.284 299.336 311.306
8042.21 385.664 342.815 324.299 296.46
8044.95 316.117 350.233 265.744 289.985
8047.68 348.918 330.563 279.913 273.254
8050.41 326.652 334.106 274.104 281.99
8053.14 326.747 337.507 291.953 301.673
8055.88 359.121 331.088 338.961 306.205
8058.61 307.396 331.267 287.7 313.239
8061.34 327.284 296.403 313.055 283.973
8064.07 254.529 313.443 251.165 290.255
8066.81 358.515 326.02 306.546 289.646
8069.54 365.014 337.824 311.228 297.478
8072.27 289.941 335.902 274.66 295.271
8075 352.752 321.889 299.924 280.545
8077.73 322.973 345.059 267.052 286.092
8080.46 359.453 330.548 291.299 264.465
8083.19 309.218 311.726 235.044 262.66
8085.92 266.508 282.772 261.637 257.111
8088.65 272.588 296.063 274.653 277.978
8091.38 349.092 309.358 297.645 266.682
8094.11 306.394 327.168 227.748 251.892
8096.84 326.017 318.294 230.284 226.84
8099.57 322.472 336.173 222.487 234.291
8102.3 360.03 341.251 250.101 252.654
8105.02 341.251 317.967 285.373 256.473
8107.75 252.621 282.826 233.944 247.968
8110.48 254.605 272.747 224.587 236.811
8113.21 311.017 295.537 251.902 241.41
8115.93 320.991 323.321 247.739 264.036
8118.66 337.955 318.668 292.465 255.28
8121.39 297.058 309.68 225.636 245.307
8124.12 294.026 301.672 217.818 232.531
8126.84 313.932 301.788 254.14 236.513
8129.57 297.405 303.794 237.581 234.961
8132.29 300.045 301.592 213.162 232.943
8135.02 307.324 300.287 248.087 227.104
8137.74 293.493 291.823 220.062 235.069
8140.47 274.651 264.176 237.057 207.637
8143.19 224.385 269.43 165.793 228.347
8145.92 309.255 267.788 282.191 223.179
8148.64 269.723 293.723 221.552 229.947
8151.37 302.19 278.52 186.098 214.133
8154.09 263.648 285.288 234.75 221.197
8156.82 290.028 272.788 242.744 229.573
8159.54 264.688 278.535 211.226 212.618
8162.26 280.888 275.225 183.884 201.003
8164.98 280.098 282.596 207.9 205.771
8167.71 286.801 300.554 225.529 226.471
8170.43 334.761 303.534 245.982 238.037
8173.15 289.04 296.409 242.598 242.879
8175.87 265.427 272.128 240.057 224.465
8178.6 261.916 255.309 190.739 211.644
8181.32 238.583 254.865 204.136 197.588
8184.04 264.096 263.967 197.889 195.934
8186.76 289.223 264.739 185.778 195.84
8189.48 240.898 266.021 203.855 202.981
8192.2 267.941 266.049 219.312 231.103
8194.92 289.31 262.941 270.143 221.98
8197.64 231.573 261.517 176.486 225.895
8200.36 263.669 251.862 231.057 214.867
8203.08 260.344 259.507 237.058 235.849
8205.8 254.507 251.124 239.43 230.964
8208.52 238.521 249.949 216.403 223.594
8211.24 256.819 251.097 214.947 217.02
8213.95 257.952 253.884 219.709 208.757
8216.67 246.881 273.366 191.614 208.536
8219.39 315.264 290.384 214.284 207.672
8222.11 309.008 299.488 217.117 219.635
8224.83 274.191 278.868 227.503 219.076
8227.54 253.406 255.574 212.608 212.264
8230.26 239.125 243.439 196.68 199.48
8232.98 237.786 254.704 189.152 193.542
8235.69 287.199 267.484 194.795 205.865
8238.41 277.465 286.718 233.647 210.83
8241.12 295.488 277.134 204.048 210.072
8243.84 258.448 278.45 192.522 206.015
8246.56 281.414 278.645 221.475 206.933
8249.27 296.072 301.834 206.801 222.731
8251.99 328.016 293.838 239.917 223.446
8254.7 257.427 267.719 223.618 220.295
8257.41 217.713 246.558 197.348 212.338
8260.13 264.534 244.968 216.047 214.254
8262.84 252.655 259.814 229.369 214.745
8265.56 262.252 255.192 198.819 206.221
8268.27 250.67 251.86 190.474 190.313
8270.98 242.659 237.433 181.644 187.933
8273.7 218.97 232.089 191.681 177.525
8276.41 234.637 218.818 159.25 171.115
8279.12 202.848 233.841 162.415 190.367
8281.83 264.037 232.536 249.437 201.192
8284.54 230.723 233.071 191.725 192.906
8287.26 204.454 214.766 137.555 155.692
8289.97 209.121 236.219 137.797 157.29
8292.68 295.082 253.173 196.519 179.917
8295.39 255.318 296.677 205.434 231.477
8298.1 339.632 266.176 292.476 216.287
8300.81 203.579 268.441 150.95 222.093
8303.52 262.113 237.464 222.854 205.103
8306.23 246.7 251.204 241.505 195.685
8308.94 244.798 232.901 122.696 175.617
8311.65 207.207 232.427 162.65 160.432
8314.36 245.278 222.886 195.95 186.382
8317.07 216.173 218.513 200.547 193.346
8319.77 194.087 235.047 183.541 194.013
8322.48 294.88 245.071 197.949 189.858
8325.19 246.247 250.15 188.082 191.754
8327.9 209.325 231.951 189.232 194.208
8330.61 240.282 223.645 205.309 172.669
8333.31 221.328 225.011 123.468 161.67
8336.02 213.424 252.335 156.232 158.277
8338.73 322.253 289.829 195.133 170.593
8341.43 333.809 332.395 160.414 167.875
8344.14 341.124 288.477 148.079 155.393
8346.84 190.497 235.164 157.686 181.611
8349.55 173.873 197.181 239.069 206.07
8352.26 227.173 204.589 221.454 210.802
8354.96 212.72 192.984 171.882 196.713
8357.67 139.06 160.022 196.803 179.895
8360.37 128.286 152.931 171 173.605
8363.07 191.448 166.947 153.012 160.67
8365.78 181.107 199.299 157.998 178.01
8368.48 225.342 220.546 223.019 200.931
8371.19 255.188 231.004 221.777 211.7
8373.89 212.482 263.363 190.304 220.851
8376.59 322.417 276.267 250.472 186.386
8379.29 293.901 279.507 118.383 181.872
8382 222.203 230.86 176.762 142.566
8384.7 176.476 187.875 132.555 141.827
8387.4 164.947 185.474 116.165 144.308
8390.1 214.998 216.494 184.204 171.19
8392.8 269.538 236.556 213.203 179.677
8395.51 225.131 231.852 141.624 186.489
8398.21 200.888 258.537 204.641 180.837
8400.91 349.592 280.264 196.246 199.862
8403.61 290.312 277.652 198.699 181.497
8406.31 193.053 222.357 149.548 167.016
8409.01 183.708 204.921 152.801 136.26
8411.71 238.002 193.707 106.433 130.38
8414.41 159.412 200.871 131.907 119.289
8417.11 205.197 177.093 119.526 112.89
8419.8 166.67 200.748 87.2358 126.486
8422.5 230.378 204.794 172.697 121.187
8425.2 217.333 249.44 103.628 137.816
8427.9 300.608 293.866 137.123 130.929
8430.6 363.656 276.08 152.036 118.037
8433.29 163.976 230.308 64.9528 130.014
8435.99 163.293 182.067 173.053 147.231
8438.69 218.932 208.31 203.688 176.528
8441.38 242.703 228.905 152.844 172.52
8444.08 225.08 230.092 161.029 159.99
8446.78 222.491 222.42 166.098 153.117
8449.47 219.689 223.996 132.224 152.054
8452.17 229.807 222.402 157.84 156.514
8454.86 217.709 195.432 179.478 171.52
8457.56 138.78 209.337 177.241 185.403
8460.25 271.521 231.066 199.491 166.127
8462.95 282.898 241.912 121.65 152.238
8465.64 171.316 237.933 135.573 137.415
8468.34 259.584 163.777 155.023 139.017
8471.03 60.4292 167.947 126.456 120.582
8473.72 183.827 149.875 80.2684 113.277
8476.42 205.368 208.869 133.105 111.106
8479.11 237.411 225.081 119.943 141.091
8481.8 232.465 234.672 170.224 135.707
8484.49 234.141 250.614 116.955 161.192
8487.19 285.237 261.653 196.396 149.399
8489.88 265.579 238.707 134.846 141.667
8492.57 165.305 258.27 93.7588 139.105
8495.26 343.925 262.14 188.711 142.257
8497.95 277.19 285.178 144.302 158.563
8500.64 234.418 272.032 142.675 140.15
8503.33 304.489 288.161 133.471 129.625
8506.02 325.577 294.515 112.729 128.578
8508.71 253.479 278.032 139.535 143.251
8511.4 255.041 245.743 177.49 135.558
8514.09 228.709 243.946 89.6486 137.929
8516.78 248.087 247.734 146.648 128.422
8519.47 266.406 249.467 148.969 144.012
8522.16 233.909 247.976 136.42 138.662
8524.85 243.612 244.848 130.597 143.919
8527.53 257.024 253.133 164.74 150.242
8530.22 258.764 262.678 155.387 141.23
8532.91 272.246 255.143 103.564 147.019
8535.6 234.419 261.473 182.107 142.021
8538.28 277.753 252.833 140.392 155.897
8540.97 246.326 245.883 145.194 142.766
8543.66 213.572 232.952 142.713 151.874
8546.34 238.958 238.914 167.714 157.378
8549.03 264.212 255.474 161.705 154.584
8551.71 263.251 271.398 134.332 151.103
8554.4 286.73 252.1 157.272 129.976
8557.08 206.32 247.411 98.3253 128.2
8559.77 249.183 240.042 129.002 128.269
8562.45 264.622 256.244 157.479 149.527
8565.14 254.927 266.757 162.1 154.82
8567.82 280.721 269.39 144.881 152.59
8570.51 272.522 268.598 150.789 164.959
8573.19 252.551 269.364 199.208 172.472
8575.87 283.02 280.761 167.42 177.263
8578.55 306.712 287.751 165.16 156.211
8581.24 273.522 278.964 136.054 151.133
8583.92 256.657 255.428 152.184 135.207
8586.6 236.104 249.927 117.383 158.68
8589.28 257.019 252.441 206.473 163.013
8591.96 264.2 268.511 165.181 180.26
8594.65 284.313 265.485 169.126 165.955
8597.33 247.942 272.811 163.557 168.558
8600.01 286.179 265.669 172.99 160.38
8602.69 262.888 286.494 144.594 154.335
8605.37 310.414 281.526 145.421 149.936
8608.05 271.278 269.95 159.793 147.883
8610.73 228.159 257.378 138.435 153.758
8613.41 272.697 261.189 163.046 163.585
8616.08 282.713 281.952 189.275 168.189
8618.76 290.446 284.978 152.245 169.442
8621.44 281.775 282.35 166.806 170.552
8624.12 274.828 270.794 192.604 173.874
8626.8 255.78 264.658 162.214 167.294
8629.47 263.367 254.955 147.065 139.003
8632.15 245.719 254.027 107.73 143.021
8634.83 252.995 236.543 174.269 117.252
8637.5 210.914 259.384 69.7565 133.085
8640.18 314.243 261.479 155.23 121.474
8642.86 259.281 285.01 139.435 132.119
8645.53 281.505 282.01 101.691 132.406
8648.21 305.245 323.63 156.091 136.428
8650.88 384.139 360.143 151.503 170.626
8653.56 391.046 345.829 204.284 159.178
8656.23 262.302 337.748 121.747 158.566
8658.91 359.896 302.414 149.668 119.238
8661.58 285.044 315.413 86.2978 147.064
8664.26 301.299 311.703 205.226 149.563
8666.93 348.765 328.222 157.165 175.792
8669.6 334.602 331.179 164.986 151.963
8672.28 310.169 301.14 133.737 136.027
8674.95 258.649 280.85 109.359 116.358
8677.62 273.731 261.907 105.977 115.316
8680.29 253.34 273.813 130.613 139.61
8682.96 294.369 279.488 182.24 157.715
8685.64 290.755 290.997 160.293 167.515
8688.31 287.866 280.616 160.014 153.37
8690.98 263.228 282.061 139.803 152.067
8693.65 295.088 295.843 156.384 151.353
8696.32 329.212 315.325 157.872 170.137
8698.99 321.677 317.491 196.154 175.489
8701.66 301.585 307.917 172.44 158.765
8704.33 300.49 289.633 107.7 124.626
8707 266.824 280.115 93.7372 122.967
8709.67 273.031 274.322 167.462 129.843
8712.34 283.11 276.734 128.329 139.365
8715 274.061 275.708 122.305 118.439
8717.67 269.955 267.766 104.683 111.863
8720.34 259.281 267.895 108.601 117.367
8723.01 274.451 283.474 138.818 139.615
8725.67 316.692 297.242 171.427 150.805
8728.34 300.583 297.829 142.171 152.418
8731.01 276.214 286.031 143.657 137.09
8733.67 281.297 282.882 125.443 136.615
8736.34 291.134 292.823 140.743 147.158
8739.01 306.038 291.349 175.287 149.033
8741.67 276.874 276.299 131.069 131.769
8744.34 245.984 257.255 88.9512 100.923
8747 248.906 256.484 82.7496 90.6792
8749.67 274.562 270.219 100.337 106.86
8752.33 287.188 261.012 137.493 118.957
8755 221.286 262 119.041 152.773
8757.66 277.525 237.525 201.784 122.087
8760.32 213.765 290.861 45.4349 94.8169
8762.99 381.295 278.764 37.232 -5.70096
8765.65 241.232 286.934 -99.7698 -35.9307
8768.31 238.277 196.719 -45.2545 -96.0076
8770.97 110.649 209.652 -142.999 -38.8786
8773.64 280.029 241.659 71.6173 4.34292
8776.3 334.299 303.741 84.41 29.1821
8778.96 296.895 326.095 -68.4811 -3.44585
8781.62 347.091 314.178 -26.2665 -58.1929
8784.28 298.549 313.028 -79.8311 -2.73124
8786.94 293.443 288.392 97.9038 19.7367
8789.6 273.182 274.191 41.1375 45.991
8792.26 255.946 268.339 -1.06816 38.5643
8794.92 275.888 246.242 75.6236 31.0694
8797.58 206.89 262.178 18.6526 67.071
8800.24 303.754 259.184 106.937 61.1701
8802.9 266.909 280.814 57.9211 73.0574
8805.56 271.779 271.86 54.3145 48.9213
8808.22 276.892 276.389 34.5283 37.2476
8810.87 280.495 293.068 22.9002 24.7414
8813.53 321.816 310.469 16.7957 41.3533
8816.19 329.097 305.663 84.364 59.5061
8818.85 266.076 280.755 77.3585 108.749
8821.5 247.093 311.747 164.526 44.1392
8824.16 422.072 366.488 -109.467 -24.8081
8826.82 430.298 345.609 -129.484 -183.559
8829.47 184.458 298.865 -311.726 -179.244
8832.13 281.84 225.115 -96.522 -98.8998
8834.78 209.048 258.354 111.548 -0.0202748
8837.44 284.174 263.497 -15.0869 41.2827
8840.09 297.269 257.53 27.387 59.3657
8842.75 191.147 254.841 165.797 86.4932
8845.4 276.108 240 66.2956 117.012
8848.05 252.745 262.642 118.944 71.3239
8850.71 259.072 278.664 28.7318 24.4425
8853.36 324.174 292.575 -74.3484 14.4101
8856.01 294.479 287.284 88.8471 16.8472
8858.67 243.197 272.472 36.0431 48.3015
8861.32 279.739 270.876 20.0144 12.6388
8863.97 289.693 272.721 -18.141 1.64507
8866.62 248.73 278.051 3.0618 -6.30578
8869.27 295.73 282.705 -3.83813 -5.17097
8871.93 303.656 297.673 -14.7366 39.2132
8874.58 293.635 287.966 136.214 43.3528
8877.23 266.609 246.455 8.58071 44.7168
8879.88 179.122 252.102 -10.6447 -32.8759
8882.53 310.575 277.711 -96.5637 -23.3303
8885.18 343.437 321.386 37.2175 7.22906
8887.83 310.146 277.845 81.0334 108.664
8890.48 179.952 189.914 207.74 138.162
8893.12 79.6434 145.376 125.713 136.467
8895.77 176.533 158.531 75.9474 52.1351
8898.42 219.416 234.132 -45.2548 -8.73315
8901.07 306.446 217.68 -56.892 -46.2628
8903.72 127.178 243.362 -36.6417 -15.9662
8906.36 296.463 211.531 45.6352 -0.873657
8909.01 210.952 240.351 -11.6145 9.78247
8911.66 213.637 183.6 -4.67332 -59.6012
8914.3 126.212 221.195 -162.516 -86.1375
8916.95 323.736 269.081 -91.2231 -41.7171
8919.6 357.295 299.663 128.588 -30.1987
8922.24 217.958 263.883 -127.961 37.2193
8924.89 216.395 158.266 111.031 -53.6923
8927.53 40.4443 145.022 -144.147 -20.1618
8930.18 178.225 137.276 -27.3689 -55.5807
8932.82 193.157 205.017 4.77401 -34.6017
8935.46 243.667 232.503 -81.2103 -22.8093
8938.11 260.685 270.1 8.00829 -40.7642
8940.75 305.949 248.308 -49.0904 -10.1682
8943.39 178.289 253.977 10.5775 14.4976
8946.04 277.693 223.111 82.0058 -17.0581
8948.68 213.351 200.22 -143.758 -99.7897
8951.32 109.617 165.945 -237.617 -199.543
8953.96 174.866 181.094 -217.253 -122.16
8956.6 258.8 247.113 88.3892 12.7118
8959.25 307.675 262.911 166.999 78.8002
8961.89 222.258 203.577 -18.9875 -67.5934
8964.53 80.7998 137.405 -350.791 -219.198
8967.17 109.158 112.299 -287.815 -288.668
8969.81 146.941 154.189 -227.399 -185.365
8972.45 206.47 200.964 -40.8814 -80.5443
8975.09 249.48 217.787 26.6472 1.09612
8977.73 197.41 216.542 17.5225 29.3678
8980.36 202.736 212.646 43.9338 32.813
8983 237.793 214.773 36.9826 43.1178
8985.64 203.789 225.046 48.4369 66.4364
8988.28 233.555 229.508 113.89 81.5843
8990.92 251.181 239.27 82.4261 70.789
8993.55 233.074 231.591 16.0511 -11.2445
8996.19 210.517 207.195 -132.211 44.5902
8998.83 177.993 192.854 249.93 110.94
9001.46 190.051 198.683 215.099 226.243
9004.1 228.006 184.122 213.698 92.4691
9006.73 134.308 174.218 -151.39 -119.69
9009.37 160.34 160.098 -421.379 -250.319
9012.01 185.647 177.165 -178.187 -222.035
9014.64 185.508 189.857 -66.5385 -67.8596
9017.27 198.415 189.864 41.1467 27.9376
9019.91 185.671 198.907 109.205 63.1889
9022.54 212.635 193.501 39.2155 76.5977
9025.18 182.196 188.981 81.373 88.9074
9027.81 172.11 175.868 146.134 123.046
9030.44 173.299 177.949 141.63 125.159
9033.07 188.439 201.763 87.7135 139.962
9035.71 243.551 208.548 190.541 159.106
9038.34 193.655 218.932 199.064 154.669
9040.97 219.591 197.788 74.401 99.2964
9043.6 180.117 219.767 24.4244 81.0728
9046.23 259.592 230.838 144.393 152.464
9048.86 252.805 237.725 288.576 180.844
9051.49 200.779 207.516 109.563 135.703
9054.12 168.964 183.281 8.97077 -13.1149
9056.75 180.1 172.184 -157.878 -87.5748
9059.38 167.488 190.988 -113.817 -88.498
9062.01 225.377 192.311 6.20115 -13.6594
9064.64 184.067 177.248 66.638 62.4484
9067.27 122.3 146.21 114.506 77.7004
9069.9 132.262 84.8541 51.9571 55.4877
