wavelength spec_sum spec_optimal
3525.62 122.965 120.43
3528.54 104.343 91.56
3531.46 98.6581 82.2611
3534.37 88.7187 91.4054
3537.29 92.0192 88.0121
3540.2 108.293 97.9271
3543.12 106.68 112.122
3546.04 100.196 99.7631
3548.95 100.336 100.222
3551.87 97.4838 110.931
3554.78 101.431 105.82
3557.7 112.818 126.978
3560.62 104.493 111.987
3563.53 98.5129 95.6251
3566.45 109.467 110.925
3569.36 95.1203 99.0952
3572.28 107.316 105.348
3575.2 102.595 110.5
3578.11 109.945 107.026
3581.03 109.805 107.952
3583.95 112.035 108.94
3586.86 112.973 101.688
3589.78 123.073 114.909
3592.69 94.2039 94.3605
3595.61 103.512 105.283
3598.52 100.156 104.257
3601.44 109.426 111.989
3604.36 105.335 106.764
3607.27 101.038 96.6147
3610.19 115.312 118.658
3613.1 110.123 106.585
3616.02 120.781 127.082
3618.94 94.9668 92.3219
3621.85 118.202 113.939
3624.77 98.0881 98.3006
3627.68 82.3802 87.4608
3630.6 97.1185 101.048
3633.52 100.767 98.189
3636.43 116.267 114.307
3639.35 93.7227 94.1019
3642.26 94.6606 96.3562
3645.18 93.109 91.7783
3648.09 83.2236 84.7328
3651.01 89.633 88.1756
3653.93 76.1589 79.6157
3656.84 69.383 72.6951
3659.76 78.0792 84.734
3662.67 75.6032 81.2508
3665.59 79.747 76.153
3668.5 71.5732 72.6764
3671.42 67.7634 70.9958
3674.33 75.8287 74.9185
3677.25 79.4693 79.3989
3680.17 55.5303 53.4892
3683.08 67.5819 70.1554
3686 55.8729 54.8637
3688.91 59.6053 56.8515
3691.83 57.0735 51.8482
3694.74 60.6276 60.7164
3697.66 58.0343 61.5158
3700.57 62.2714 60.6307
3703.49 56.1276 60.4415
3706.41 55.5207 56.3362
3709.32 41.972 47.1801
3712.24 50.6 52.0299
3715.15 53.4771 51.4411
3718.07 44.3286 42.9318
3720.98 35.9275 33.9072
3723.9 37.634 41.713
3726.81 49.5478 49.3569
3729.73 38.7026 38.8186
3732.64 41.5549 45.6731
3735.56 34.416 39.9287
3738.47 39.3725 41.3269
3741.39 42.4315 38.9761
3744.3 36.6748 36.2588
3747.22 37.948 45.9912
3750.13 37.9642 43.4829
3753.05 31.5159 31.683
3755.96 35.491 37.8502
3758.88 32.9097 30.648
3761.79 42.6288 44.9495
3764.71 37.4379 37.9392
3767.62 37.3055 40.6097
3770.54 34.3862 32.3716
3773.45 32.6178 38.3078
3776.37 40.5737 47.5243
3779.28 29.9058 36.8562
3782.2 40.0151 48.8876
3785.11 37.9588 44.1487
3788.03 34.7673 41.6369
3790.94 38.7898 41.0495
3793.86 39.8247 44.0557
3796.77 38.2423 40.0294
3799.69 37.348 44.4945
3802.6 38.3972 39.7569
3805.52 41.9425 46.8209
3808.43 42.6298 47.8112
3811.35 34.124 39.2011
3814.26 38.1927 47.891
3817.18 44.8967 52.5175
3820.09 44.606 51.8968
3823.01 38.8705 46.9002
3825.92 39.3136 51.2184
3828.84 45.237 53.313
3831.75 46.6187 53.9944
3834.66 40.8692 48.8481
3837.58 45.024 48.8213
3840.49 45.2898 51.788
3843.41 43.671 50.1676
3846.32 42.6999 49.1571
3849.24 40.5641 47.9029
3852.15 40.8493 45.2798
3855.07 44.5744 53.708
3857.98 43.7368 51.5958
3860.89 40.948 50.2437
3863.81 46.5657 55.7051
3866.72 48.0788 55.2241
3869.64 45.6168 54.7646
3872.55 50.4733 59.6978
3875.47 42.565 48.1664
3878.38 48.7601 57.9239
3881.29 56.2909 65.7861
3884.21 48.1601 59.42
3887.12 59.6822 65.9101
3890.04 64.456 73.7281
3892.95 60.4692 71.2979
3895.87 64.3454 68.7667
3898.78 64.2044 71.2196
3901.69 66.0584 75.7427
3904.61 68.6307 78.816
3907.52 67.026 76.3478
3910.44 74.3871 85.8893
3913.35 75.9846 89.7688
3916.26 77.4288 92.4399
3919.18 79.701 93.0845
3922.09 86.1754 100.396
3925 83.2852 99.1569
3927.92 80.9597 94.3764
3930.83 84.7228 92.1703
3933.75 92.74 100.475
3936.66 89.6004 98.8618
3939.57 98.685 109.876
3942.49 93.6811 110.558
3945.4 99.886 113.412
3948.31 103.909 120.91
3951.23 104.769 120.34
3954.14 107.68 129.096
3957.05 106.167 122.121
3959.97 111.841 125.97
3962.88 109.328 123.891
3965.8 112.375 125.194
3968.71 118.35 127.538
3971.62 114.803 132.738
3974.54 114.716 129.99
3977.45 113.26 128.475
3980.36 119.511 133.173
3983.28 122.589 137.833
3986.19 124.026 140.098
3989.1 114.881 130.11
3992.02 122.465 140.564
3994.93 128.66 144.892
3997.84 120.238 138.256
4000.75 126.927 141.45
4003.67 123.587 138.853
4006.58 125.892 141.317
4009.49 123.797 141.361
4012.41 124.915 144.148
4015.32 128.862 145.788
4018.23 115.749 131.341
4021.15 117.745 133.814
4024.06 112.986 128.902
4026.97 117.722 131.58
4029.88 114.479 128.146
4032.8 111.495 131.435
4035.71 105.928 123.838
4038.62 103.838 126.164
4041.53 103.222 122.016
4044.45 108.05 123.956
4047.36 107.919 120.889
4050.27 97.5916 118.559
4053.19 100.587 121.629
4056.1 99.7698 113.597
4059.01 98.9112 116.785
4061.92 100.567 117.604
4064.84 94.371 107.324
4067.75 98.8081 116.254
4070.66 98.2924 112.474
4073.57 105.527 117.488
4076.48 104.569 123.273
4079.4 110.013 124.565
4082.31 102.038 118.815
4085.22 99.5157 117.234
4088.13 99.2003 116.002
4091.05 99.4034 114.917
4093.96 105.493 122.871
4096.87 96.537 113.162
4099.78 109.486 126.078
4102.69 109.25 125.145
4105.61 116.208 134.006
4108.52 113.786 131.047
4111.43 114.311 134.025
4114.34 121.776 141.936
4117.25 121.262 137.138
4120.17 124.74 143.883
4123.08 121.954 140.622
4125.99 122.882 141.352
4128.9 123.486 144.679
4131.81 123.688 144.417
4134.72 123.651 144.05
4137.64 129.818 151.72
4140.55 125.833 143.797
4143.46 135.495 154.685
4146.37 134.039 154.625
4149.28 133.914 156.196
4152.19 130.651 152.419
4155.11 133.374 150.787
4158.02 131.511 150.497
4160.93 140.177 161.449
4163.84 137.239 162.59
4166.75 138.905 164.33
4169.66 134.393 154.645
4172.57 123.651 149.898
4175.48 130.253 156.973
4178.4 138.189 158.557
4181.31 124.076 147.63
4184.22 128.233 152.623
4187.13 130.505 155.578
4190.04 132.253 153.87
4192.95 125.585 150.287
4195.86 123.409 143.126
4198.77 115.142 139.103
4201.68 120.635 141.521
4204.59 117.126 135.215
4207.5 120.498 139.009
4210.42 120.162 138.391
4213.33 123.165 143.944
4216.24 114.561 134.767
4219.15 114.992 133.298
4222.06 118.216 137.259
4224.97 117.317 134.865
4227.88 118.837 136.393
4230.79 111.531 129.524
4233.7 117.692 136.262
4236.61 108.018 123.139
4239.52 118.149 138.937
4242.43 112.104 130.939
4245.34 111.699 128.46
4248.25 105.533 125.594
4251.16 109.038 126.674
4254.07 113.644 130.74
4256.98 103.514 125.578
4259.89 105.447 127.071
4262.8 111.886 128.469
4265.71 109.787 126.339
4268.62 103.869 123.761
4271.53 106.993 125.645
4274.44 104.72 123.109
4277.35 99.1731 115.279
4280.26 106.518 121.462
4283.17 105.616 123.257
4286.08 97.9422 114.686
4288.99 100.223 121.227
4291.9 98.8966 123.543
4294.81 101.017 119.497
4297.72 99.6041 118.461
4300.63 94.7022 116.147
4303.54 91.9918 108.685
4306.45 86.6878 106.661
4309.36 88.4242 101.713
4312.27 87.1806 102.112
4315.18 88.1624 102.917
4318.08 87.4619 102.895
4320.99 80.4402 100.476
4323.9 87.0734 103.481
4326.81 80.9424 95.519
4329.72 76.5966 97.4071
4332.63 80.9005 97.3578
4335.54 76.8214 90.5571
4338.45 73.4293 88.5262
4341.36 71.9401 87.5059
4344.27 72.517 88.1638
4347.17 71.9112 90.3605
4350.08 66.7475 83.5546
4352.99 73.3259 83.8404
4355.9 65.3455 83.0464
4358.81 69.764 87.156
4361.72 69.7751 84.6754
4364.63 60.7437 81.8426
4367.54 63.0726 78.0471
4370.44 63.9227 78.8539
4373.35 63.0967 77.9176
4376.26 69.2478 82.3218
4379.17 64.0984 77.6312
4382.08 62.6223 75.026
4384.99 64.728 82.0961
4387.89 57.4112 74.4376
4390.8 63.0736 74.1501
4393.71 63.5315 78.5819
4396.62 68.3313 82.394
4399.53 68.6571 81.9495
4402.43 64.9044 85.8846
4405.34 69.0522 80.972
4408.25 66.2307 80.1279
4411.16 63.8473 84.4133
4414.07 66.23 81.0274
4416.97 71.4125 87.7734
4419.88 70.5942 84.1217
4422.79 67.9391 82.0119
4425.7 72.3832 85.7084
4428.6 77.8598 94.3098
4431.51 76.5362 91.978
4434.42 81.2432 98.7671
4437.33 76.6637 94.4702
4440.23 76.3376 98.7858
4443.14 84.3832 102.699
4446.05 82.0544 98.4703
4448.96 81.1541 98.1577
4451.86 84.3887 101.765
4454.77 78.3992 102.374
4457.68 85.6761 103.455
4460.58 82.441 98.8364
4463.49 77.7981 98.4515
4466.4 80.7602 103.726
4469.3 83.9451 101.047
4472.21 89.1796 106.661
4475.12 83.9803 101.452
4478.02 78.2743 101.11
4480.93 78.371 94.5687
4483.84 79.6667 96.2368
4486.74 75.8998 98.5661
4489.65 79.6985 98.6859
4492.56 84.0593 101.68
4495.46 77.2203 95.8284
4498.37 80.4444 94.8644
4501.28 79.5375 94.3959
4504.18 74.1235 93.0013
4507.09 80.7352 95.8136
4510 78.7193 93.2528
4512.9 75.8876 91.0528
4515.81 71.1287 93.7058
4518.71 80.0419 99.1903
4521.62 73.5231 89.5481
4524.53 77.568 93.4028
4527.43 75.5819 97.6601
4530.34 84.1061 100.263
4533.24 82.4077 99.8042
4536.15 76.6635 99.8141
4539.06 83.4365 101.042
4541.96 81.5288 97.8179
4544.87 86.8825 104.46
4547.77 85.2743 103.814
4550.68 86.0006 103.245
4553.58 87.881 106.641
4556.49 81.9879 105.849
4559.39 86.2425 103.431
4562.3 88.1531 106.275
4565.2 91.7289 110.059
4568.11 83.3747 107.912
4571.01 87.0116 106.301
4573.92 94.4397 113.939
4576.82 88.9743 107.725
4579.73 91.5109 111.526
4582.63 91.3807 109.821
4585.54 92.079 110.936
4588.44 86.9868 112.222
4591.35 94.4409 113.22
4594.25 89.7966 114.604
4597.16 93.2703 114.178
4600.06 95.5183 116.052
4602.97 92.7381 118.674
4605.87 97.8495 116.717
4608.78 88.3991 113.702
4611.68 95.7409 114.367
4614.58 86.3977 110.544
4617.49 87.8058 112.685
4620.39 93.9532 112.704
4623.3 94.8933 114.987
4626.2 98.3524 117.981
4629.11 88.6102 112.79
4632.01 95.4122 116.356
4634.91 93.3439 113.05
4637.82 88.8721 113.284
4640.72 92.1939 111.241
4643.62 96.1145 116.564
4646.53 90.3828 110.913
4649.43 91.8618 112.561
4652.34 85.4034 107.193
4655.24 87.2324 104.579
4658.14 90.8675 109.34
4661.05 92.7753 112.243
4663.95 92.4658 112.172
4666.85 93.0561 112.888
4669.76 87.4846 108.499
4672.66 90.8248 111.315
4675.56 91.0013 109.144
4678.47 98.4772 116.898
4681.37 95.089 114.123
4684.27 90.3669 107.521
4687.17 90.0075 109.938
4690.08 91.8604 110.834
4692.98 95.5447 116.621
4695.88 84.1353 109.337
4698.78 88.029 112.762
4701.69 87.2073 106.708
4704.59 92.4759 111.404
4707.49 86.4048 105.124
4710.4 87.5668 104.988
4713.3 88.2934 104.328
4716.2 82.5897 102.11
4719.1 87.7025 106.648
4722 81.2107 98.6825
4724.91 82.5981 97.9746
4727.81 79.3224 99.9729
4730.71 81.2807 98.0244
4733.61 69.6527 91.2071
4736.51 79.6296 96.2034
4739.42 72.5796 94.2135
4742.32 77.0294 93.8527
4745.22 77.9407 94.305
4748.12 78.981 97.1407
4751.02 73.7671 89.9464
4753.92 75.5561 91.0128
4756.83 66.7386 89.1408
4759.73 67.1169 88.966
4762.63 75.1324 92.8277
4765.53 67.3613 87.1409
4768.43 73.9898 90.8292
4771.33 73.4078 89.1902
4774.23 73.7481 90.5641
4777.13 70.9029 89.1144
4780.04 66.1063 84.9786
4782.94 70.2086 87.0866
4785.84 68.5128 83.0342
4788.74 73.6023 88.6264
4791.64 72.567 87.8645
4794.54 68.1431 83.3273
4797.44 67.3436 84.2487
4800.34 65.6997 84.7012
4803.24 65.7414 79.7236
4806.14 68.4655 84.9973
4809.04 67.8726 81.9591
4811.94 65.937 82.0771
4814.84 63.5871 84.7145
4817.74 66.6943 81.1292
4820.64 66.0365 80.6833
4823.54 66.9217 82.8115
4826.44 69.3907 84.3557
4829.34 61.3319 75.7455
4832.24 62.9797 78.5097
4835.14 63.3299 79.7156
4838.04 63.7432 79.6078
4840.94 59.0003 78.2436
4843.84 71.3412 87.0921
4846.74 63.9445 79.2388
4849.64 68.0762 84.0911
4852.54 67.7724 83.6165
4855.44 64.0601 79.9735
4858.34 67.1164 83.4713
4861.24 65.0976 81.9843
4864.14 67.2875 83.2691
4867.03 63.6723 86.1042
4869.93 68.1398 84.9983
4872.83 61.1468 81.6711
4875.73 67.543 84.1816
4878.63 70.9313 88.3484
4881.53 68.9026 88.9733
4884.43 64.6675 81.5221
4887.33 62.7926 78.3605
4890.22 62.15 85.2318
4893.12 70.2678 88.4263
4896.02 63.4556 84.5901
4898.92 66.8036 81.5902
4901.82 64.5096 81.2454
4904.72 62.8835 78.3475
4907.61 62.9951 77.8725
4910.51 62.748 77.6294
4913.41 51.6168 71.077
4916.31 60.9085 76.0648
4919.21 60.5886 75.535
4922.1 55.3369 70.4687
4925 53.5443 66.9452
4927.9 50.1575 62.2019
4930.8 54.6197 66.6912
4933.69 43.8953 61.3306
4936.59 56.0121 68.7754
4939.49 50.4917 62.1166
4942.39 48.8002 59.8419
4945.28 42.4642 57.8881
4948.18 46.5045 55.8479
4951.08 49.8485 60.9924
4953.97 48.6381 58.7664
4956.87 44.1928 54.4908
4959.77 45.0843 56.051
4962.66 46.26 56.974
4965.56 48.8932 57.565
4968.46 47.7154 58.925
4971.35 50.7008 59.6344
4974.25 52.8555 63.3652
4977.15 49.8105 59.9486
4980.04 46.7788 57.481
4982.94 50.8201 60.555
4985.84 45.9682 60.1978
4988.73 47.6677 62.2464
4991.63 48.1497 59.288
4994.52 50.0991 60.4411
4997.42 50.3524 60.0146
5000.32 49.576 60.7212
5003.21 46.3778 60.3503
5006.11 51.3287 66.0788
5009 52.3874 61.9989
5011.9 50.1855 66.2949
5014.79 56.9503 67.2323
5017.69 57.3919 68.0824
5020.59 52.0106 68.0986
5023.48 53.9361 65.9388
5026.38 58.4314 70.2288
5029.27 51.7215 66.7541
5032.17 57.9792 68.9754
5035.06 55.3629 74.8269
5037.96 58.8643 70.741
5040.85 60.4107 72.0636
5043.75 60.1097 72.3333
5046.64 61.9502 75.0246
5049.53 58.7465 71.8687
5052.43 63.2304 77.1174
5055.32 54.8372 67.7914
5058.22 60.9745 74.9322
5061.11 56.1334 68.4912
5064.01 61.7888 76.8952
5066.9 61.2615 77.2214
5069.79 60.2641 73.2222
5072.69 59.8258 73.2228
5075.58 60.4223 74.5087
5078.48 57.7632 71.8071
5081.37 61.0624 76.1951
5084.26 57.8697 73.5636
5087.16 52.4097 72.8056
5090.05 57.4062 73.3376
5092.94 61.954 78.4019
5095.84 55.972 71.2127
5098.73 58.9535 74.8754
5101.62 60.4947 75.4864
5104.52 59.8176 76.1376
5107.41 58.7487 74.3046
5110.3 59.6064 76.4782
5113.2 57.765 72.4772
5116.09 60.648 77.0406
5118.98 57.937 78.8212
5121.88 55.3842 77.2111
5124.77 65.1501 81.8425
5127.66 61.7059 78.4455
5130.55 61.1325 78.6613
5133.45 60.0106 75.6883
5136.34 63.3667 81.427
5139.23 62.6892 81.9282
5142.12 62.9029 80.8138
5145.01 55.3245 75.9806
5147.91 64.2483 80.991
5150.8 59.6266 80.1438
5153.69 66.4985 84.1835
5156.58 64.2728 82.1755
5159.47 66.3734 91.4647
5162.36 63.315 86.4455
5165.26 66.5917 86.4393
5168.15 63.1725 81.7292
5171.04 69.0579 87.4651
5173.93 64.335 87.6592
5176.82 66.9184 85.9061
5179.71 69.71 90.2689
5182.6 68.2997 85.1386
5185.49 66.0346 89.5321
5188.39 66.8926 92.4465
5191.28 74.672 93.8277
5194.17 71.0231 90.6638
5197.06 72.5442 91.7047
5199.95 64.8668 92.4188
5202.84 75.2858 95.8546
5205.73 74.1886 94.3758
5208.62 67.9671 92.7768
5211.51 72.8073 91.4932
5214.4 69.2397 94.4913
5217.29 75.4911 95.2783
5220.18 72.4649 90.6529
5223.07 71.8416 91.5189
5225.96 76.0361 95.1111
5228.85 72.6274 91.5778
5231.74 68.2853 93.7672
5234.63 75.5555 94.6579
5237.52 75.6382 95.0834
5240.41 75.6176 95.7589
5243.3 70.8307 91.1046
5246.19 72.6501 90.6722
5249.08 71.6017 90.758
5251.96 64.6586 89.6821
5254.85 76.2973 94.7908
5257.74 73.2314 94.2501
5260.63 72.6406 92.4253
5263.52 77.4722 98.0059
5266.41 71.6275 96.3507
5269.3 67.7527 90.5486
5272.19 76.7947 96.584
5275.07 65.2189 88.0471
5277.96 75.0444 94.1985
5280.85 74.9026 94.8575
5283.74 73.0627 91.1797
5286.63 74.2623 92.1266
5289.51 75.882 93.1905
5292.4 72.8855 89.7196
5295.29 73.5794 90.5547
5298.18 75.0469 94.6862
5301.07 72.7862 91.1908
5303.95 69.4547 88.7237
5306.84 62.2523 84.9495
5309.73 65.6406 89.7629
5312.61 65.3698 87.9026
5315.5 61.9936 83.5217
5318.39 61.9535 84.6481
5321.28 59.545 81.2965
5324.16 55.2914 75.9331
5327.05 55.672 74.6861
5329.94 54.2713 74.7304
5332.82 55.3284 76.2354
5335.71 54.7118 74.2547
5338.6 50.7179 70.2776
5341.48 51.6766 70.1129
5344.37 50.6482 67.1534
5347.26 48.7945 67.7462
5350.14 52.9846 69.6125
5353.03 53.0527 72.1485
5355.91 49.8544 67.1209
5358.8 50.832 67.9659
5361.69 47.3388 64.6771
5364.57 45.7856 61.7937
5367.46 40.9466 62.1993
5370.34 46.7801 61.1057
5373.23 50.2314 65.6725
5376.11 47.42 65.1578
5379 47.3935 63.2007
5381.88 49.647 66.5202
5384.77 48.8991 66.0757
5387.65 47.8769 64.4442
5390.54 48.7181 63.4493
5393.42 47.9721 64.0387
5396.31 47.4106 63.5488
5399.19 43.9977 59.2212
5402.08 45.4762 65.2065
5404.96 48.4983 65.587
5407.85 52.5349 69.256
5410.73 47.2945 60.9545
5413.61 48.415 62.3446
5416.5 47.5306 60.8353
5419.38 48.9829 60.8244
5422.27 46.8378 59.9158
5425.15 50.7331 63.2808
5428.03 53.4711 66.8493
5430.92 45.7673 66.0062
5433.8 47.4428 60.3299
5436.68 44.7066 64.1239
5439.57 50.509 65.2109
5442.45 44.7353 64.2163
5445.33 53.8375 66.6388
5448.22 55.7866 69.4331
5451.1 52.7449 66.9029
5453.98 51.3027 63.7888
5456.86 52.2123 66.1733
5459.75 48.7647 63.3318
5462.63 54.0953 69.3156
5465.51 53.368 67.489
5468.4 51.4028 65.5354
5471.28 53.3872 68.4766
5474.16 52.0942 67.3196
5477.04 45.8384 64.1608
5479.92 45.0367 64.1652
5482.81 54.8171 68.5323
5485.69 54.6903 69.0874
5488.57 51.4372 65.292
5491.45 52.6863 67.0717
5494.33 49.7333 59.7454
5497.21 55.3563 69.4704
5500.1 48.8443 60.9259
5502.98 41.8406 58.5741
5505.86 48.1049 59.1519
5508.74 44.1643 60.9707
5511.62 46.6116 57.3501
5514.5 47.4777 58.0898
5517.38 45.7524 63.3473
5520.26 49.5302 60.0923
5523.14 38.8757 54.0814
5526.02 47.1364 57.386
5528.9 43.8164 53.806
5531.78 44.801 57.3748
5534.66 47.0755 59.2952
5537.54 48.3505 62.3571
5540.42 45.2782 56.4836
5543.3 43.889 52.7438
5546.18 43.4223 54.0938
5549.06 44.8358 54.3186
5551.94 43.5698 54.9993
5554.82 44.4399 53.8136
5557.7 44.3886 54.9706
5560.58 43.0121 54.247
5563.46 40.8867 57.674
5566.34 46.4983 58.7286
5569.22 46.0557 55.8363
5572.1 47.1837 54.7495
5574.98 47.8068 56.6925
5577.85 45.3264 51.0407
5580.73 44.9506 56.8812
5583.61 47.4302 56.5926
5586.49 46.5633 58.1977
5589.37 48.2609 64.0243
5592.25 48.3501 59.4134
5595.12 46.2364 59.9151
5598 48.5875 61.2943
5600.88 47.6321 58.2131
5603.76 55.5588 68.8641
5606.64 47.7117 65.932
5609.51 49.9077 61.9893
5612.39 54.0571 65.7937
5615.27 53.4791 64.627
5618.15 50.4955 69.4516
5621.02 53.5265 67.1181
5623.9 53.9548 68.5028
5626.78 54.8563 69.2102
5629.65 57.3672 71.6853
5632.53 51.9289 66.2012
5635.41 52.8702 71.2313
5638.28 57.9039 72.8723
5641.16 54.1156 67.7811
5644.04 53.5993 66.8787
5646.91 58.7347 72.4695
5649.79 53.7276 66.459
5652.67 55.6983 70.8134
5655.54 56.2852 71.4586
5658.42 55.5731 67.4833
5661.29 58.3136 72.7185
5664.17 56.3261 71.3692
5667.04 56.0359 70.7785
5669.92 54.0901 68.3567
5672.8 55.4921 68.0462
5675.67 54.455 67.4004
5678.55 50.369 71.1588
5681.42 49.9463 69.7321
5684.3 56.1628 70.4363
5687.17 59.6921 75.3452
5690.05 60.2331 77.779
5692.92 50.2858 68.7301
5695.79 58.5825 72.4065
5698.67 59.8214 71.606
5701.54 55.2633 68.6953
5704.42 56.1126 70.2087
5707.29 56.1269 70.4
5710.17 59.166 73.0884
5713.04 58.368 73.5928
5715.91 57.0427 71.3761
5718.79 59.4017 73.2073
5721.66 55.9137 70.1606
5724.53 51.6528 70.9109
5727.41 58.6719 73.0373
5730.28 56.6487 72.4422
5733.15 60.1036 73.3109
5736.03 56.7193 73.0959
5738.9 57.0235 68.3517
5741.77 50.171 66.8822
5744.64 52.2079 70.2981
5747.52 58.3448 69.9044
5750.39 52.3017 71.4172
5753.26 57.8731 74.4383
5756.13 57.5299 71.0798
5759.01 55.7931 68.3366
5761.88 56.2604 70.2454
5764.75 60.125 75.1771
5767.62 54.3364 72.85
5770.49 50.8019 70.4155
5773.37 56.9147 72.6289
5776.24 57.776 71.2537
5779.11 59.4465 74.1104
5781.98 59.9717 73.786
5784.85 58.0703 71.5503
5787.72 57.7519 69.8665
5790.59 57.3506 70.3223
5793.46 54.4994 65.584
5796.33 52.517 72.3623
5799.21 57.1704 70.973
5802.08 57.2182 70.9178
5804.95 56.5461 69.2318
5807.82 57.233 69.9561
5810.69 55.1123 68.9406
5813.56 52.876 64.5144
5816.43 53.8076 66.9853
5819.3 50.3137 62.4134
5822.17 48.6224 68.6723
5825.04 49.5647 66.8174
5827.91 52.871 65.4283
5830.78 56.653 68.3717
5833.64 51.0717 63.0427
5836.51 47.3483 62.7766
5839.38 51.5634 64.0219
5842.25 52.5015 62.3934
5845.12 50.1795 59.2095
5847.99 51.7441 64.4136
5850.86 52.3826 63.6988
5853.73 47.4664 64.8243
5856.59 48.2089 57.4029
5859.46 47.8402 58.5315
5862.33 48.3071 59.009
5865.2 50.9908 61.9392
5868.07 43.2623 61.3619
5870.94 42.2029 60.1075
5873.8 45.2078 65.5485
5876.67 54.9414 68.3359
5879.54 52.4838 64.1182
5882.41 58.2331 69.6583
5885.27 50.4263 62.8994
5888.14 37.2293 57.5704
5891.01 49.7795 60.8171
5893.87 46.9438 57.3059
5896.74 46.3756 58.7847
5899.61 49.3915 64.1425
5902.47 40.1277 62.3061
5905.34 49.7571 60.4893
5908.21 50.1132 60.4964
5911.07 41.7928 60.9851
5913.94 47.9432 58.6516
5916.8 46.4114 65.7524
5919.67 50.122 59.4709
5922.54 54.7934 67.3913
5925.4 53.6231 64.7152
5928.27 49.5138 58.5451
5931.13 46.5324 65.7607
5934 54.2657 63.9839
5936.86 51.3048 61.9657
5939.73 52.7718 64.5677
5942.59 51.4001 62.7794
5945.46 55.4821 68.2233
5948.32 51.5493 62.1613
5951.19 56.0985 67.772
5954.05 56.7938 70.3186
5956.92 44.9255 65.0193
5959.78 47.6262 64.4365
5962.64 52.1962 66.2994
5965.51 45.0815 63.1936
5968.37 50.5742 69.5584
5971.24 46.2439 64.224
5974.1 49.6511 67.9253
5976.96 51.2168 60.7147
5979.83 46.6412 64.4722
5982.69 44.6655 62.52
5985.55 52.8438 64.2925
5988.42 53.8071 64.3693
5991.28 54.6865 65.5795
5994.14 54.584 64.5578
5997 54.3672 65.1406
5999.87 55.1147 66.765
6002.73 53.2092 64.3391
6005.59 54.5942 66.9295
6008.45 47.3568 65.2335
6011.32 56.5821 67.7791
6014.18 53.6753 64.6765
6017.04 57.8225 70.5846
6019.9 53.2165 64.6656
6022.76 53.8875 66.5454
6025.63 54.0177 65.0592
6028.49 55.2466 67.5827
6031.35 53.3621 65.2671
6034.21 56.5547 69.0289
6037.07 54.0798 63.4582
6039.93 51.6456 63.3063
6042.79 46.4226 62.0648
6045.65 53.7882 65.3635
6048.51 50.0074 60.6969
6051.37 53.3222 66.3666
6054.23 48.4775 64.9425
6057.09 49.7832 61.2138
6059.95 51.7339 61.2635
6062.81 46.4279 60.372
6065.67 53.4388 63.4097
6068.53 50.5705 61.2145
6071.39 49.1105 60.0562
6074.25 46.0885 61.0901
6077.11 51.8258 63.3843
6079.97 42.7979 57.6138
6082.83 51.5885 60.5621
6085.69 49.2414 57.5639
6088.55 44.9623 55.7144
6091.41 44.0916 54.7147
6094.26 49.7292 58.4145
6097.12 43.144 57.3061
6099.98 47.3037 55.7639
6102.84 38.3186 50.981
6105.7 39.908 46.2881
6108.55 44.876 52.9561
6111.41 40.0789 48.205
6114.27 38.9183 46.041
6117.13 38.0777 46.4951
6119.98 39.7907 45.576
6122.84 41.9026 48.2153
6125.7 38.6519 44.8269
6128.56 33.5342 38.9734
6131.41 37.0532 42.1301
6134.27 36.5908 40.9851
6137.13 30.3521 40.7425
6139.98 31.1713 39.1836
6142.84 32.0525 38.0231
6145.7 30.5128 34.4304
6148.55 24.5154 35.4709
6151.41 34.5073 40.609
6154.26 32.1691 36.8509
6157.12 32.3164 36.9491
6159.97 30.5183 34.9202
6162.83 30.6766 34.9665
6165.69 23.3696 31.214
6168.54 29.9159 33.1648
6171.4 26.1533 28.3293
6174.25 29.9143 32.4649
6177.11 27.0416 30.6992
6179.96 25.9906 29.0965
6182.81 22.1392 30.3926
6185.67 25.5065 29.7561
6188.52 26.2257 28.611
6191.38 25.053 26.7455
6194.23 24.4181 26.8903
6197.09 27.7027 31.1334
6199.94 25.9191 29.8948
6202.79 26.8308 30.9366
6205.65 25.792 30.0769
6208.5 25.3127 27.6926
6211.35 22.2325 22.7274
6214.21 21.0271 28.0651
6217.06 25.382 27.0288
6219.91 24.608 28.1464
6222.76 24.1151 27.0009
6225.62 23.9151 27.6549
6228.47 25.2811 27.6176
6231.32 25.9584 27.154
6234.17 23.675 26.2989
6237.03 27.455 31.0212
6239.88 26.6704 27.703
6242.73 30.0451 34.558
6245.58 27.0151 30.571
6248.43 26.5785 29.4905
6251.29 27.8942 33.4233
6254.14 27.1138 31.39
6256.99 29.4836 32.3054
6259.84 27.1054 28.9133
6262.69 27.5886 29.7573
6265.54 31.9923 35.3358
6268.39 30.2492 33.1878
6271.24 24.0463 33.253
6274.09 27.4827 30.5861
6276.94 29.259 32.9872
6279.79 31.1635 34.1533
6282.64 32.2914 34.6349
6285.49 35.3859 38.2864
6288.34 30.0545 34.2555
6291.19 32.0443 38.3465
6294.04 38.8591 37.4929
6296.89 -6.01541 26.3902
6299.74 36.3331 28.8078
6302.59 38.636 38.4283
6305.44 27.251 28.4621
6308.29 39.03 48.5563
6311.13 43.2519 52.5956
6313.98 36.0957 45.4269
6316.83 36.7092 45.7563
6319.68 43.0348 52.712
6322.53 39.393 46.7182
6325.37 38.8906 44.2692
6328.22 31.6819 45.3305
6331.07 40.1377 47.4045
6333.92 42.3289 48.3554
6336.76 41.2538 48.1634
6339.61 45.0775 51.9885
6342.46 44.1646 51.3163
6345.31 35.1194 47.544
6348.15 35.3897 49.6467
6351 44.5079 51.3508
6353.85 45.9539 55.1362
6356.69 50.5508 58.2867
6359.54 48.0693 52.0472
6362.38 46.8634 49.0625
6365.23 29.3883 49.7506
6368.08 44.6269 51.1979
6370.92 42.4425 49.5029
6373.77 53.0173 61.7922
6376.61 53.4008 63.6748
6379.46 52.0225 62.2858
6382.3 50.246 58.5545
6385.15 46.1232 59.6774
6387.99 42.3508 51.359
6390.84 46.1475 58.2465
6393.68 44.0081 57.0243
6396.53 40.7076 60.1998
6399.37 48.9047 58.18
6402.22 48.58 62.9118
6405.06 48.6979 62.9898
6407.9 49.662 63.1671
6410.75 48.9175 62.6281
6413.59 49.7269 61.8022
6416.43 48.9828 62.5192
6419.28 49.2195 63.7947
6422.12 51.9049 63.7623
6424.96 46.7261 63.3082
6427.81 47.1968 66.3495
6430.65 52.7704 66.8134
6433.49 43.4867 59.7946
6436.33 49.9008 68.0599
6439.18 43.5384 61.2716
6442.02 48.0634 59.6182
6444.86 51.2934 64.0679
6447.7 53.0237 64.9175
6450.54 50.3373 61.8374
6453.39 52.486 64.0728
6456.23 47.2016 63.8376
6459.07 48.4291 60.9134
6461.91 51.619 65.3084
6464.75 42.5358 63.4701
6467.59 49.9079 59.9865
6470.43 50.2938 60.9919
6473.27 51.7823 60.3466
6476.11 43.4264 59.556
6478.95 52.7328 64.0415
6481.79 50.5428 60.0299
6484.63 52.9694 65.3943
6487.47 47.4932 60.623
6490.31 47.5716 60.7105
6493.15 53.0072 64.8815
6495.99 44.6684 61.818
6498.83 54.4414 65.5365
6501.67 43.1537 66.0648
6504.51 51.6208 65.7912
6507.35 50.7185 62.0198
6510.19 47.0426 58.2104
6513.03 52.6909 65.317
6515.86 47.5014 60.3377
6518.7 50.6436 61.4391
6521.54 49.1056 61.938
6524.38 50.4839 61.773
6527.22 49.5846 59.7973
6530.05 50.5065 62.9781
6532.89 41.2373 60.0772
6535.73 41.656 59.8396
6538.57 50.0135 62.935
6541.4 44.7201 63.6376
6544.24 46.7185 57.8833
6547.08 48.7481 61.5411
6549.91 45.2387 60.2873
6552.75 48.8493 62.1163
6555.59 44.3492 55.4657
6558.42 45.7796 57.4644
6561.26 37.0632 56.9429
6564.09 38.545 54.9275
6566.93 45.1774 56.459
6569.76 41.8724 59.5357
6572.6 43.461 53.4858
6575.44 49.1468 60.7219
6578.27 40.243 59.3512
6581.11 46.2849 57.7939
6583.94 40.8786 57.9473
6586.77 45.7273 58.3137
6589.61 42.7929 58.0779
6592.44 44.9748 55.7611
6595.28 48.3394 58.5482
6598.11 45.0627 57.2804
6600.95 39.1651 56.5385
6603.78 45.5315 55.9203
6606.61 45.0751 55.3673
6609.45 43.8664 55.6347
6612.28 44.1927 57.795
6615.11 46.5337 57.1964
6617.95 42.1707 52.8601
6620.78 40.7424 57.4264
6623.61 45.7964 57.9444
6626.44 44.4612 54.3836
6629.28 37.2618 54.7264
6632.11 45.3779 57.3136
6634.94 45.9189 57.9345
6637.77 42.1619 56.2447
6640.6 44.5461 57.947
6643.44 42.5645 56.023
6646.27 42.0679 50.6548
6649.1 44.992 54.7254
6651.93 38.7731 54.6088
6654.76 43.759 53.0584
6657.59 44.0319 59.2469
6660.42 48.3395 59.5732
6663.25 39.9386 53.8393
6666.08 40.3706 50.8518
6668.91 44.7839 57.6712
6671.74 46.2094 58.3865
6674.57 36.2101 51.0977
6677.4 45.7467 55.7557
6680.23 42.8336 53.7967
6683.06 42.0339 53.0152
6685.89 38.7965 54.0881
6688.72 36.8193 51.7616
6691.55 42.898 52.856
6694.38 42.1947 52.3349
6697.21 45.3087 55.9813
6700.04 39.4791 51.9937
6702.86 44.9376 56.0366
6705.69 41.4306 53.1046
6708.52 42.6183 54.8574
6711.35 39.3863 51.4726
6714.18 40.7645 52.755
6717 37.5229 53.9023
6719.83 42.5583 53.5815
6722.66 42.9846 54.0201
6725.48 40.1545 52.1217
6728.31 42.0868 53.6436
6731.14 42.9088 54.0274
6733.97 43.0597 56.2041
6736.79 42.9719 56.3955
6739.62 41.364 54.4333
6742.44 34.9872 52.0803
6745.27 42.3806 53.1208
6748.1 42.5706 53.2128
6750.92 37.3253 53.0485
6753.75 39.998 55.0386
6756.57 43.2257 51.7937
6759.4 40.2199 56.4412
6762.22 41.3616 53.6166
6765.05 43.0223 53.1673
6767.87 37.0793 54.1123
6770.7 41.1954 51.0745
6773.52 36.2515 51.4156
6776.35 40.3374 51.5165
6779.17 32.2249 47.1061
6781.99 39.8947 52.2967
6784.82 37.3548 53.5682
6787.64 40.1093 52.0645
6790.46 38.7059 48.3916
6793.29 40.577 51.7854
6796.11 40.2275 49.0483
6798.93 38.4274 49.2423
6801.76 40.471 49.6413
6804.58 36.8102 46.2486
6807.4 38.285 46.569
6810.22 38.9708 48.1913
6813.04 32.2282 46.2124
6815.87 33.6938 48.0827
6818.69 40.4235 51.2711
6821.51 37.2863 47.2368
6824.33 40.6459 50.3814
6827.15 33.9148 41.6748
6829.97 38.7368 47.2213
6832.8 36.738 45.1399
6835.62 38.8772 47.2827
6838.44 37.2589 43.9553
6841.26 35.3919 45.543
6844.08 38.8027 47.1733
6846.9 36.7027 44.2603
6849.72 36.0648 44.2786
6852.54 37.8177 46.5029
6855.36 37.3005 45.7562
6858.18 27.2678 42.9223
6861 24.2752 41.3949
6863.81 38.8583 46.443
6866.63 30.5645 34.7643
6869.45 22.2283 34.8724
6872.27 27.9253 34.5995
6875.09 25.8451 37.2623
6877.91 32.3509 41.8045
6880.73 32.0683 39.4455
6883.54 33.1109 40.1682
6886.36 33.6429 40.3285
6889.18 30.8649 39.3602
6892 32.3441 40.1412
6894.81 32.9938 40.6699
6897.63 35.133 42.8347
6900.45 34.0854 41.7474
6903.26 32.8468 39.9179
6906.08 36.6402 43.4014
6908.9 32.207 37.8469
6911.71 35.1163 44.0769
6914.53 29.623 44.0471
6917.35 34.7025 42.4852
6920.16 24.8214 41.1013
6922.98 34.5243 39.5135
6925.79 33.7594 38.6727
6928.61 28.2279 41.875
6931.42 36.0304 41.2662
6934.24 34.2598 43.3146
6937.05 35.5613 42.9288
6939.87 36.9331 42.8785
6942.68 33.1219 38.9715
6945.5 32.438 39.011
6948.31 27.5929 44.3824
6951.12 32.6237 38.1088
6953.94 29.5133 42.9877
6956.75 35.8667 44.2335
6959.57 40.3049 47.2536
6962.38 36.0332 43.1318
6965.19 34.2677 42.1798
6968 36.9944 43.2663
6970.82 35.5787 40.619
6973.63 33.9721 41.6695
6976.44 24.2929 38.7982
6979.25 27.5914 40.5452
6982.07 34.7979 43.7341
6984.88 35.3953 42.0346
6987.69 27.0712 39.4899
6990.5 35.66 40.5061
6993.31 29.5481 41.6355
6996.12 36.2724 44.421
6998.93 32.3312 36.0692
7001.75 33.601 37.9779
7004.56 30.5679 42.5001
7007.37 37.8216 44.7864
7010.18 33.637 39.5201
7012.99 33.1718 41.2929
7015.8 33.2828 40.9821
7018.61 32.8171 37.9473
7021.42 33.4943 38.6265
7024.23 30.7577 38.5919
7027.04 34.9782 40.6689
7029.84 35.8152 40.4415
7032.65 37.1669 44.4209
7035.46 35.407 42.8498
7038.27 31.9588 38.1707
7041.08 34.7758 39.7856
7043.89 30.1062 41.6163
7046.69 31.1126 37.1763
7049.5 33.2258 40.2453
7052.31 33.1426 44.7166
7055.12 33.3468 40.591
7057.93 33.9551 36.9694
7060.73 36.9144 42.9951
7063.54 36.8427 43.8176
7066.35 33.5587 41.2294
7069.15 36.3387 42.2046
7071.96 32.1273 38.8739
7074.77 31.458 39.4273
7077.57 34.9539 39.8711
7080.38 33.7608 40.564
7083.18 35.7271 41.5249
7085.99 33.3707 38.07
7088.79 26.7846 38.8285
7091.6 35.2272 41.6301
7094.4 33.6882 39.4618
7097.21 34.0563 40.5014
7100.01 36.3472 41.8018
7102.82 32.3051 37.0871
7105.62 31.1893 37.714
7108.43 35.1817 39.3789
7111.23 29.613 39.944
7114.03 32.8922 41.3833
7116.84 33.8119 40.8196
7119.64 33.8684 39.0461
7122.44 32.1019 36.9048
7125.25 32.0558 39.1777
7128.05 31.0295 35.4903
7130.85 34.7814 42.1429
7133.66 37.0132 43.5908
7136.46 35.5006 40.1687
7139.26 34.9016 42.5916
7142.06 33.5252 40.3848
7144.86 35.2092 42.8488
7147.66 33.1563 38.7454
7150.47 27.5578 38.2714
7153.27 35.3166 39.8575
7156.07 34.1662 41.242
7158.87 33.9439 38.1648
7161.67 36.0096 41.866
7164.47 37.2975 41.1861
7167.27 33.1088 40.411
7170.07 36.1952 43.4543
7172.87 33.6723 42.5772
7175.67 31.2896 36.4608
7178.47 32.6668 38.5058
7181.27 34.6552 40.5667
7184.07 32.0602 39.6566
7186.87 31.4993 38.9171
7189.67 32.7667 38.7471
7192.47 33.2498 37.5019
7195.26 36.5624 41.6193
7198.06 32.6188 37.7042
7200.86 35.2595 39.9144
7203.66 32.3221 38.1497
7206.46 36.4684 43.5722
7209.25 36.0032 41.401
7212.05 32.0167 37.5243
7214.85 35.4999 41.0502
7217.64 34.1549 41.1627
7220.44 28.0875 38.3037
7223.24 35.4087 41.4403
7226.03 35.1385 41.0585
7228.83 32.9301 39.5875
7231.63 34.4258 39.5393
7234.42 33.5661 37.6415
7237.22 31.5933 35.065
7240.01 33.4305 37.6673
7242.81 38.529 43.3181
7245.6 35.1444 39.9723
7248.4 32.0247 35.6286
7251.19 29.4288 39.4565
7253.99 25.2802 40.8207
7256.78 30.3522 33.331
7259.58 29.4418 34.7865
7262.37 29.3759 34.708
7265.16 26.204 37.7319
7267.96 30.5822 35.7066
7270.75 23.0095 39.459
7273.54 13.9504 34.9294
7276.34 35.7934 40.1954
7279.13 12.154 35.7104
7281.92 33.4078 41.2986
7284.72 29.7659 33.6866
7287.51 31.0112 36.3222
7290.3 35.7224 39.5875
7293.09 31.1157 35.8439
7295.88 33.4873 38.0957
7298.68 30.2905 31.62
7301.47 22.3448 34.2159
7304.26 29.787 32.9017
7307.05 24.2628 37.7651
7309.84 21.2719 35.8255
7312.63 31.1392 33.7718
7315.42 33.5511 37.4617
7318.21 33.2918 39.5695
7321 21.0896 34.8416
7323.79 31.4358 37.1992
7326.58 30.4634 33.4991
7329.37 35.5561 37.9897
7332.16 30.2674 34.1613
7334.95 31.8369 38.1775
7337.74 29.3497 27.7502
7340.53 33.5862 37.5537
7343.31 29.0549 39.1632
7346.1 29.3319 38.8399
7348.89 28.0639 39.3344
7351.68 26.9249 36.3643
7354.47 31.1525 38.6183
7357.25 26.9678 35.5812
7360.04 29.1426 36.8831
7362.83 33.148 37.5704
7365.61 30.1067 36.797
7368.4 33.2378 38.1224
7371.19 25.7795 34.3122
7373.97 25.65 36.2875
7376.76 27.1083 36.6395
7379.55 29.0629 38.1973
7382.33 28.2143 34.515
7385.12 29.2105 31.3292
7387.9 27.9299 35.3642
7390.69 26.5417 30.2903
7393.47 29.755 33.7548
7396.26 33.8145 35.9099
7399.04 26.8863 36.9979
7401.83 29.3183 37.9814
7404.61 25.4897 32.3077
7407.39 29.7956 35.2896
7410.18 27.1878 35.261
7412.96 27.1816 30.0991
7415.75 27.3887 29.6936
7418.53 28.6662 34.6943
7421.31 25.5027 29.9755
7424.09 26.5858 33.9275
7426.88 30.2626 34.0053
7429.66 31.6122 36.2964
7432.44 26.6781 32.5867
7435.22 29.7974 35.4288
7438.01 31.0684 36.3566
7440.79 28.0963 35.5169
7443.57 28.3016 36.316
7446.35 29.5531 35.9413
7449.13 25.8836 28.3809
7451.91 25.9719 32.8508
7454.69 26.3624 33.584
7457.47 27.1152 33.5949
7460.25 28.8349 35.4302
7463.03 26.0517 31.4711
7465.81 25.9051 33.0416
7468.59 23.2426 30.3649
7471.37 26.9783 36.8769
7474.15 27.0245 36.0108
7476.93 27.8726 35.3739
7479.71 24.7266 30.5183
7482.49 28.3295 38.2419
7485.27 29.5854 35.3165
7488.04 27.7552 33.4113
7490.82 24.6026 33.2637
7493.6 25.0121 31.9253
7496.38 20.371 27.2943
7499.15 24.1856 29.9004
7501.93 29.0602 35.4552
7504.71 27.068 31.5001
7507.49 25.1379 32.2375
7510.26 24.8797 28.3175
7513.04 23.9661 30.0318
7515.81 25.3744 26.7411
7518.59 27.1985 33.5661
7521.37 27.0693 30.4692
7524.14 26.18 32.4345
7526.92 24.2859 29.8497
7529.69 27.9541 32.3619
7532.47 21.772 29.0091
7535.24 23.1928 26.5347
7538.02 26.3831 28.3073
7540.79 23.0137 24.2026
7543.56 22.995 26.4653
7546.34 24.4519 29.6629
7549.11 22.303 25.4176
7551.89 22.1625 29.3511
7554.66 23.3304 26.8201
7557.43 21.174 23.1355
7560.21 24.3994 27.561
7562.98 21.1554 22.5551
7565.75 23.8958 27.8426
7568.52 24.5329 22.5941
7571.3 20.756 24.5021
7574.07 21.2707 26.3882
7576.84 18.5849 26.8709
7579.61 18.2259 22.8906
7582.38 21.7449 26.3496
7585.15 20.9371 24.2375
7587.92 16.5832 22.9883
7590.69 16.5034 19.8776
7593.46 15.909 19.8921
7596.23 11.7344 16.5325
7599 7.26226 11.5721
7601.77 6.9976 8.27959
7604.54 5.01513 8.42423
7607.31 6.42125 6.16744
7610.08 9.36963 9.48443
7612.85 12.6366 14.0207
7615.62 12.1023 15.5578
7618.39 11.7561 14.806
7621.16 13.1306 16.0753
7623.93 9.07002 16.1585
7626.69 12.0755 13.907
7629.46 8.08923 12.6482
7632.23 9.86567 11.8308
7635 11.9971 12.2135
7637.76 11.1393 15.0827
7640.53 14.732 16.9357
7643.3 12.6087 14.1986
7646.06 14.5565 17.7017
7648.83 15.1309 16.1567
7651.59 14.6091 15.8811
7654.36 16.4137 19.4488
7657.13 18.0616 21.842
7659.89 15.205 20.992
7662.66 17.4783 22.2196
7665.42 20.9752 24.9954
7668.19 18.6429 22.7625
7670.95 19.0667 23.0336
7673.72 20.9375 24.6796
7676.48 22.0483 26.2647
7679.24 20.8023 21.6458
7682.01 23.5157 23.7428
7684.77 22.2339 26.085
7687.53 21.1992 21.2833
7690.3 20.2508 24.7914
7693.06 23.7077 24.3723
7695.82 19.417 25.1281
7698.58 22.5679 25.3023
7701.35 27.3502 25.6073
7704.11 28.8852 24.5329
7706.87 35.2936 22.9308
7709.63 22.1449 22.0498
7712.39 27.9095 23.5702
7715.15 22.9332 30.2126
7717.92 27.168 33.9845
7720.68 22.0898 31.2621
7723.44 21.4791 28.0495
7726.2 23.8425 26.902
7728.96 26.0261 31.7206
7731.72 20.8887 25.4156
7734.48 24.7809 23.8678
7737.24 24.384 23.6088
7740 24.9609 24.6725
7742.75 24.8722 22.8358
7745.51 25.9909 26.1142
7748.27 27.7825 25.2768
7751.03 26.259 23.9128
7753.79 24.3349 33.2078
7756.55 24.9964 28.6792
7759.3 23.7593 32.9714
7762.06 24.6595 29.8818
7764.82 25.17 33.1
7767.58 25.5788 32.1909
7770.33 23.7225 28.1296
7773.09 27.6146 26.358
7775.84 25.158 25.7329
7778.6 29.4827 31.4827
7781.36 26.6679 26.9085
7784.11 21.2191 24.6241
7786.87 28.0452 24.5576
7789.62 22.273 23.5572
7792.38 23.1408 25.0409
7795.13 24.6839 28.2435
7797.89 28.9811 35.1382
7800.64 21.444 25.0193
7803.4 28.3208 30.802
7806.15 26.6891 28.0498
7808.9 27.9338 28.5255
7811.66 25.1319 29.0394
7814.41 26.4372 24.6658
7817.16 27.1428 24.6024
7819.92 18.0138 18.9014
7822.67 24.4409 27.2569
7825.42 26.9088 39.345
7828.17 25.2834 30.1819
7830.93 24.7377 29.5033
7833.68 24.046 27.9511
7836.43 25.4532 23.6937
7839.18 30.9881 30.1595
7841.93 31.0258 28.6044
7844.68 25.223 24.3609
7847.43 24.6274 18.8937
7850.18 27.8784 26.3472
7852.93 34.82 30.282
7855.68 26.3338 25.8078
7858.43 26.9537 29.0841
7861.18 30.2555 33.4505
7863.93 22.5029 28.0178
7866.68 27.7332 31.8004
7869.43 29.6124 31.0519
7872.18 27.1658 26.3857
7874.93 24.5242 32.3523
7877.67 27.6104 30.0932
7880.42 24.2896 29.6657
7883.17 25.9174 26.1855
7885.92 27.8771 31.5265
7888.67 26.0981 29.9166
7891.41 22.6902 24.729
7894.16 23.4285 24.5155
7896.91 26.7524 26.248
7899.65 28.7709 31.4158
7902.4 30.1236 32.5137
7905.14 23.6772 21.5976
7907.89 33.2703 25.795
7910.64 26.7398 20.5613
7913.38 26.7192 22.8157
7916.13 22.3786 24.6225
7918.87 23.5675 30.3507
7921.61 30.8795 34.6145
7924.36 29.7717 32.9951
7927.1 23.9806 26.4687
7929.85 30.1183 32.2065
7932.59 28.9797 31.2263
7935.33 27.5424 25.8283
7938.08 26.4117 29.7516
7940.82 20.6937 22.4815
7943.56 25.7524 28.7397
7946.31 24.9224 22.2489
7949.05 28.6775 27.7346
7951.79 26.797 29.7463
7954.53 26.5015 27.5102
7957.27 25.1665 26.0901
7960.01 31.1714 30.9022
7962.76 27.9979 21.3432
7965.5 30.2118 28.121
7968.24 26.1972 31.9795
7970.98 27.3419 30.6403
7973.72 24.7082 25.0807
7976.46 26.5204 22.1941
7979.2 28.5381 27.3727
7981.94 26.313 26.0651
7984.68 22.4024 20.4624
7987.41 28.9058 21.2509
7990.15 32.4144 21.1488
7992.89 26.9473 21.4453
7995.63 22.159 33.8199
7998.37 26.3229 35.002
8001.11 26.1333 31.9388
8003.84 25.7556 30.1793
8006.58 25.9421 25.3932
8009.32 19.3026 20.1193
8012.06 28.1663 22.3232
8014.79 24.3375 26.0117
8017.53 27.0447 28.9656
8020.26 28.0865 25.3788
8023 27.2843 20.9915
8025.74 21.0075 24.9505
8028.47 24.4142 28.5111
8031.21 27.0234 31.5101
8033.94 23.4919 24.4772
8036.68 27.0735 26.6607
8039.41 25.2252 25.8201
8042.15 30.1642 28.0714
8044.88 22.3664 23.0862
8047.61 24.0664 24.3872
8050.35 24.7805 23.9644
8053.08 25.4602 25.5967
8055.81 27.3033 29.8107
8058.55 24.2345 25.372
8061.28 23.2357 27.6813
8064.01 18.5876 22.2694
8066.74 25.5419 27.2415
8069.48 28.2171 27.7234
8072.21 20.7415 24.5226
8074.94 25.4815 26.8281
8077.67 24.7349 23.936
8080.4 25.0327 26.1587
8083.13 23.6144 21.1472
8085.86 20.2984 23.5785
8088.59 21.9818 24.7988
8091.32 25.7343 26.9138
8094.05 22.8259 20.6245
8096.78 25.7079 20.8784
8099.51 25.2883 20.1998
8102.24 26.0891 22.7393
8104.97 27.7639 25.9734
8107.7 19.1194 21.3168
8110.43 18.8099 20.4824
8113.16 24.0856 22.997
8115.88 25.4559 22.6412
8118.61 26.9121 26.7468
8121.34 22.7477 20.6467
8124.07 22.6094 19.9604
8126.79 23.8667 23.3043
8129.52 22.0726 21.7927
8132.25 23.0369 19.5738
8134.97 22.7814 22.7987
8137.7 22.2108 20.2377
8140.43 22.444 21.8249
8143.15 19.065 15.2678
8145.88 21.5445 26.0229
8148.6 21.6987 20.4462
8151.33 21.7683 17.1919
8154.05 21.2401 21.7074
8156.77 23.2619 22.4729
8159.5 19.2774 19.5697
8162.22 22.1095 17.0616
8164.95 21.4348 19.3089
8167.67 21.7785 20.9754
8170.39 25.2873 22.9092
8173.12 22.8396 22.6252
8175.84 20.6164 22.422
8178.56 21.6815 17.8436
8181.28 19.6617 19.1285
8184 21.8029 18.5721
8186.73 22.2687 17.4685
8189.45 21.2653 19.1942
8192.17 19.4713 20.685
8194.89 22.8885 25.5313
8197.61 15.556 16.701
8200.33 19.7427 21.904
8203.05 21.7498 22.5078
8205.77 19.1967 22.7695
8208.49 19.7766 20.6128
8211.21 19.6465 20.5087
8213.93 20.6072 20.9929
8216.65 19.0659 18.331
8219.37 24.4161 20.514
8222.09 20.7143 20.8148
8224.8 20.9376 21.8304
8227.52 20.1751 20.4169
8230.24 17.7596 18.8961
8232.96 17.6622 18.1872
8235.67 21.7729 18.729
8238.39 20.4651 22.4742
8241.11 24.1837 19.6256
8243.82 17.781 18.5248
8246.54 21.8199 21.2998
8249.26 23.4597 19.8792
8251.97 23.9319 23.0572
8254.69 20.4279 21.477
8257.4 14.7074 18.9518
8260.12 19.9822 20.7283
8262.83 17.6244 21.9942
8265.55 20.6615 19.0442
8268.26 21.2874 18.2359
8270.98 19.8295 17.3783
8273.69 19.5993 18.3305
8276.4 20.8933 15.2228
8279.12 15.9945 15.519
8281.83 16.7639 23.8114
8284.54 14.2236 18.2992
8287.25 17.8896 13.1262
8289.97 14.269 13.1351
8292.68 20.2629 18.7307
8295.39 19.3421 19.572
8298.1 25.3454 27.8696
8300.81 14.2989 14.4015
8303.52 18.9606 21.2539
8306.24 19.1311 23.0451
8308.95 18.3347 11.7141
8311.66 16.7784 15.542
8314.37 20.995 18.7377
8317.08 18.9542 19.1981
8319.79 15.286 17.5927
8322.49 22.5244 18.9935
8325.2 18.7765 18.062
8327.91 17.5241 18.1981
8330.62 19.8417 19.7802
8333.33 15.8982 11.9133
8336.04 21.0627 15.0895
8338.74 25.841 18.8922
8341.45 27.1585 15.5498
8344.16 20.9225 14.3639
8346.87 12.577 15.3113
8349.57 9.57543 23.2586
8352.28 18.382 21.5671
8354.99 11.478 16.7556
8357.69 9.93873 19.2102
8360.4 10.4593 16.7097
8363.1 12.8981 14.9572
8365.81 16.0417 15.4552
8368.51 16.2214 21.8416
8371.22 22.8012 21.7253
8373.92 18.1024 18.65
8376.63 26.7136 24.5457
8379.33 24.2137 11.5933
8382.03 14.8254 17.3352
8384.74 16.3866 12.9894
8387.44 15.9497 11.3793
8390.14 16.9634 18.0423
8392.85 25.2306 20.87
8395.55 20.7686 13.8622
8398.25 9.76581 20.0071
8400.95 20.6289 19.1634
8403.65 20.8852 19.4111
8406.35 14.2112 14.6022
8409.06 15.2488 14.9014
8411.76 20.6259 10.3741
8414.46 10.7401 12.8564
8417.16 16.4821 11.6296
8419.86 13.5025 8.48044
8422.56 19.1935 16.786
8425.26 16.2341 10.0621
8427.96 28.5808 13.3154
8430.66 30.4931 14.7575
8433.35 15.9673 6.2829
8436.05 14.4227 16.7673
8438.75 15.991 19.7537
8441.45 18.9687 14.8223
8444.15 17.4423 15.6159
8446.84 19.0507 16.1
8449.54 18.4478 12.8099
8452.24 18.0876 15.313
8454.93 17.8949 17.4288
8457.63 13.6297 17.2245
8460.33 22.5433 19.3771
8463.02 19.5849 11.8321
8465.72 13.2419 13.1794
8468.41 19.5833 15.0811
8471.11 5.3797 12.3055
8473.8 17.7645 7.80208
8476.5 15.7435 12.9638
8479.19 17.3399 11.6834
8481.89 18.9498 16.588
8484.58 16.3682 11.3974
8487.27 22.8103 19.1549
8489.97 20.5895 13.1528
8492.66 13.1409 9.14763
8495.35 25.2779 18.4002
8498.05 23.1507 14.0624
8500.74 19.799 13.9029
8503.43 27.9946 13.0001
8506.12 24.5857 10.9853
8508.81 21.2419 13.5743
8511.5 17.8881 17.2497
8514.19 15.8859 8.70487
8516.88 18.4462 14.2273
8519.58 21.1713 14.4329
8522.27 19.243 13.1963
8524.96 18.7477 12.6206
8527.64 19.1212 15.9045
8530.33 19.6123 14.9753
8533.02 22.3635 9.95448
8535.71 18.3089 17.4954
8538.4 21.9285 13.463
8541.09 21.1472 13.9013
8543.78 18.2443 13.6352
8546.46 18.8081 16.0148
8549.15 18.329 15.4155
8551.84 19.683 12.784
8554.53 20.8396 14.94
8557.21 15.8923 9.32898
8559.9 19.7239 12.2173
8562.58 20.4682 14.8945
8565.27 18.6798 15.3137
8567.96 21.5096 13.6677
8570.64 22.9509 14.2089
8573.33 19.9986 18.7551
8576.01 21.7721 15.7514
8578.69 23.7673 15.5246
8581.38 21.82 12.7779
8584.06 19.953 14.2838
8586.75 18.6375 11.0061
8589.43 21.5665 19.3607
8592.11 19.8302 15.4858
8594.8 22.2611 15.8504
8597.48 19.3433 15.3191
8600.16 22.294 16.2043
8602.84 20.6386 13.5513
8605.52 25.4949 13.6193
8608.21 21.384 14.9707
8610.89 18.8215 12.9752
8613.57 22.8725 15.2769
8616.25 24.3174 17.7423
8618.93 24.0118 14.2768
8621.61 20.1214 15.6555
8624.29 21.2661 18.0664
8626.97 18.3464 15.2251
8629.65 20.9457 13.8144
8632.33 18.7327 10.1076
8635.01 19.823 16.3728
8637.68 14.4471 6.55486
8640.36 23.8202 14.5894
8643.04 22.4843 13.1095
8645.72 23.8233 9.5651
8648.4 20.0499 14.6991
8651.07 30.0031 14.2602
8653.75 28.9702 19.2454
8656.43 22.0343 11.4617
8659.1 25.0097 14.1091
8661.78 22.2594 8.13229
8664.45 23.1303 19.3544
8667.13 29.5621 14.8274
8669.8 24.1886 15.5696
8672.48 24.1585 12.6244
8675.15 19.183 10.3151
8677.83 20.8059 9.99693
8680.5 19.1609 12.326
8683.18 23.7661 17.1936
8685.85 22.7031 15.1232
8688.52 23.4372 15.0985
8691.2 21.7287 13.1864
8693.87 24.2954 14.7389
8696.54 25.9463 14.8753
8699.21 25.1135 18.4849
8701.89 25.618 16.2362
8704.56 22.7706 10.1262
8707.23 22.065 8.81449
8709.9 21.6112 15.7435
8712.57 24.6235 12.0506
8715.24 22.224 11.4745
8717.91 20.1165 9.81168
8720.58 21.6684 10.1754
8723.25 23.7969 12.9852
8725.92 25.4703 16.0287
8728.59 22.3659 13.2754
8731.26 21.5678 13.3999
8733.93 23.6006 11.6797
8736.59 23.0816 13.1015
8739.26 22.8735 16.2907
8741.93 22.4449 12.169
8744.6 21.3876 8.2382
8747.26 19.6218 7.65527
8749.93 25.6916 9.27865
8752.6 22.8461 12.707
8755.26 19.1829 10.9802
8757.93 18.2579 18.6204
8760.6 19.9873 4.17759
8763.26 24.3018 3.41409
8765.93 21.3282 -9.1867
8768.59 19.0388 -4.15935
8771.26 12.0299 -13.1199
8773.92 21.2607 6.55996
8776.58 24.8454 7.72231
8779.25 21.2377 -6.25112
8781.91 23.9344 -2.40051
8784.57 21.1228 -7.31446
8787.24 20.4034 8.9384
8789.9 17.2896 3.75555
8792.56 17.7642 -0.105619
8795.22 22.3539 6.90457
8797.89 15.1406 1.70326
8800.55 24.1092 9.75868
8803.21 20.649 5.28514
8805.87 19.8857 4.95996
8808.53 19.8956 3.15739
8811.19 21.308 2.09085
8813.85 22.7574 1.53369
8816.51 26.2861 7.7522
8819.17 23.5082 7.12349
8821.83 24.6851 15.1941
8824.49 28.2148 -10.1735
8827.15 38.1052 -12.0404
8829.8 18.9175 -29.092
8832.46 25.8691 -9.03527
8835.12 23.2516 10.4902
8837.78 23.3056 -1.4261
8840.44 31.3023 2.5821
8843.09 18.1508 15.8152
8845.75 20.5454 6.363
8848.41 20.6424 11.4748
8851.06 25.2888 2.78046
8853.72 27.5928 -7.29614
8856.37 20.9449 8.75733
8859.03 21.1737 3.57925
8861.68 23.0513 1.99575
8864.34 27.0286 -1.85247
8866.99 21.0923 0.300069
8869.65 26.8663 -0.40267
8872.3 30.5659 -1.53669
8874.95 23.0276 14.1335
8877.61 23.5109 0.888423
8880.26 17.297 -1.13345
8882.91 24.5228 -10.2414
8885.56 28.0647 3.94837
8888.22 21.8791 8.65868
8890.87 16.9665 22.2942
8893.52 11.6759 13.5368
8896.17 17.1117 8.19454
8898.82 23.0436 -4.91619
8901.47 25.0687 -6.18885
8904.12 16.169 -3.98958
8906.77 25.1741 4.94229
8909.42 20.3253 -1.27231
8912.07 22.6279 -0.513985
8914.72 13.5683 -17.4479
8917.37 25.4504 -9.75953
8920.02 29.7529 13.6804
8922.66 11.9049 -13.5395
8925.31 16.5049 11.6559
8927.96 11.6434 -15.042
8930.61 19.7321 -2.85367
8933.25 15.8293 0.480888
8935.9 23.3928 -8.31093
8938.55 21.7766 0.801287
8941.19 25.7988 -4.95771
8943.84 17.3915 1.04738
8946.49 21.2399 8.14821
8949.13 20.1904 -14.2266
8951.78 9.64207 -23.3798
8954.42 16.8686 -21.2887
8957.06 21.9746 8.59374
8959.71 26.6859 16.2033
8962.35 17.6827 -1.8426
8965 8.38644 -33.96
8967.64 10.4044 -27.844
8970.28 12.7383 -22.0274
8972.92 17.2858 -3.96659
8975.57 19.7155 2.58164
8978.21 16.6994 1.70127
8980.85 15.3191 4.31673
8983.49 19.4243 3.65003
8986.13 18.3075 4.82246
8988.77 17.1564 11.4439
8991.41 19.4863 8.34492
8994.05 19.0772 1.6296
8996.69 19.0571 -13.6711
8999.33 17.16 26.0857
9001.97 18.707 22.641
9004.61 20.3612 22.7347
9007.25 12.3009 -16.2541
9009.89 16.8728 -45.6425
9012.53 16.1038 -19.4423
9015.17 19.7899 -7.32718
9017.8 16.7086 4.53404
9020.44 20.1475 12.1081
9023.08 18.8851 4.35319
9025.71 14.3316 9.05994
9028.35 16.55 16.2803
9030.99 18.4355 15.7285
9033.62 17.2635 9.6996
9036.26 20.71 20.9198
9038.89 18.4732 21.6582
9041.53 16.5209 7.98776
9044.16 17.9771 2.57796
9046.8 21.9355 15.1229
9049.43 18.4395 29.8943
9052.06 17.4337 11.2573
9054.7 17.3428 0.905412
9057.33 15.1103 -16.3589
9059.96 18.074 -11.9947
9062.6 20.5347 0.666347
