wavelength spectrum_sum 3smoothed_sum spectrum_optimal 3smoothed_optimal
3514.38 -9.44804 -3.37846 -3.55819 2.1871
3517.31 -0.687334 -1.32824 10.1195 2.75291
3520.23 6.15067 6.01225 1.69742 5.58488
3523.16 12.5734 1.45023 4.93773 0.734458
3526.09 -14.3734 7.73877 -4.43177 3.13809
3529.01 25.0163 3.55452 8.90831 -0.234548
3531.94 0.020663 5.52909 -5.18018 2.60984
3534.87 -8.44967 0.455831 4.1014 -0.548669
3537.79 9.7965 -2.31925 -0.567229 3.18667
3540.72 -8.3046 3.92263 6.02584 3.74317
3543.65 10.276 -1.88081 5.7709 12.1898
3546.57 -7.61381 3.38111 24.7727 10.4279
3549.5 7.48115 5.12977 0.740001 15.9812
3552.42 15.522 -0.0295435 22.4309 8.96985
3555.35 -23.0918 0.813081 3.73862 13.4482
3558.28 10.009 -5.58597 14.175 12.0502
3561.2 -3.67518 0.407769 18.237 15.2739
3564.13 -5.11053 -1.82639 13.4096 25.3283
3567.05 3.30653 1.60789 44.3385 27.4864
3569.98 6.62768 7.2591 24.7113 28.5051
3572.91 11.8431 9.85297 16.4656 19.8708
3575.83 11.0881 3.0091 18.4354 12.6311
3578.76 -13.9039 3.00112 2.9924 11.2274
3581.68 11.8192 -0.697887 12.2543 10.7887
3584.61 -0.00888471 5.51192 17.1194 15.3738
3587.53 4.7255 -0.136732 16.7478 15.6241
3590.46 -5.12681 6.23912 13.005 12.8292
3593.38 19.1187 14.8286 8.7347 15.7793
3596.31 30.4941 14.6213 25.598 7.74757
3599.24 -5.74887 8.62927 -11.09 8.02631
3602.16 1.14263 3.24628 9.57091 8.29335
3605.09 14.3451 7.03355 26.3991 16.4931
3608.01 5.61294 11.0933 13.5094 17.9486
3610.94 13.3219 10.3821 13.9373 2.51767
3613.86 12.2116 12.049 -19.8937 5.80057
3616.79 10.6135 2.70253 23.3581 3.10735
3619.71 -14.7175 -5.21024 5.85766 9.55801
3622.64 -11.5267 -0.930436 -0.541737 1.6757
3625.56 23.4529 11.7626 -0.288827 -5.22786
3628.48 23.3615 26.0095 -14.853 6.93255
3631.41 31.214 23.6159 35.9395 18.0917
3634.33 16.2723 11.0701 33.1887 29.6461
3637.26 -14.2759 4.45568 19.8101 23.5964
3640.18 11.3707 8.27106 17.7905 11.8482
3643.11 27.7184 17.2222 -2.05593 7.56421
3646.03 12.5774 18.7635 6.95807 3.61784
3648.96 15.9946 18.4121 5.95139 -1.86103
3651.88 26.6643 20.7622 -18.4925 -1.3707
3654.8 19.6278 17.176 8.42905 -3.76424
3657.73 5.23591 9.03773 -1.22924 8.91662
3660.65 2.24947 -2.693 19.55 3.18141
3663.58 -15.5644 4.23929 -8.77655 16.1609
3666.5 26.0328 -4.26443 37.7094 4.09625
3669.42 -23.2617 9.21922 -16.6441 17.979
3672.35 24.8866 -2.61379 32.8716 2.51133
3675.27 -9.46625 13.1346 -8.69351 15.2681
3678.2 23.9836 1.30261 21.6262 -1.14105
3681.12 -10.6096 11.8376 -16.3558 9.0596
3684.04 22.1388 11.7294 21.9084 13.8866
3686.97 23.6589 26.0006 36.1072 30.0172
3689.89 32.2042 27.3119 32.0358 26.0148
3692.81 26.0727 28.0842 9.90134 17.7287
3695.74 25.9758 20.2865 11.2488 16.0291
3698.66 8.81087 22.7863 26.9372 13.4418
3701.58 33.5723 13.1869 2.1393 1.80052
3704.51 -2.82241 17.0459 -23.6749 -3.84302
3707.43 20.3877 5.76119 10.0066 0.955128
3710.35 -0.281681 -3.73854 16.5337 1.88442
3713.28 -31.3216 -12.2564 -20.8871 -11.1794
3716.2 -5.16579 -4.50583 -29.1848 -17.3586
3719.12 22.9699 1.57097 -2.00378 -6.06697
3722.05 -13.0912 0.868698 12.9877 -3.65126
3724.97 -7.2726 -7.76876 -21.9377 6.04845
3727.89 -2.94248 -4.60053 27.0953 5.16658
3730.81 -3.58651 -3.23145 10.3421 14.8035
3733.74 -3.16536 -3.36548 6.97311 17.2811
3736.66 -3.34458 -1.6213 34.5282 17.1326
3739.58 1.64604 -4.50526 9.89666 25.707
3742.5 -11.8173 4.83396 32.6962 24.3879
3745.43 24.6731 6.60631 30.5709 33.3718
3748.35 6.96309 8.39474 36.8482 27.0503
3751.27 -6.45197 0.674896 13.7319 27.9335
3754.19 1.51356 3.32091 33.2204 21.0742
3757.12 14.9011 5.57314 16.2704 26.7773
3760.04 0.30474 -3.31435 30.841 13.0067
3762.96 -25.1489 -4.14834 -8.09124 13.6942
3765.88 12.3992 -5.14985 18.3327 12.0217
3768.8 -2.69978 13.0426 25.8235 22.7766
3771.73 29.4283 24.5846 24.1734 34.6517
3774.65 47.0254 37.0948 53.9582 44.0456
3777.57 34.8307 35.5162 54.0052 46.4715
3780.49 24.6924 29.8266 31.4511 39.5973
3783.41 29.9567 21.2731 33.3355 28.0322
3786.33 9.17018 15.0135 19.3101 26.7285
3789.26 5.91343 6.61614 27.5401 22.8317
3792.18 4.76481 9.32867 21.645 22.1618
3795.1 17.3078 3.18631 17.3005 18.5556
3798.02 -12.5136 15.5537 16.7215 28.1263
3800.94 41.867 4.62401 50.3569 33.6658
3803.86 -15.4813 12.283 33.919 37.3269
3806.78 10.4633 5.50429 27.7047 42.5576
3809.71 21.5309 18.2422 66.0493 44.8623
3812.63 22.7323 18.5217 40.833 39.502
3815.55 11.3018 18.8888 11.6236 38.342
3818.47 22.6322 7.80488 62.5694 30.0169
3821.39 -10.5194 12.5644 15.8578 42.8781
3824.31 25.5803 4.74731 50.2072 34.6441
3827.23 -0.81899 8.24048 37.8673 33.8091
3830.15 -0.0399082 9.952 13.3527 28.9418
3833.07 30.7149 2.72129 35.6055 20.6292
3835.99 -22.5111 10.0599 12.9294 31.8484
3838.92 21.9761 3.53977 47.0103 32.2291
3841.84 11.1544 9.43429 36.7475 38.8985
3844.76 -4.82758 10.2458 32.9378 36.3147
3847.68 24.4107 16.3513 39.2589 33.0996
3850.6 29.4707 26.6089 27.1022 36.6121
3853.52 25.9454 26.7267 43.4752 40.5362
3856.44 24.7639 10.0108 51.0311 24.492
3859.36 -20.6767 -1.93661 -21.0304 12.2875
3862.28 -9.89698 -13.5191 6.86177 -1.15327
3865.2 -9.9835 -0.0236875 10.7088 18.3934
3868.12 19.8094 0.795422 37.6097 20.1483
3871.04 -7.43965 7.57701 12.1262 24.2377
3873.96 10.3613 -2.39102 22.9772 20.7846
3876.88 -10.0947 3.07492 27.2503 27.3747
3879.8 8.95816 5.50478 31.8965 37.747
3882.72 17.6508 8.16774 54.094 29.1481
3885.64 -2.10579 2.25211 1.45382 18.0147
3888.56 -8.78872 12.5939 -1.50382 9.78962
3891.48 48.6763 12.238 29.4189 6.36109
3894.4 -3.17368 24.7763 -8.83178 20.1816
3897.32 28.8264 4.62758 39.9578 7.64875
3900.24 -11.77 9.38695 -8.17976 19.6855
3903.15 11.1044 2.96601 27.2783 14.9383
3906.07 9.56359 8.48477 25.7163 28.4497
3908.99 4.78631 17.6146 32.3544 22.9069
3911.91 38.4939 29.765 10.65 18.1661
3914.83 46.0149 49.1009 11.494 16.2756
3917.75 62.7938 39.7719 26.683 5.7835
3920.67 10.5071 30.3806 -20.8265 10.9429
3923.59 17.8408 12.2113 26.9721 -6.81069
3926.51 8.28614 14.6234 -26.5777 -6.65511
3929.43 17.7434 23.2523 -20.3597 -11.4276
3932.35 43.7273 19.6597 12.6544 -3.88127
3935.26 -2.49147 19.6267 -3.93854 2.71584
3938.18 17.6444 -4.49845 -0.568377 -16.1783
3941.1 -28.6483 18.0255 -44.0281 -4.03246
3944.02 65.0805 15.057 32.4991 -0.75417
3946.94 8.7386 18.7208 9.2665 14.3736
3949.86 -17.6569 -3.97838 1.35524 0.149689
3952.78 -3.01687 6.96554 -10.1727 -2.16996
3955.69 41.5704 22.0336 2.30755 -3.21833
3958.61 27.5474 30.2831 -1.78988 -0.722313
3961.53 21.7316 27.5532 -2.68461 0.409151
3964.45 33.3805 15.8145 5.70194 5.08287
3967.37 -7.66861 27.3469 12.2313 13.2655
3970.28 56.3287 31.2817 21.8632 13.3746
3973.2 45.1849 50.3521 6.02932 15.4794
3976.12 49.5427 47.7574 18.5456 10.3216
3979.04 48.5447 34.2066 6.38981 1.79834
3981.96 4.53241 43.9608 -19.5403 10.5637
3984.87 78.8055 44.0033 44.8416 16.8549
3987.79 48.6719 48.6091 25.2634 26.7546
3990.71 18.3501 30.2121 10.1589 17.7947
3993.63 23.6145 20.9896 17.9619 13.9429
3996.54 21.0042 34.8275 13.708 22.7057
3999.46 59.8638 47.8466 36.4473 23.5973
4002.38 62.6719 41.6642 20.6367 19.0069
4005.3 2.45679 39.6062 -0.0633216 10.4211
4008.21 53.69 26.4863 10.6899 20.9226
4011.13 23.312 36.3429 52.1413 31.3067
4014.05 32.0267 31.1198 31.0887 33.1851
4016.97 38.0205 23.4533 16.3253 9.6121
4019.88 0.312576 43.2351 -18.5777 18.4945
4022.8 91.3723 48.4246 57.736 35.0821
4025.72 53.5889 64.6714 66.0881 55.2713
4028.63 49.0529 43.2247 41.9898 48.8422
4031.55 27.0324 36.66 38.4487 27.6072
4034.47 33.8946 24.1138 2.38299 19.2067
4037.38 11.4143 34.7336 16.7883 26.8938
4040.3 58.8918 25.7403 61.5102 29.9866
4043.22 6.91478 20.259 11.6612 33.7549
4046.13 -5.02966 14.1932 28.0933 31.2833
4049.05 40.6944 23.3137 54.0954 45.2323
4051.97 34.2763 54.7316 53.5081 59.4409
4054.88 89.2241 57.0073 70.719 53.6288
4057.8 47.5214 62.2505 36.6592 49.2296
4060.72 50.006 39.755 40.3106 31.4325
4063.63 21.7374 55.8315 17.3277 40.0044
4066.55 95.7511 53.9317 62.375 37.0606
4069.46 44.3065 65.2486 31.4793 62.8126
4072.38 55.6881 51.7891 94.5837 61.6012
4075.3 55.3726 54.3056 58.7405 64.268
4078.21 51.856 56.6485 39.4798 52.3432
4081.13 62.7168 48.7285 58.8092 39.7398
4084.04 31.6126 50.2899 20.9305 56.2555
4086.96 56.5403 57.7571 89.027 57.2773
4089.88 85.1185 63.5968 61.8744 75.1569
4092.79 49.1316 65.5938 74.5693 57.0615
4095.71 62.5312 55.7363 34.7407 63.0268
4098.62 55.546 48.4927 79.7704 53.2733
4101.54 27.4007 45.8419 45.3087 59.3491
4104.45 54.5791 45.1036 52.9681 45.3516
4107.37 53.3309 47.9007 37.7781 26.5707
4110.28 35.792 27.5439 -11.0342 11.4908
4113.2 -6.49104 12.6389 7.72864 12.427
4116.11 8.61559 8.42975 40.5866 32.9849
4119.03 23.1647 39.4615 50.6394 57.3386
4121.94 86.6041 64.718 80.7899 67.4751
4124.86 84.3851 85.1739 70.996 68.9336
4127.77 84.5326 73.4716 55.0148 54.2662
4130.69 51.4971 63.0252 36.7878 51.3547
4133.6 53.046 50.5625 62.2614 47.0877
4136.52 47.1444 50.5034 42.2138 62.2733
4139.43 51.3196 54.2861 82.3446 61.3735
4142.35 64.3943 53.285 59.562 63.9953
4145.26 44.1411 41.7434 50.0792 51.0874
4148.18 16.6949 21.8186 43.6209 43.2342
4151.09 4.61976 32.9474 36.0024 53.1466
4154.01 77.5274 49.1032 79.8166 65.4892
4156.92 65.1623 75.2328 80.6486 67.8389
4159.83 83.0086 73.6975 43.0516 61.5178
4162.75 72.9216 62.8957 60.8533 54.5699
4165.66 32.7571 52.2132 59.8047 58.8795
4168.58 50.9609 54.5776 55.9806 54.7278
4171.49 80.0147 63.9674 48.3981 53.4493
4174.41 60.9266 61.1652 55.9691 52.2011
4177.32 42.5542 60.666 52.236 77.5556
4180.23 78.5173 56.2653 124.462 71.877
4183.15 47.7244 45.2183 38.9333 72.4131
4186.06 9.41317 31.6631 53.8444 36.2325
4188.97 37.8518 26.1738 15.9198 38.5599
4191.89 31.2564 28.5612 45.9154 23.5023
4194.8 16.5753 32.7581 8.67168 38.1286
4197.72 50.4427 31.2365 59.7987 22.899
4200.63 26.6914 34.7174 0.226727 36.1558
4203.54 27.018 32.7263 48.442 42.4522
4206.46 44.4694 41.7378 78.688 66.8167
4209.37 53.7258 60.0026 73.3203 71.0219
4212.28 81.8127 66.3136 61.0575 63.0559
4215.19 63.4022 71.2641 54.79 48.314
4218.11 68.5775 73.0855 29.0945 44.858
4221.02 87.2767 73.3681 50.6895 41.5817
4223.93 64.25 63.7433 44.961 52.7177
4226.85 39.7031 62.5752 62.5026 48.9968
4229.76 83.7725 61.2006 39.5268 54.0857
4232.67 60.1262 61.1691 60.2277 45.5613
4235.59 39.6086 64.187 36.9294 58.3628
4238.5 92.8262 72.1307 77.9313 56.4787
4241.41 83.9572 73.8163 54.5755 59.6817
4244.32 44.6655 62.0765 46.5382 53.8353
4247.24 57.6067 48.6493 60.3923 48.4646
4250.15 43.6757 39.9863 38.4632 38.2925
4253.06 18.6765 19.0281 16.022 20.1093
4255.97 -5.26806 46.899 5.84276 39.8839
4258.88 127.289 61.3084 97.7869 58.9657
4261.8 61.9048 81.9524 73.2674 84.1711
4264.71 56.6637 69.5213 81.4588 82.2464
4267.62 89.9954 70.7029 92.013 73.9205
4270.53 65.4496 78.1514 48.2897 73.898
4273.45 79.0091 85.1093 81.3913 72.8922
4276.36 110.869 80.1641 88.9956 62.696
4279.27 50.614 79.4624 17.7012 55.2638
4282.18 76.904 50.753 59.0946 49.4334
4285.09 24.741 32.5694 71.5045 66.7201
4288 -3.93663 24.4923 69.5613 67.4464
4290.92 52.6725 24.8965 61.2733 41.0103
4293.83 25.9538 68.535 -7.80369 50.6645
4296.74 126.979 79.086 98.524 55.8516
4299.65 84.3254 85.7969 76.8346 62.678
4302.56 46.0865 52.4302 12.6753 34.9371
4305.47 26.8786 51.7154 15.3014 31.0905
4308.38 82.1812 56.084 65.2948 47.7472
4311.29 59.1921 76.1304 62.6454 58.1272
4314.21 87.0178 76.6952 46.4415 50.6866
4317.12 83.8756 102.042 42.973 53.7097
4320.03 135.234 106.19 71.7146 70.1016
4322.94 99.4605 105.683 95.6172 61.8044
4325.85 82.3561 97.9657 18.0815 70.2705
4328.76 112.081 102.911 97.1128 63.2175
4331.67 114.296 101.702 74.4583 83.5099
4334.58 78.7306 97.277 78.9587 74.1142
4337.49 98.8043 99.236 68.9256 89.5325
4340.4 120.173 118.103 120.713 98.1396
4343.31 135.332 107.639 104.78 103.174
4346.22 67.4121 99.2862 84.0283 79.5975
4349.13 95.1145 82.9476 49.9844 60.8026
4352.04 86.3161 89.5917 48.3951 61.9467
4354.95 87.3447 97.1068 87.4607 73.4834
4357.86 117.66 112.139 84.5945 91.4631
4360.77 131.413 127.325 102.334 99.7862
4363.68 132.903 123.055 112.43 102.021
4366.59 104.849 125.177 91.2997 110.429
4369.5 137.78 116.222 127.556 96.6955
4372.41 106.037 117.988 71.2305 97.419
4375.32 110.145 111.218 93.4703 76.5821
4378.23 117.472 101.345 65.0453 76.4227
4381.14 76.4163 109.665 70.7525 74.0546
4384.05 135.106 108.237 86.3659 81.4776
4386.96 113.189 119.68 87.3144 86.5075
4389.87 110.744 123.593 85.8423 94.3394
4392.78 146.846 129.69 109.861 105.966
4395.69 131.481 142.389 122.196 116.792
4398.6 148.841 133.857 118.319 100.048
4401.51 121.25 113.288 59.6298 81.0541
4404.42 69.7732 96.2949 65.2131 73.9853
4407.33 97.862 95.8177 97.113 85.6196
4410.24 119.818 125.029 94.5326 98.6817
4413.15 157.407 132.578 104.4 103.795
4416.05 120.509 134.258 112.454 99.7952
4418.96 124.859 107.597 82.5318 88.0948
4421.87 77.4242 106.382 69.2983 77.9249
4424.78 116.863 102.797 81.9446 91.1996
4427.69 114.105 127.33 122.356 104.933
4430.6 151.021 127.495 110.499 105.503
4433.51 117.359 136.631 83.6529 105.637
4436.42 141.512 127.213 122.759 91.3099
4439.32 122.768 136.141 67.5177 102.359
4442.23 144.142 125.945 116.799 101.627
4445.14 110.926 132.834 120.565 116.324
4448.05 143.433 133.063 111.609 115.734
4450.96 144.829 131.796 115.028 106.491
4453.87 107.126 116.736 92.8366 96.7009
4456.77 98.2533 98.6851 82.2381 85.6032
4459.68 90.6759 84.0048 81.7348 76.507
4462.59 63.0852 105.74 65.5482 94.1475
4465.5 163.458 119.86 135.16 112.211
4468.4 133.036 146.092 135.924 131.036
4471.31 141.781 150.189 122.024 135.717
4474.22 175.75 164.734 149.203 135.921
4477.13 176.671 154.059 136.537 128.184
4480.04 109.755 158.743 98.8136 133.36
4482.94 189.804 156.737 164.73 138.39
4485.85 170.651 171.253 151.626 146.663
4488.76 153.305 162.164 123.633 142.718
4491.66 162.536 152.142 152.895 138.385
4494.57 140.584 132.579 138.628 127.848
4497.48 94.6189 146.364 92.0209 137.809
4500.39 203.891 162.853 182.777 146.825
4503.29 190.05 184.656 165.678 161.368
4506.2 160.028 194.783 135.651 160.192
4509.11 234.27 191.545 179.247 154.35
4512.01 180.337 184.558 148.151 153.327
4514.92 139.066 154.823 132.583 143.111
4517.83 145.065 152.721 148.6 143.092
4520.73 174.033 170.595 148.093 157.031
4523.64 192.688 177.803 174.4 160.345
4526.55 166.688 186.786 158.543 139.985
4529.45 200.984 160.066 87.0131 120.72
4532.36 112.527 166.973 116.602 127.363
4535.27 187.41 149.936 178.472 133.951
4538.17 149.873 173.534 106.777 146.364
4541.08 183.32 167.482 153.842 139.712
4543.98 169.254 162.8 158.518 151.115
4546.89 135.825 178.124 140.986 153.841
4549.8 229.293 174.885 162.017 147.138
4552.7 159.536 198.213 138.412 153.572
4555.61 205.81 160.985 160.287 140.896
4558.51 117.609 164.886 123.989 149.206
4561.42 171.239 152.661 163.343 145.827
4564.33 169.136 174.301 150.151 162.496
4567.23 182.527 179.728 173.996 148.064
4570.14 187.519 188.935 120.044 143.615
4573.04 196.759 192.615 136.805 130.113
4575.95 193.566 181.28 133.49 140.522
4578.85 153.515 177.201 151.271 134.467
4581.76 184.522 158.98 118.64 141.447
4584.66 138.904 183.134 154.431 141.682
4587.57 225.977 195.195 151.976 165.827
4590.47 220.705 215.328 191.074 168.731
4593.38 199.303 202.979 163.142 170.34
4596.28 188.928 197.737 156.803 174.508
4599.19 204.981 211.75 203.579 168.302
4602.09 241.341 215.36 144.524 169.278
4605 199.759 207.462 159.73 142.657
4607.9 181.288 187.931 123.718 139.258
4610.81 182.747 191.04 134.327 146.369
4613.71 209.085 189.837 181.062 165.146
4616.62 177.679 211.222 180.049 183.602
4619.52 246.903 210.532 189.694 183.18
4622.42 207.015 213.503 179.797 171.233
4625.33 186.593 214.007 144.207 179.576
4628.23 248.414 192.002 214.724 152.782
4631.14 140.999 173.649 99.4155 148.534
4634.04 131.535 166.024 131.462 139.965
4636.94 225.538 182.461 189.017 158.479
4639.85 190.309 188.056 154.958 152.482
4642.75 148.32 179.635 113.47 148.843
4645.66 200.275 181.459 178.1 155.529
4648.56 195.783 180.276 175.018 173.085
4651.46 144.769 170.091 166.138 180.209
4654.37 169.723 176.76 199.472 168.176
4657.27 215.789 184.014 138.917 160.331
4660.17 166.529 190.777 142.603 155.565
4663.08 190.011 184.683 185.176 175.913
4665.98 197.509 198.712 199.96 172.741
4668.88 208.616 196.63 133.087 157.511
4671.79 183.765 188.062 139.486 142.864
4674.69 171.804 180.009 156.018 143.454
4677.59 184.459 177.464 134.86 137.925
4680.5 176.128 203.115 122.899 158.539
4683.4 248.757 211.846 217.859 172.919
4686.3 210.653 205.796 178.001 184.674
4689.21 157.977 175.111 158.163 168.714
4692.11 156.702 169.087 169.977 169.651
4695.01 192.582 156.656 180.813 167.249
4697.91 120.682 162.556 150.956 166.785
4700.82 174.404 148.173 168.587 149.7
4703.72 149.433 166.791 129.556 140.28
4706.62 176.535 179.688 122.697 157.255
4709.52 213.096 197.395 219.512 178.252
4712.42 202.553 212.792 192.548 182.667
4715.33 222.728 220.131 135.94 180.148
4718.23 235.113 223.592 211.956 178.941
4721.13 212.936 225.443 188.928 202.579
4724.03 228.282 192.856 206.853 168.21
4726.93 137.352 186.047 108.85 161.399
4729.84 192.509 191.97 168.495 151.671
4732.74 246.048 220.514 177.667 176.224
4735.64 222.985 233.883 182.51 183.663
4738.54 232.615 219.63 190.811 168.859
4741.44 203.29 215.8 133.256 165.223
4744.34 211.495 226.106 171.602 157.051
4747.25 263.533 212.151 166.295 161.566
4750.15 161.425 216.998 146.8 167.744
4753.05 226.036 200.416 190.137 170.48
4755.95 213.786 191.615 174.502 162.964
4758.85 135.025 168.424 124.253 148.926
4761.75 156.461 181.144 148.021 169.259
4764.65 251.948 197.348 235.502 183.549
4767.55 183.635 232.68 167.124 200.123
4770.45 262.457 218.298 197.743 197.476
4773.36 208.802 222.372 227.561 199.127
4776.26 195.856 201.886 172.077 188.677
4779.16 200.998 182.885 166.392 169.022
4782.06 151.801 156.848 168.596 156.893
4784.96 117.744 164.308 135.692 163.619
4787.86 223.377 179.531 186.57 166.781
4790.76 197.472 206.925 178.081 180.619
4793.66 199.926 222.395 177.207 198.659
4796.56 269.786 203.304 240.688 182.924
4799.46 140.202 207.277 130.878 183.495
4802.36 211.843 171.124 178.92 156.531
4805.26 161.328 197.201 159.794 190.529
4808.16 218.431 198.765 232.874 185.397
4811.06 216.537 200.215 163.523 186.226
4813.96 165.678 200.987 162.28 167.343
4816.86 220.746 202.314 176.226 169.398
4819.76 220.516 205.002 169.689 170.191
4822.66 173.745 188.474 164.658 158.632
4825.56 171.161 192.104 141.548 164.267
4828.46 231.407 215.283 186.596 174.065
4831.36 243.28 205.129 194.051 166.661
4834.26 140.699 213.769 119.335 163.448
4837.15 257.329 182.877 176.957 139.119
4840.05 150.603 200.597 121.065 149.505
4842.95 193.86 178.99 150.492 154.169
4845.85 192.508 191.065 190.951 175.938
4848.75 186.827 187.928 186.373 173.382
4851.65 184.449 200.384 142.822 185.19
4854.55 229.877 216.499 226.374 196.823
4857.45 235.17 216.875 221.272 204.551
4860.35 185.577 195.56 166.008 176.439
4863.24 165.933 179.254 142.037 156.835
4866.14 186.253 185.128 162.459 158
4869.04 203.2 189.027 169.502 174.414
4871.94 177.629 179.286 191.279 166.09
4874.84 157.031 167.644 137.489 159.6
4877.74 168.272 180.568 150.033 155.165
4880.63 216.403 204.515 177.974 171.991
4883.53 228.872 227.4 187.965 196.208
4886.43 236.924 212.479 222.686 185.884
4889.33 171.64 191.92 147.002 167.623
4892.23 167.198 187.973 133.182 166.259
4895.12 225.081 211.004 218.591 200.215
4898.02 240.734 220.63 248.871 211.214
4900.92 196.076 197.818 166.18 190.005
4903.82 156.644 205.653 154.964 191.688
4906.71 264.238 204.007 253.919 205.976
4909.61 191.139 222.266 209.046 217.638
4912.51 211.42 192.755 189.951 181.59
4915.41 175.706 187.331 145.774 170.651
4918.3 174.868 180.899 176.228 173.78
4921.2 192.122 183.176 199.338 186.825
4924.1 182.537 197.201 184.909 192.441
4926.99 216.945 200.407 193.077 188.615
4929.89 201.738 216.665 187.86 202.468
4932.79 231.312 209.415 226.468 197.862
4935.68 195.194 229.161 179.259 206.083
4938.58 260.975 225.884 212.522 192.961
4941.48 221.483 218.609 187.103 182.147
4944.37 173.369 214.515 146.817 191.177
4947.27 248.693 201.5 239.612 195.517
4950.17 182.439 222.518 200.123 214.343
4953.06 236.424 213.466 203.294 207.911
4955.96 221.534 226.286 220.316 209.331
4958.86 220.901 224.969 204.382 222.912
4961.75 232.471 213.771 244.038 203.244
4964.65 187.941 221.126 161.313 202.913
4967.54 242.967 225.71 203.387 199.972
4970.44 246.223 238.919 235.217 214.665
4973.34 227.568 222.46 205.391 216.555
4976.23 193.589 194.755 209.058 210.445
4979.13 163.108 179.232 216.886 196.154
4982.02 180.999 184.598 162.518 186.991
4984.92 209.688 198.233 181.569 193.212
4987.81 204.012 211.968 235.55 205.158
4990.71 222.203 194.83 198.356 196.758
4993.6 158.275 196.728 156.369 179.532
4996.5 209.707 186.21 183.87 171.36
4999.39 190.647 182.066 173.839 165.679
5002.29 145.846 187.931 139.327 171.387
5005.18 227.302 189.764 200.995 172.436
5008.08 196.145 221.964 176.987 196.243
5010.97 242.445 214.855 210.748 190.892
5013.87 205.977 225.726 184.94 200.919
5016.76 228.758 237.138 207.069 199.819
5019.66 276.68 263.935 207.447 213.508
5022.55 286.366 271.413 226.007 212.274
5025.45 251.194 272.4 203.367 209.703
5028.34 279.642 243.2 199.734 190.951
5031.24 198.763 225.873 169.752 185.762
5034.13 199.213 199.524 187.801 165.273
5037.02 200.594 211.812 138.267 187.551
5039.92 235.628 220.369 236.586 194.326
5042.81 224.885 239.226 208.126 225.873
5045.71 257.166 221.045 232.907 198.793
5048.6 181.085 211.118 155.346 188.898
5051.49 195.103 182.705 178.44 161.054
5054.39 171.927 210.983 149.376 205.373
5057.28 265.917 218.236 288.304 211.403
5060.17 216.864 225.924 196.528 219.704
5063.07 194.992 227.467 174.279 213.552
5065.96 270.546 216.261 269.849 210.45
5068.85 183.244 208.927 187.222 215.371
5071.75 172.99 181.86 189.044 178.33
5074.64 189.345 176.307 158.726 174.88
5077.53 166.587 173.637 176.871 166.431
5080.43 164.98 169.955 163.697 157.166
5083.32 178.298 182.506 130.93 156.27
5086.21 204.242 192.234 174.184 152.044
5089.1 194.163 189.447 151.019 175.465
5092 169.935 191.357 201.191 176.834
5094.89 209.972 207.671 178.293 191.762
5097.78 243.107 229.826 195.8 185.792
5100.67 236.4 238.134 183.282 181.896
5103.57 234.894 220.639 166.604 171.534
5106.46 190.622 208.18 164.714 177.066
5109.35 199.023 193.191 199.88 178.538
5112.24 189.927 186.825 171.019 175.95
5115.13 171.523 160.449 156.951 153.786
5118.03 119.898 179.733 133.386 153.538
5120.92 247.779 190.699 170.277 161.31
5123.81 204.42 199.501 180.268 174.48
5126.7 146.303 180.05 172.896 182.117
5129.59 189.429 167.51 193.186 170.602
5132.48 166.799 200.763 145.724 180.573
5135.38 246.063 202.406 202.81 166.658
5138.27 194.355 211.199 151.441 159.06
5141.16 193.18 201.546 122.928 141.628
5144.05 217.103 194.572 150.514 147.563
5146.94 173.434 200.35 169.248 156.642
5149.83 210.512 194.9 150.163 162.93
5152.72 200.755 228.419 169.38 164.798
5155.61 273.99 208.28 174.851 155.165
5158.5 150.095 210.19 121.264 157.613
5161.4 206.485 157.727 176.724 130.452
5164.29 116.603 146.802 93.3672 132.975
5167.18 117.32 99.2161 128.833 97.739
5170.07 63.7256 92.2845 71.0172 88.3451
5172.96 95.8084 82.8188 65.1853 85.9176
5175.85 88.9224 112.792 121.55 118.734
5178.74 153.646 141.862 169.466 141.692
5181.63 183.017 162.32 134.06 139.367
5184.52 150.297 181.324 114.575 138.812
5187.41 210.658 187.098 167.803 157.996
5190.3 200.339 213.955 191.61 195.047
5193.19 230.868 208.487 225.727 208.033
5196.08 194.252 208.814 206.761 207.021
5198.97 201.32 197.179 188.574 188.842
5201.86 195.963 180.122 171.19 168.429
5204.75 143.082 146.814 145.523 131.028
5207.64 101.397 147.083 76.3721 134.618
5210.52 196.77 177.813 181.96 171.73
5213.41 235.271 210.28 256.856 221.945
5216.3 198.8 250.498 227.019 251.311
5219.19 317.424 233.116 270.057 230.972
5222.08 183.123 242.562 195.841 224.922
5224.97 227.139 215.484 208.868 205.464
5227.86 236.191 235.841 211.684 221.019
5230.75 244.192 245.049 242.506 219.114
5233.64 254.763 240.14 203.152 207.972
5236.52 221.464 263.051 178.257 210.879
5239.41 312.927 258.973 251.229 225.464
5242.3 242.528 283.427 246.906 242.015
5245.19 294.825 266.703 227.911 235.331
5248.08 262.756 263.494 231.176 223.953
5250.97 232.901 232.956 212.771 209.797
5253.85 203.211 234.187 185.446 199.771
5256.74 266.449 238.496 201.098 194.799
5259.63 245.826 236.923 197.855 204.274
5262.52 198.492 201.963 213.868 189.055
5265.41 161.569 212.165 155.442 206.595
5268.29 276.432 196.56 250.476 200.02
5271.18 151.68 221.964 194.142 243.225
5274.07 237.78 207.566 285.058 232.598
5276.96 233.239 238.595 218.594 254.549
5279.84 244.766 247.2 259.995 240.885
5282.73 263.595 264.437 244.066 257.894
5285.62 284.95 234.153 269.622 241.556
5288.5 153.915 220.352 210.978 224.105
5291.39 222.192 216.368 191.714 230.322
5294.28 272.998 242.52 288.274 233.232
5297.17 232.371 271.972 219.709 260.912
5300.05 310.546 262.016 274.752 245.196
5302.94 243.129 286.885 241.127 265.663
5305.83 306.981 266.858 281.109 272.02
5308.71 250.462 281.007 293.824 297.09
5311.6 285.577 267.38 316.336 300.072
5314.48 266.101 258.166 290.057 304.237
5317.37 222.82 249.413 306.318 289.171
5320.26 259.319 225.405 271.137 269.893
5323.14 194.077 230.104 232.223 254.643
5326.03 236.917 239.085 260.568 259.841
5328.91 286.261 272.731 286.73 275.688
5331.8 295.015 261.675 279.765 261.238
5334.69 203.747 250.521 217.219 262.684
5337.57 252.801 235.661 291.067 255.55
5340.46 250.435 249.264 258.364 269.004
5343.34 244.557 239.143 257.581 244.383
5346.23 222.436 254.827 217.204 254.362
5349.11 297.486 268.921 288.299 252.139
5352 286.841 288.833 250.913 281.995
5354.88 282.173 287.034 306.772 287.873
5357.77 292.088 292.45 305.933 301.502
5360.65 303.088 293.991 291.8 303.706
5363.54 286.797 301.982 313.384 298.025
5366.42 316.059 307.18 288.892 311.735
5369.31 318.682 290.915 332.928 292.458
5372.19 238.004 268.723 255.554 280.175
5375.08 249.483 254.904 252.043 267.825
5377.96 277.224 250.018 295.88 268.215
5380.84 223.346 248.564 256.724 285.86
5383.73 245.121 247.006 304.978 268.437
5386.61 272.55 245.598 243.609 272.815
5389.5 219.123 265.243 269.859 280.042
5392.38 304.056 251.113 326.658 293.112
5395.26 230.161 279.977 282.818 322.635
5398.15 305.713 246.249 358.43 290.994
5401.03 202.874 259.655 231.733 281.594
5403.92 270.378 246.549 254.619 267.581
5406.8 266.396 255.927 316.39 290.231
5409.68 231.006 240.977 299.684 291.685
5412.57 225.53 256.873 258.98 299.069
5415.45 314.084 300.875 338.544 339.482
5418.33 363.012 333.885 420.922 375.195
5421.22 324.559 324.672 366.118 368.154
5424.1 286.444 282.679 317.422 317.272
5426.98 237.033 259.919 268.275 297.748
5429.86 256.281 275.936 307.547 288.781
5432.75 334.495 279.314 290.522 304.035
5435.63 247.167 293.965 314.035 312.554
5438.51 300.232 275.979 333.104 314.215
5441.39 280.537 285.814 295.504 308.152
5444.28 276.673 273.605 295.847 302.718
5447.16 263.605 274.621 316.802 313.999
5450.04 283.586 282.83 329.347 332.71
5452.92 301.3 303.288 351.981 351.217
5455.8 324.979 289.306 372.324 327.726
5458.69 241.64 298.258 258.874 323.614
5461.57 328.155 292.081 339.643 317.572
5464.45 306.447 288.495 354.2 316.543
5467.33 230.882 280.691 255.785 313.98
5470.21 304.743 281.634 331.955 312.822
5473.09 309.278 286.979 350.725 327.812
5475.98 246.915 299.152 300.757 347.86
5478.86 341.262 313.673 392.098 352.974
5481.74 352.841 336.888 366.069 369.16
5484.62 316.56 328.83 349.314 354.629
5487.5 317.088 314.996 348.503 348.721
5490.38 311.34 312.247 348.346 347.733
5493.26 308.314 303.601 346.349 350.303
5496.14 291.148 307.9 356.212 358.683
5499.02 324.239 308.083 373.489 351.384
5501.9 308.862 311.186 324.45 354.056
5504.78 300.458 279.806 364.23 344.808
5507.66 230.096 259.589 345.745 345.768
5510.54 248.212 267.766 327.328 333.11
5513.42 324.989 289.829 326.258 324.8
5516.3 296.285 298.16 320.813 323.355
5519.18 273.207 281.281 322.995 325.421
5522.06 274.351 253.618 332.455 303.138
5524.94 213.296 269.508 253.965 306.267
5527.82 320.877 289.007 332.382 329.275
5530.7 332.848 329.995 401.477 377.562
5533.58 336.26 327.177 398.826 382.362
5536.46 312.421 304.872 346.782 364.992
5539.34 265.934 288.736 349.368 347.074
5542.22 287.852 319.978 345.071 372.396
5545.1 406.148 348.772 422.75 388.386
5547.98 352.314 359.929 397.337 392.989
5550.86 321.325 333.766 358.88 372.357
5553.74 327.66 309.85 360.854 344.97
5556.61 280.566 291.589 315.175 334.024
5559.49 266.541 286.678 326.042 343.429
5562.37 312.926 287.341 389.07 357.5
5565.25 282.557 227.317 357.389 360.271
5568.13 86.4674 265.01 334.355 361.709
5571.01 426.005 273.001 393.383 294.319
5573.88 306.529 299.865 155.217 204.126
5576.76 167.059 219.383 63.7777 111.093
5579.64 184.561 177.764 114.283 112.412
5582.52 181.671 208.44 159.176 163.474
5585.4 259.089 237.125 216.962 219.191
5588.27 270.614 250.111 281.435 260.476
5591.15 220.63 243.199 283.03 310.357
5594.03 238.353 241.173 366.606 334.337
5596.91 264.535 246.317 353.373 345.241
5599.78 236.064 227.143 315.744 349.634
5602.66 180.829 250.803 379.784 355.131
5605.54 335.516 302.046 369.865 384.517
5608.41 389.792 342.242 403.903 360.764
5611.29 301.416 336.764 308.525 352.342
5614.17 319.085 321.061 344.597 335.733
5617.04 342.682 322.566 354.078 346.994
5619.92 305.931 312.909 342.306 348.866
5622.8 290.113 311.576 350.213 338.105
5625.67 338.683 310.5 321.798 335.984
5628.55 302.702 302.9 335.942 330.735
5631.43 267.313 300.572 334.467 362.474
5634.3 331.701 252.778 417.014 374.948
5637.18 159.32 264.934 373.363 387.591
5640.05 303.782 276.74 372.395 376.136
5642.93 367.118 337.857 382.651 375.647
5645.81 342.671 301.889 371.893 385.129
5648.68 195.878 273.848 400.844 367.31
5651.56 282.996 197.053 329.194 327.319
5654.43 112.284 219.073 251.92 325.958
5657.31 261.938 245.913 396.761 357.408
5660.18 363.517 303.373 423.544 376.076
5663.06 284.664 317.4 307.924 370.427
5665.93 304.018 291.49 379.812 350.182
5668.81 285.788 262.87 362.81 373.259
5671.68 198.804 253.768 377.156 360.96
5674.56 276.711 256.313 342.915 348.537
5677.43 293.424 242.876 325.539 335.729
5680.31 158.493 249.421 338.734 375.677
5683.18 296.346 214.332 462.76 405.578
5686.06 188.158 277.555 415.24 433.026
5688.93 348.16 284.805 421.077 397.226
5691.8 318.098 368.428 355.361 425.187
5694.68 439.027 300.459 499.123 381.686
5697.55 144.251 324.446 290.573 404.169
5700.42 390.059 205.784 422.811 334.861
5703.3 83.0407 282.361 291.2 366.733
5706.17 373.982 220.293 386.189 343.656
5709.05 203.857 243.019 353.578 346.117
5711.92 151.219 179.851 298.583 331.418
5714.79 184.478 205.31 342.093 333.445
5717.67 280.234 223.574 359.658 357.525
5720.54 206.01 231.02 370.825 373.694
5723.41 206.817 222.176 390.6 361.164
5726.28 253.701 249.3 322.066 339.864
5729.16 287.382 273.792 306.927 321.515
5732.03 280.292 296.246 335.553 321.317
5734.9 321.065 261.858 321.472 337.273
5737.77 184.217 242.726 354.793 346.1
5740.65 222.895 243.057 362.034 377.348
5743.52 322.061 285.127 415.217 386.886
5746.39 310.427 325.116 383.406 415.029
5749.26 342.861 327.056 446.463 417.394
5752.14 327.879 318.564 422.312 395.097
5755.01 284.951 253.046 316.516 372.705
5757.88 146.308 246.236 379.287 346.879
5760.75 307.45 257.352 344.833 364.391
5763.62 318.297 325.08 369.052 375.95
5766.49 349.494 327.318 413.966 385.882
5769.37 314.164 339.9 374.629 392.651
5772.24 356.041 322.118 389.358 387.994
5775.11 296.15 303.84 399.996 374.613
5777.98 259.33 271.039 334.484 348.441
5780.85 257.637 266.162 310.843 327.582
5783.72 281.518 287.833 337.418 334.258
5786.59 324.343 321.268 354.512 351.457
5789.46 357.942 318.119 362.442 337.899
5792.33 272.071 319.767 296.743 380.302
5795.2 329.289 324.189 481.72 409.372
5798.07 371.208 341.713 449.654 430.527
5800.94 324.643 332.86 360.207 418.262
5803.81 302.73 290.992 444.924 370.375
5806.68 245.603 271.414 305.995 359.695
5809.55 265.909 294.347 328.166 345.686
5812.42 371.53 343.227 402.897 397.881
5815.29 392.241 373.547 462.58 422.364
5818.16 356.871 378.958 401.614 431.596
5821.03 387.762 357.411 430.595 397.89
5823.9 327.6 367.889 361.461 413.142
5826.77 388.306 311.281 447.369 399.905
5829.64 217.937 316.571 390.884 397.506
5832.51 343.47 286.135 354.264 370.552
5835.38 296.999 323.482 366.508 376.65
5838.25 329.976 331.884 409.178 397.53
5841.11 368.676 338.109 416.903 390.969
5843.98 315.674 292.077 346.825 372.269
5846.85 191.882 271.84 353.081 339.397
5849.72 307.964 231.135 318.286 349.606
5852.59 193.56 279.136 377.451 362.353
5855.46 335.884 293.429 391.323 404.695
5858.32 350.842 322.267 445.31 383.841
5861.19 280.075 247.726 314.89 382.012
5864.06 112.26 238.294 385.835 365.164
5866.93 322.548 251.885 394.766 356.103
5869.79 320.846 328.297 287.708 341.872
5872.66 341.496 321.319 343.141 330.069
5875.53 301.616 312.018 359.358 366.962
5878.4 292.942 229.826 398.389 365.512
5881.26 94.9204 199.182 338.789 317.284
5884.13 209.682 72.556 214.674 272.013
5887 -86.9346 84.2282 262.577 194.633
5889.86 129.937 78.6391 106.647 201.04
5892.73 192.915 212.215 233.897 217.303
5895.6 313.793 138.158 311.365 274.694
5898.46 -92.2355 146.568 278.821 315.127
5901.33 218.147 91.3117 355.194 357.179
5904.2 148.023 224.142 437.522 386.708
5907.06 306.254 263.718 367.407 419.128
5909.93 336.878 320.181 452.453 406.836
5912.8 317.412 283.862 400.648 426.123
5915.66 197.297 241.861 425.27 355.991
5918.53 210.875 278.222 242.054 384.951
5921.39 426.494 267.18 487.53 381.576
5924.26 164.171 302.765 415.146 420.813
5927.12 317.63 290.249 359.765 395.605
5929.99 388.946 348.156 411.904 377.956
5932.85 337.893 338.188 362.2 373.176
5935.72 287.724 258.907 345.422 362.94
5938.58 151.103 265.086 381.199 376.93
5941.45 356.431 296.484 404.17 411.758
5944.31 381.919 292.08 449.906 411.65
5947.18 137.89 227.031 380.873 400.196
5950.04 161.283 207.681 369.81 381.096
5952.91 323.87 234.435 392.605 395.544
5955.77 218.15 293.606 424.217 397.258
5958.64 338.799 296.563 374.952 395.919
5961.5 332.739 366.353 388.587 411.657
5964.36 427.521 359.075 471.432 411.614
5967.23 316.966 328.819 374.822 438.919
5970.09 241.97 280.372 470.503 395.862
5972.95 282.179 268.052 342.262 385.347
5975.82 280.007 290.554 343.277 364.487
5978.68 309.475 274.555 407.924 386.805
5981.54 234.182 324.683 409.215 408.343
5984.41 430.391 296.199 407.89 421.927
5987.27 224.024 268.602 448.675 406.747
5990.13 151.391 252.141 363.675 392.705
5993 381.009 270.624 365.763 393.637
5995.86 279.472 321.951 451.473 397.675
5998.72 305.373 315.922 375.788 413.53
6001.58 362.92 345.174 413.33 401.825
6004.45 367.23 382.829 416.358 417.114
6007.31 418.336 366.702 421.653 401.283
6010.17 314.539 341.343 365.837 370.359
6013.03 291.154 305.788 323.586 361.828
6015.89 311.671 313.392 396.06 381.484
6018.76 337.349 276.499 424.807 375.23
6021.62 180.476 258.51 304.823 343.446
6024.48 257.703 267.838 300.707 339.579
6027.34 365.335 321.458 413.207 363.846
6030.2 341.334 309.392 377.625 380.889
6033.06 221.507 290.741 351.835 362.725
6035.92 309.381 299.91 358.716 364.841
6038.79 368.844 335.79 383.972 373.611
6041.65 329.144 290.683 378.143 370.674
6044.51 174.06 273.674 349.905 385.948
6047.37 317.817 259.804 429.796 387.097
6050.23 287.535 316.794 381.591 405.485
6053.09 345.029 330.317 405.069 422.811
6055.95 358.388 345.29 481.772 430.034
6058.81 332.454 333.772 403.262 414.268
6061.67 310.476 334.569 357.771 395.338
6064.53 360.778 327.309 424.981 391.29
6067.39 310.673 345.897 391.116 406.565
6070.25 366.239 340.168 403.598 412.189
6073.11 343.591 356.805 441.853 429.926
6075.97 360.584 357.055 444.327 441.049
6078.83 366.988 321.734 436.967 413.006
6081.69 237.63 314.665 357.723 397.893
6084.54 339.376 254.058 398.988 373.97
6087.4 185.167 246.144 365.2 396.189
6090.26 213.889 215.315 424.378 395.744
6093.12 246.89 182.344 397.654 387.826
6095.98 86.2539 240.338 341.446 380.962
6098.84 387.871 257.646 403.784 366.212
6101.7 298.814 353.585 353.406 392.307
6104.55 374.072 329.858 419.731 373.543
6107.41 316.689 315.34 347.493 364.785
6110.27 255.258 247.571 327.132 320.244
6113.13 170.765 251.117 286.107 323.256
6115.99 327.327 291.509 356.529 350.994
6118.84 376.435 329.465 410.345 365.822
6121.7 284.634 327.016 330.591 361.695
6124.56 319.978 326.906 344.149 362.758
6127.42 376.106 329.075 413.533 362.5
6130.27 291.142 298.845 329.819 371.154
6133.13 229.287 279.514 370.109 344.735
6135.99 318.115 278.852 334.278 357.499
6138.84 289.153 309.721 368.109 365.231
6141.7 321.895 310.671 393.306 389.156
6144.56 320.963 308.211 406.052 375.481
6147.41 281.773 317.865 327.086 377.317
6150.27 350.858 314.425 398.814 361.857
6153.13 310.643 305.848 359.671 364.779
6155.98 256.043 270.501 335.851 328.862
6158.84 244.816 252.898 291.065 315.616
6161.69 257.835 272.951 319.931 331.212
6164.55 316.201 292.053 382.64 349.812
6167.4 302.124 261.918 346.865 353.244
6170.26 167.429 260.662 330.226 347.351
6173.12 312.434 272.171 364.962 348.932
6175.97 336.65 327.809 351.608 366.658
6178.83 334.343 345.107 383.405 381.283
6181.68 364.327 353.695 408.835 389.926
6184.54 362.414 301.941 377.539 368.781
6187.39 179.082 305.142 319.97 376.021
6190.24 373.93 285.096 430.554 381.268
6193.1 302.276 313.886 393.281 412.147
6195.95 265.453 319.961 412.605 418.426
6198.81 392.155 323.402 449.393 397.724
6201.66 312.599 350.62 331.173 379.762
6204.51 347.107 333.768 358.719 347.65
6207.37 341.6 266.616 353.058 333.072
6210.22 111.142 252.221 287.439 327.208
6213.08 303.921 235.593 341.127 326.804
6215.93 291.714 239.428 351.845 333.186
6218.78 122.649 235.954 306.588 341.843
6221.64 293.5 248.554 367.095 352.371
6224.49 329.514 274.313 383.431 335.475
6227.34 199.926 266.879 255.9 310.872
6230.19 271.197 193.92 293.284 285.221
6233.05 110.638 231.122 306.479 304.356
6235.9 311.532 259.864 313.305 333.835
6238.75 357.423 323.571 381.721 349.093
6241.6 301.758 271.087 352.252 371.23
6244.46 154.08 270.118 379.718 376.452
6247.31 354.516 275.768 397.387 399.561
6250.16 318.708 308.339 421.58 380.967
6253.01 251.792 275.282 323.934 355.247
6255.86 255.347 255.706 320.229 308.414
6258.72 259.978 254.856 281.079 292.923
6261.57 249.244 275.915 277.46 307.42
6264.42 318.524 288.32 363.72 329.201
6267.27 297.193 265.139 346.424 364.949
6270.12 179.698 265.324 384.705 365.23
6272.97 319.082 268.731 364.562 367.956
6275.82 307.413 283.654 354.603 333.887
6278.67 224.468 255.503 282.497 316.706
6281.52 234.628 214.323 313.018 313.545
6284.37 183.874 236.672 345.119 323.473
6287.22 291.513 241.674 312.283 343.991
6290.07 249.635 297.838 374.57 326.233
6292.92 352.365 9.597 291.847 234.259
6295.77 -573.209 35.1341 36.359 126.251
6298.62 326.246 -10.1569 50.5478 41.1501
6301.47 216.492 267.287 36.5435 67.6316
6304.32 259.123 236.349 115.803 133.142
6307.17 233.43 273.524 247.078 247.003
6310.02 328.018 197.038 378.129 336.519
6312.87 29.6653 139.629 384.351 382.573
6315.72 61.203 135.807 385.239 388.177
6318.57 316.554 216.433 394.941 391.939
6321.41 271.543 304.274 395.638 406.002
6324.26 324.724 306.123 427.427 390.136
6327.11 322.101 311.549 347.344 373.525
6329.96 287.822 324.086 345.804 381.858
6332.81 362.337 325.88 452.426 386.151
6335.66 327.481 317.374 360.223 384.394
6338.5 262.305 291.983 340.533 351.669
6341.35 286.163 259.057 354.252 369.287
6344.2 228.704 272.461 413.076 367.449
6347.05 302.516 300.086 335.019 397.234
6349.89 369.039 329.654 443.605 390.977
6352.74 317.407 359.912 394.307 428.621
6355.59 393.29 365.548 447.95 410.197
6358.43 385.948 355.819 388.335 367.936
6361.28 288.218 335.715 267.523 311.382
6364.13 332.979 290.742 278.287 285.253
6366.97 251.028 328.959 309.949 326.27
6369.82 402.869 276.898 390.574 325.641
6372.67 176.797 259.793 276.399 368.122
6375.51 199.713 232.046 437.392 374.647
6378.36 319.628 270.31 410.15 394.694
6381.21 291.589 324.875 336.541 380.659
6384.05 363.408 307.323 395.285 355.862
6386.9 266.972 327.717 335.76 373.759
6389.74 352.772 315.905 390.232 363.594
6392.59 327.972 323.953 364.79 378.167
6395.43 291.114 311.821 379.479 366.99
6398.28 316.376 295.576 356.703 363
6401.12 279.239 287.671 352.819 381.997
6403.97 267.399 276.926 436.47 382.869
6406.81 284.139 261.512 359.319 362.133
6409.66 232.997 289.605 290.61 341.271
6412.5 351.679 299.5 373.882 355.061
6415.34 313.823 327.939 400.69 368.452
6418.19 318.316 322.08 330.785 369.714
6421.03 334.1 311.181 377.666 352.643
6423.88 281.126 308.546 349.48 374.993
6426.72 310.41 291.784 397.834 369.676
6429.56 283.816 298.317 361.715 389.091
6432.41 300.726 289.817 407.725 394.554
6435.25 284.909 303.142 414.222 397.61
6438.09 323.789 331.397 370.882 400.805
6440.94 385.492 350.88 417.312 396.17
6443.78 343.358 354.615 400.316 397.287
6446.62 334.996 344.534 374.234 402.853
6449.46 355.249 335.184 434.007 406.469
6452.31 315.307 276.597 411.165 397.303
6455.15 159.235 264.455 346.737 382.67
6457.99 318.824 252.828 390.11 362.897
6460.83 280.425 297.272 351.846 351.306
6463.67 292.568 251.955 311.963 345.645
6466.52 182.874 278.102 373.127 368.097
6469.36 358.864 291.58 419.2 392.703
6472.2 333.003 307.607 385.782 411.63
6475.04 230.953 278.471 429.907 390.918
6477.88 271.456 251.687 357.064 372.448
6480.72 252.651 275.3 330.373 359.779
6483.56 301.793 296.819 391.899 378
6486.4 336.013 310.466 411.727 404.121
6489.24 293.592 297.091 408.737 374.015
6492.08 261.668 261.483 301.581 360.041
6494.92 229.187 196.164 369.806 321.44
6497.76 97.6367 199.595 292.934 308.942
6500.6 271.962 193.517 264.086 333.738
6503.44 210.952 216.085 444.195 357.144
6506.28 165.341 208.33 363.15 381.069
6509.12 248.697 240.704 335.862 363.374
6511.96 308.073 257.564 391.109 370.679
6514.8 215.921 253.443 385.067 394.577
6517.64 236.336 231.811 407.555 376.697
6520.48 243.177 296.91 337.467 402.475
6523.32 411.219 321.793 462.403 403.82
6526.16 310.985 376.527 411.589 438.633
6529 407.378 349.654 441.907 413.587
6531.83 330.599 317.726 387.266 408.235
6534.67 215.201 292.384 395.533 407.101
6537.51 331.352 285.738 438.505 409.968
6540.35 310.661 297.785 395.867 434.571
6543.19 251.343 309.039 469.34 429.909
6546.02 365.113 274.959 424.518 441.854
6548.86 208.42 310.736 431.704 417.47
6551.7 358.675 304.484 396.188 411.672
6554.54 346.358 334.411 407.123 390.615
6557.37 298.2 261.767 368.535 364.223
6560.21 140.741 273.502 317.011 375.74
6563.05 381.564 274.96 441.675 385.902
6565.88 302.573 320.817 399.021 393.522
6568.72 278.313 307.964 339.871 379.157
6571.56 343.005 302.983 398.58 349.255
6574.39 287.632 298.637 309.314 343.61
6577.23 265.274 314.544 322.935 347.379
6580.06 390.725 314.787 409.887 372.353
6582.9 288.362 293.432 384.237 376.558
6585.74 201.208 272.37 335.549 372.824
6588.57 327.542 227.092 398.687 364.165
6591.41 152.527 283.09 358.26 394.135
6594.24 369.201 269.015 425.458 384.039
6597.08 285.316 313.173 368.398 375.975
6599.91 285.003 316.829 334.069 370.272
6602.75 380.168 314.741 408.348 363.993
6605.58 279.052 322.927 349.562 377.084
6608.42 309.56 305.205 373.342 376.218
6611.25 327.001 311.434 405.749 383.611
6614.08 297.741 327.018 371.743 390.909
6616.92 356.312 289.94 395.235 386.045
6619.75 215.768 291.171 391.158 380.341
6622.59 301.435 281.722 354.629 378.152
6625.42 327.963 340.539 388.67 407.24
6628.25 392.219 354.313 478.423 405.849
6631.09 342.757 333.534 350.456 387.585
6633.92 265.626 309.629 333.876 340.134
6636.75 320.505 306.664 336.071 328.68
6639.58 333.862 323.401 316.093 344.262
6642.42 315.836 300.096 380.624 340.31
6645.25 250.59 230.802 324.215 337.369
6648.08 125.979 232.303 307.269 331.705
6650.91 320.339 261.371 363.632 359.973
6653.75 337.797 312.514 409.017 371.513
6656.58 279.406 322.36 341.891 377.042
6659.41 349.877 314.156 380.218 361.443
6662.24 313.184 364.196 362.22 400.979
6665.07 429.528 343.348 460.499 384.088
6667.9 287.331 353.229 329.544 380.823
6670.73 342.83 319.059 352.426 339.204
6673.57 327.017 301.068 335.64 354.407
6676.4 233.358 296.214 375.153 362.018
6679.23 328.267 275.553 375.261 351.837
6682.06 265.034 308.095 305.098 348.742
6684.89 330.984 284.698 365.865 335.664
6687.72 258.074 272.746 336.028 362.022
6690.55 229.179 239.338 384.171 361.245
6693.38 230.761 254.808 363.535 350.93
6696.21 304.483 289.352 305.083 345.754
6699.04 332.813 284.85 368.643 333.494
6701.87 217.254 263.547 326.755 328.497
6704.7 240.574 253.056 290.093 315.684
6707.52 301.338 275.756 330.205 318.171
6710.35 285.354 300.967 334.216 339.754
6713.18 316.208 266.971 354.841 339.563
6716.01 199.35 248.019 329.633 351.258
6718.84 228.498 230.618 369.3 362.71
6721.67 264.006 246.543 389.199 368.502
6724.5 247.126 303.206 347.009 365.495
6727.32 398.486 329.584 360.277 354.83
6730.15 343.139 316.486 357.204 357.058
6732.98 207.833 284.683 353.692 354.042
6735.81 303.075 287.988 351.23 361.879
6738.63 353.056 300.801 380.715 335.044
6741.46 246.271 291.691 273.188 320.005
6744.29 275.748 288.077 306.111 315.264
6747.11 342.213 268.092 366.493 322.609
6749.94 186.316 287.555 295.223 343.253
6752.77 334.136 280.715 368.043 346.872
6755.59 321.692 331.039 377.351 367.377
6758.42 337.288 285.328 356.738 340.242
6761.25 197.003 281.811 286.636 324.107
6764.07 311.14 274.531 328.948 319.974
6766.9 315.448 321.558 344.338 338.26
6769.72 338.086 305.544 341.495 324.252
6772.55 263.099 319.013 286.921 336.768
6775.37 355.853 306.066 381.887 327.765
6778.2 299.247 304.677 314.487 356.049
6781.02 258.93 290.126 371.772 370.454
6783.85 312.2 261.183 425.102 374.188
6786.67 212.418 283.055 325.691 362.262
6789.5 324.547 264.809 335.994 309.232
6792.32 257.463 264.894 266.012 303.404
6795.15 212.671 270.613 308.207 318.724
6797.97 341.705 259.475 381.951 339.553
6800.79 224.05 287.575 328.499 352.639
6803.62 296.969 279.496 347.466 334.822
6806.44 317.469 313.352 328.501 338.542
6809.27 325.617 330.624 339.66 339.643
6812.09 348.786 315.404 350.767 329.495
6814.91 271.809 299.423 298.058 316.235
6817.73 277.673 291.264 299.88 316.52
6820.56 324.311 318.602 351.621 355.399
6823.38 353.824 331.238 414.696 360.048
6826.2 315.58 313.162 313.827 331.289
6829.02 270.08 217.385 265.344 303.983
6831.85 66.4932 223.952 332.779 289.875
6834.67 335.284 247.633 271.503 309.794
6837.49 341.121 313.188 325.1 314.867
6840.31 263.158 310.709 347.999 347.488
6843.13 327.848 298.487 369.365 341.01
6845.95 304.456 314.996 305.667 323.04
6848.77 312.683 276.391 294.088 285.473
6851.6 212.033 171.686 256.664 291.138
6854.42 -9.6596 160.206 322.663 294.742
6857.24 278.246 106.359 304.899 304.84
6860.06 50.4911 215.126 286.958 282.678
6862.88 316.641 182.785 256.178 243.629
6865.7 181.224 250.767 187.751 225.863
6868.52 254.435 202.836 233.66 210.061
6871.34 172.849 206.439 208.771 217.091
6874.16 192.032 211.44 208.842 220.948
6876.98 269.439 248.94 245.231 256.682
6879.8 285.349 252.701 315.972 296.496
6882.61 203.316 243.918 328.285 296.966
6885.43 243.089 244.528 246.64 291.645
6888.25 287.179 282.8 300.011 282.084
6891.07 318.131 292.123 299.603 298.099
6893.89 271.06 276.04 294.684 276.312
6896.71 238.93 250.993 234.65 272.977
6899.53 242.989 238.503 289.596 255.381
6902.34 233.591 272.749 241.898 298.492
6905.16 341.666 247.081 363.982 320.175
6907.98 165.987 265.32 354.647 349.313
6910.8 288.307 244.157 329.311 316.22
6913.61 278.178 269.435 264.703 277.818
6916.43 241.822 266.005 239.44 240.231
6919.25 278.014 258.401 216.551 233.925
6922.06 255.368 274.168 245.784 244.931
6924.88 289.123 271.288 272.458 274.564
6927.7 269.375 265.89 305.449 291.668
6930.51 239.172 266.073 297.098 294.25
6933.33 289.672 274.643 280.201 288.215
6936.14 295.084 263.456 287.346 293.563
6938.96 205.611 202.607 313.142 283.525
6941.78 107.127 147.846 250.088 297.548
6944.59 130.798 171.19 329.415 288.397
6947.41 275.646 181.057 285.689 311.11
6950.22 136.727 223.545 318.226 269.972
6953.04 258.263 177.05 206 261.864
6955.85 136.16 242.894 261.367 263.031
6958.66 334.259 213.829 321.727 281.207
6961.48 171.067 295.675 260.528 315.729
6964.29 381.698 282.896 364.931 301.292
6967.11 295.923 318.259 278.417 309.246
6969.92 277.158 301.006 284.391 300.768
6972.73 329.938 306.848 339.496 324.033
6975.55 313.447 302.599 348.211 324.748
6978.36 264.414 286.888 286.538 304.746
6981.17 282.804 289.191 279.489 301.481
6983.99 320.354 308.277 338.414 308.824
6986.8 321.672 327.462 308.569 332.91
6989.61 340.361 321.864 351.748 321.06
6992.42 303.559 301.709 302.862 299.926
6995.24 261.206 277.417 245.167 273.024
6998.05 267.488 290.049 271.041 270.511
7000.86 341.455 266.489 295.325 249.99
7003.67 190.523 291.376 183.604 271.71
7006.48 342.149 274.868 336.203 267.097
7009.29 291.932 294.305 281.484 298.482
7012.11 248.834 245.129 277.76 289.529
7014.92 194.621 250.74 309.343 299.602
7017.73 308.766 236.943 311.701 309.133
7020.54 207.444 258.09 306.355 315.81
7023.35 258.06 244.788 329.373 300.085
7026.16 268.858 277.263 264.527 294.194
7028.97 304.87 301.742 288.683 296.647
7031.78 331.498 309.114 336.73 298.752
7034.59 290.974 329.511 270.843 320.261
7037.4 366.063 312.975 353.21 322.619
7040.21 281.889 320.264 343.803 348.426
7043.02 312.842 288.825 348.267 309.853
7045.83 271.743 291.511 237.489 292.406
7048.63 289.949 304.186 291.461 283.385
7051.44 350.867 295.826 321.205 295.075
7054.25 246.663 322.594 272.557 312.807
7057.06 370.25 300.302 344.66 304.417
7059.87 283.994 280.715 296.033 308.153
7062.68 187.901 268.674 283.767 304.486
7065.48 334.127 286.909 333.659 321.849
7068.29 338.699 293.74 348.121 302.687
7071.1 208.393 278.199 226.281 287.387
7073.91 287.504 278.387 287.76 273.088
7076.71 339.263 306.179 305.223 295.669
7079.52 291.768 280.724 294.024 266.76
7082.33 211.14 220.289 201.032 255.393
7085.13 157.958 216.607 271.123 237.541
7087.94 280.725 241.506 240.469 253.288
7090.74 285.835 287.364 248.271 264.177
7093.55 295.533 292.291 303.792 276.25
7096.36 295.504 280.768 276.686 272.119
7099.16 251.268 283.958 235.878 262.999
7101.97 305.101 292.537 276.432 278.764
7104.77 321.242 322.017 323.982 312.022
7107.58 339.707 318.566 335.651 309.539
7110.38 294.75 277.252 268.984 300.663
7113.19 197.299 254.361 297.355 277.002
7115.99 271.034 256.725 264.666 288.528
7118.8 301.844 282.232 303.561 278.086
7121.6 273.818 286.103 266.03 301.118
7124.4 282.648 271.967 333.763 289.525
7127.21 259.436 285.751 268.782 299.367
7130.01 315.169 256.206 295.556 264.802
7132.81 194.013 244.001 230.067 249.053
7135.62 222.821 227.089 221.536 242.251
7138.42 264.432 220.086 275.152 260.549
7141.22 173.006 239.864 284.961 273.941
7144.03 282.153 206.729 261.712 277.992
7146.83 165.029 227.677 287.304 282.127
7149.63 235.85 220.736 297.366 282.848
7152.43 261.33 259.047 263.874 273.805
7155.23 279.96 222.766 260.174 249.434
7158.04 127.008 209.836 224.255 221.25
7160.84 222.54 213.347 179.321 237.693
7163.64 290.491 274.964 309.503 274.821
7166.44 311.861 304.995 335.639 314.234
7169.24 312.632 299.908 297.561 305.112
7172.04 275.23 291.69 282.137 281.863
7174.84 287.208 293.231 265.892 281.025
7177.64 317.254 280.079 295.046 257.736
7180.44 235.775 228.921 212.269 240.137
7183.24 133.734 187.185 213.095 214.431
7186.04 192.048 188.31 217.928 222.399
7188.84 239.148 210.222 236.173 221.471
7191.64 199.471 240.919 210.311 240.522
7194.44 284.138 236.16 275.082 240.159
7197.24 224.871 275.349 235.085 269.704
7200.04 317.038 251.693 298.945 249.239
7202.84 213.169 259.863 213.688 243.903
7205.63 249.382 243.981 219.075 233.615
7208.43 269.39 268.316 268.082 250.856
7211.23 286.176 265.277 265.41 259.388
7214.03 240.266 269.688 244.672 256.567
7216.83 282.623 263.619 259.619 243.922
7219.62 267.968 274.801 227.476 237.631
7222.42 273.81 269.736 225.799 237.296
7225.22 267.43 253.966 258.612 246.214
7228.01 220.659 264.062 254.231 272.135
7230.81 304.098 257.477 303.563 275.574
7233.61 247.675 247.523 268.928 265.827
7236.4 190.797 116.581 224.99 219.347
7239.2 -88.7289 113.874 164.124 216.996
7242 239.555 139.94 261.874 216.786
7244.79 268.992 263.235 224.36 261.107
7247.59 281.157 257.657 297.088 237.433
7250.38 222.822 261.571 190.851 251.343
7253.18 280.734 252.271 266.092 231.753
7255.97 253.256 229.944 238.316 249.31
7258.77 155.843 219.75 243.522 244.444
7261.56 250.15 183.611 251.494 242.17
7264.36 144.839 215.994 231.495 244.531
7267.15 252.994 221.575 250.605 239.193
7269.94 266.891 247.223 235.478 226.41
7272.74 221.783 281.012 193.146 254.783
7275.53 354.362 177.26 335.724 285.052
7278.33 -44.3642 167.376 326.288 303.35
7281.12 192.13 28.8786 248.037 258.174
7283.91 -61.1299 146.202 200.199 247.052
7286.7 307.606 93.0683 292.921 232.446
7289.5 32.7286 197.898 204.218 263.407
7292.29 253.36 139.11 293.081 241.081
7295.08 131.242 227.738 225.943 262.02
7297.87 298.61 206.602 267.036 224.664
7300.66 189.952 271.2 181.012 260.219
7303.46 325.039 232.044 332.608 243.486
7306.25 181.142 265.257 216.837 284.598
7309.04 289.591 247.126 304.349 265.36
7311.83 270.644 296.612 274.894 304.084
7314.62 329.6 305.671 333.01 282.91
7317.41 316.769 230.682 240.827 294.239
7320.2 45.6761 194.098 308.88 257.843
7322.99 219.85 205.229 223.823 279.255
7325.78 350.161 284.101 305.063 255.657
7328.57 282.291 285.03 238.085 263.206
7331.36 222.639 194.884 246.472 242.648
7334.15 79.7213 211.714 243.386 248.975
7336.94 332.782 239.503 257.066 232.345
7339.73 306.006 168.503 196.583 245.568
7342.52 -133.279 131.23 283.055 241.253
7345.31 220.965 62.5783 244.122 257.16
7348.09 100.05 174.684 244.302 246.734
7350.88 203.038 178.636 251.778 247.456
7353.67 232.821 238.697 246.288 265.796
7356.46 280.231 235.661 299.323 259.758
7359.25 193.93 261.942 233.663 269.642
7362.03 311.665 242.855 275.939 236.492
7364.82 222.971 246.656 199.874 222.184
7367.61 205.332 135.298 190.739 210.74
7370.39 -22.4094 122.087 241.607 233.298
7373.18 183.337 109.005 267.549 249.819
7375.97 166.086 208.799 240.301 263.802
7378.75 276.975 239.9 283.556 253.088
7381.54 276.639 276.161 235.407 258.235
7384.32 274.869 281.548 255.741 242.483
7387.11 293.136 212.896 236.3 221.791
7389.9 70.6828 151.354 173.331 217.198
7392.68 90.2432 106.73 241.964 207.822
7395.47 159.265 105.569 208.172 217.21
7398.25 67.1993 165.648 201.493 223.078
7401.03 270.481 179.646 259.569 234.072
7403.82 201.258 203.724 241.155 241.911
7406.6 139.432 145.41 225.008 228.641
7409.39 95.541 161.708 219.762 237.749
7412.17 250.15 172.729 268.477 221.913
7414.95 172.496 230.633 177.501 244.69
7417.74 269.252 235.306 288.092 238.294
7420.52 264.17 234.998 249.287 258.844
7423.3 171.572 236.719 239.152 246.864
7426.09 274.414 240.362 252.151 241.78
7428.87 275.099 277.504 234.037 239.07
7431.65 283 282.637 231.022 254.613
7434.43 289.811 271.892 298.782 254.976
7437.21 242.864 252.263 235.125 258.111
7440 224.114 253.385 240.425 255.262
7442.78 293.177 244.356 290.237 246.239
7445.56 215.776 253.927 208.055 243.51
7448.34 252.828 255.311 232.237 231.674
7451.12 297.327 285.587 254.729 252.528
7453.9 306.606 296.013 270.619 264.079
7456.68 284.105 301.126 266.889 257.441
7459.46 312.667 294.944 234.814 250.08
7462.24 288.061 293.553 248.536 249.184
7465.02 279.93 264.288 264.201 256.615
7467.8 224.872 260.478 257.107 249.141
7470.58 276.633 264.298 226.114 266.188
7473.36 291.388 190.844 315.342 249.513
7476.14 4.51016 208.236 207.083 241.652
7478.92 328.81 195.848 202.531 224.169
7481.69 254.225 296.951 262.894 240.679
7484.47 307.817 260.726 256.612 247.284
7487.25 220.136 271.967 222.345 253.273
7490.03 287.949 263.809 280.861 242.633
7492.81 283.343 273.47 224.693 258.326
7495.58 249.118 277.795 269.425 241.389
7498.36 300.922 292.2 230.048 268.514
7501.14 326.561 304.251 306.067 265.891
7503.91 285.269 271.643 261.558 259.702
7506.69 203.099 252.147 211.481 236.473
7509.47 268.073 234.528 236.38 222.159
7512.24 232.413 258.565 218.617 231.127
7515.02 275.21 247.57 238.385 230.008
7517.79 235.087 187.932 233.023 252.943
7520.57 53.4985 192.607 287.421 262.99
7523.34 289.237 171.751 268.527 251.934
7526.12 172.517 222.343 199.855 236.933
7528.89 205.276 199.35 242.418 216.752
7531.67 220.258 219.083 207.984 216.983
7534.44 231.715 232.806 200.548 205.536
7537.22 246.444 232.21 208.077 210.178
7539.99 218.471 253.313 221.908 221.29
7542.76 295.025 262.363 233.885 229.923
7545.54 273.591 265.954 233.976 225.379
7548.31 229.246 233.704 208.276 232.205
7551.08 198.273 211.863 254.362 228.205
7553.86 208.071 166.291 221.976 233.356
7556.63 92.529 141.357 223.729 218.855
7559.4 123.47 151.626 210.86 241.723
7562.17 238.88 224.829 290.578 246.39
7564.95 312.136 267.741 237.731 256.472
7567.72 252.208 308.087 241.106 235.611
7570.49 359.917 295.926 227.995 227.456
7573.26 275.653 284.704 213.268 218.021
7576.03 218.542 242.884 212.799 221.751
7578.8 234.456 210.493 239.185 203.613
7581.57 178.479 228.519 158.855 199.11
7584.34 272.621 241.347 199.29 196.86
7587.11 272.942 249.548 232.436 207.566
7589.88 203.082 207.258 190.971 172.901
7592.65 145.75 143.003 95.2951 119.32
7595.42 80.1778 75.2666 71.6927 84.8955
7598.19 -0.127645 27.7148 87.6986 80.5599
7600.96 3.09416 33.2054 82.2884 91.3789
7603.73 96.6498 45.4733 104.15 66.3114
7606.5 36.676 78.1599 12.496 73.8162
7609.26 101.154 91.8099 104.803 83.3465
7612.03 137.6 135.066 132.741 132.579
7614.8 166.445 151.199 160.195 138.563
7617.57 149.552 149.491 122.754 139.85
7620.34 132.476 141.31 136.601 111.651
7623.1 141.901 122.051 75.5963 112.016
7625.87 91.777 95.8073 123.851 120.9
7628.64 53.7438 106.502 163.254 144.697
7631.4 173.985 124.265 146.985 144.31
7634.17 145.066 153.606 122.692 129.193
7636.94 141.767 146.853 117.902 127.132
7639.7 153.726 150.839 140.802 133.108
7642.47 157.024 162.026 140.621 148.019
7645.23 175.329 159.543 162.636 148.178
7648 146.276 157.588 141.276 149.347
7650.76 151.161 159.917 144.128 147.672
7653.53 182.313 165.696 157.612 153.032
7656.29 163.613 152.244 157.356 167.897
7659.06 110.806 119.528 188.724 156.353
7661.82 84.1661 129.549 122.98 150.495
7664.58 193.675 155.305 139.782 152.224
7667.35 188.074 191.233 193.912 166.055
7670.11 191.95 193.427 164.472 178.413
7672.87 200.258 193.138 176.854 188.322
7675.64 187.207 180.754 223.64 186.19
7678.4 154.796 173.061 158.077 200.495
7681.16 177.181 157.715 219.767 174.977
7683.92 141.167 171.273 147.089 181.454
7686.69 195.471 176.803 177.506 179.226
7689.45 193.771 192.171 213.085 179.568
7692.21 187.271 210.272 148.113 179.653
7694.97 249.774 216.664 177.761 157.75
7697.73 212.949 206.737 147.375 158.6
7700.49 157.49 176.666 150.664 170.144
7703.25 159.56 167.029 212.392 150.028
7706.01 184.038 203.384 87.0284 160.368
7708.77 266.552 208.286 181.684 136.854
7711.53 174.266 41.6477 141.85 143.221
7714.29 -315.875 -13.2581 106.13 97.4006
7717.05 101.835 -132.42 44.2218 117.801
7719.81 -183.22 43.4385 203.051 168.548
7722.57 211.7 87.7823 258.371 213.628
7725.33 234.866 225.9 179.46 206.33
7728.09 231.134 182.78 181.158 180.585
7730.84 82.3396 154.308 181.138 165.212
7733.6 149.449 146.941 133.342 168.629
7736.36 209.034 189.872 191.409 163.081
7739.12 211.134 197.572 164.494 181.437
7741.87 172.55 213.483 188.408 171.644
7744.63 256.766 242.957 162.031 178.263
7747.39 299.554 287.083 184.35 150.852
7750.15 304.929 272.012 106.177 152.459
7752.9 211.552 227.06 166.852 157.071
7755.66 164.697 93.4759 198.185 186.995
7758.41 -95.8219 91.8931 195.948 180.526
7761.17 206.804 98.6446 147.446 175.416
7763.92 184.952 152.947 182.854 173.531
7766.68 67.0851 148.274 190.294 191.346
7769.43 192.786 122.65 200.889 193.954
7772.19 108.078 128.727 190.678 199.657
7774.94 85.3158 136.627 207.403 196.947
7777.7 216.488 171.953 192.76 203.403
7780.45 214.055 199.644 210.046 203.463
7783.21 168.388 193.704 207.583 205.799
7785.96 198.67 195.881 199.767 180.721
7788.71 220.586 201.098 134.813 143.114
7791.46 184.039 238.787 94.7616 128.03
7794.22 311.734 236.509 154.514 140.248
7796.97 213.754 236.478 171.469 160.324
7799.72 183.945 141.903 154.988 169.404
7802.47 28.0094 125.841 181.756 159.098
7805.23 165.569 133.198 140.55 158.222
7807.98 206.015 187.333 152.36 159.354
7810.73 190.415 125.672 185.152 149.921
7813.48 -19.4149 169.326 112.25 160.972
7816.23 336.978 99.2514 185.514 153.43
7818.98 -19.8087 204.336 162.525 189.552
7821.73 295.839 156.699 220.617 190.457
7824.48 194.068 152.271 188.229 187.152
7827.23 -33.0924 75.7055 152.61 159.611
7829.98 66.141 77.9636 137.993 171.284
7832.73 200.842 165.149 223.249 182.957
7835.48 228.465 234.459 187.629 198.487
7838.23 274.07 251.1 184.582 189.414
7840.98 250.766 232.144 196.032 196.659
7843.72 171.595 196.501 209.363 189.201
7846.47 167.142 186.897 162.206 171.59
7849.22 221.955 175.557 143.202 102.705
7851.97 137.575 190.359 2.70706 108.713
7854.72 211.547 150.204 180.232 79.9546
7857.46 101.491 181.208 56.9251 148.608
7860.21 230.585 157.788 208.666 146.052
7862.96 141.286 188.763 172.564 181.307
7865.7 194.417 67.2693 162.69 136.134
7868.45 -133.895 56.5215 73.148 91.3898
7871.19 109.043 68.4852 38.3313 112.601
7873.94 230.308 122.561 226.323 122.309
7876.69 28.3327 80.5954 102.272 157.562
7879.43 -16.8545 7.31676 144.092 139.091
7882.18 10.4721 71.0659 170.909 171.484
7884.92 219.58 39.1129 199.452 173.374
7887.66 -112.714 -1.38684 149.76 169.695
7890.41 -111.027 -24.4875 159.871 157.15
7893.15 150.278 83.734 161.817 166.736
7895.9 211.951 150.375 178.52 170.961
7898.64 88.8947 155.775 172.544 175.483
7901.38 166.479 143.995 175.384 179.378
7904.13 176.611 128.97 190.206 174.249
7906.87 43.8196 169.944 157.156 133.7
7909.61 289.401 172.716 53.739 118.334
7912.35 184.927 17.1092 144.107 90.1693
7915.09 -423 -11.718 72.6619 144.957
7917.84 202.919 -36.6263 218.103 118.814
7920.58 110.202 135.625 65.6772 125.798
7923.32 93.7534 127.596 93.6135 115.257
7926.06 178.833 131.384 186.482 134.177
7928.8 121.564 115.373 122.435 159.378
7931.54 45.7208 73.3412 169.218 146.168
7934.28 52.7384 43.075 146.85 160.81
7937.02 30.7659 90.9796 166.362 150.833
7939.76 189.434 147.153 139.287 152.541
7942.5 221.26 193.255 151.973 124.4
7945.24 169.07 182.882 81.9379 113.767
7947.98 158.316 170.131 107.389 111.35
7950.72 183.009 170.177 144.722 137.547
7953.45 169.208 156.681 160.529 157.417
7956.19 117.827 152.513 166.999 140.764
7958.93 170.504 152.082 94.7641 135.577
7961.67 167.916 197.216 144.967 144.07
7964.4 253.229 87.4835 192.479 154.599
7967.14 -158.694 59.0578 126.35 145.97
7969.88 82.6383 5.88026 119.083 125.481
7972.61 93.6963 111.871 131.009 117.179
7975.35 159.277 133.867 101.445 120.295
7978.09 148.627 163.238 128.431 131.066
7980.82 181.81 149.697 163.323 148.29
7983.56 118.654 141.839 153.117 152.819
7986.29 125.052 61.0638 142.016 132.913
7989.03 -60.5151 80.9816 103.606 108.014
7991.76 178.408 86.6737 78.4214 101.319
7994.5 142.129 154.931 121.931 120.266
7997.23 144.258 148.049 160.446 149.207
7999.97 157.76 141.341 165.242 144.919
8002.7 122.004 138.395 109.067 127.738
8005.43 135.422 136.689 108.904 138.161
8008.17 152.64 160.285 196.513 160.14
8010.9 192.791 177.728 175.002 171.496
8013.63 187.753 170.238 142.972 142.006
8016.36 130.171 153.447 108.044 113.117
8019.1 142.417 68.3749 88.3335 101.628
8021.83 -67.4629 81.3052 108.506 87.0208
8024.56 168.962 77.683 64.2228 120.101
8027.29 131.55 145.763 187.573 139.117
8030.02 136.778 135.203 165.555 167.138
8032.75 137.283 122.904 148.286 169.639
8035.48 94.6532 142.704 195.076 169.349
8038.21 196.176 149.873 164.683 162.011
8040.94 158.788 173.828 126.274 146.084
8043.67 166.52 173.94 147.293 141.533
8046.4 196.513 177.659 151.031 131.29
8049.13 169.945 173.216 95.5472 131.826
8051.86 153.191 151.952 148.9 119.068
8054.59 132.721 149.384 112.756 119.794
8057.32 162.24 165.07 97.7254 114.551
8060.04 200.249 174.103 133.173 118.105
8062.77 159.819 182.213 123.417 132.954
8065.5 186.571 184.98 142.271 148.402
8068.23 208.55 155.008 179.517 143.63
8070.95 69.9036 153.432 109.101 147.846
8073.68 181.842 139.672 154.921 135.565
8076.41 167.27 174.764 142.672 143.617
8079.13 175.178 181.615 133.258 145.752
8081.86 202.396 160.629 161.326 138.62
8084.59 104.314 160.09 121.275 142.186
8087.31 173.559 146.403 143.959 133.084
8090.04 161.336 146.597 134.02 144.582
8092.76 104.896 123.363 155.769 148.233
8095.49 103.857 102.768 154.912 132.115
8098.21 99.5515 129.743 85.6638 117.238
8100.93 185.821 122.796 111.138 112.975
8103.66 83.0149 147.861 142.121 135.595
8106.38 174.748 143.627 153.526 145.278
8109.11 173.117 179.805 140.187 139.136
8111.83 191.549 181.883 123.696 141.433
8114.55 180.982 176.903 160.417 142.873
8117.27 158.177 166.477 144.507 136.48
8120 160.273 167.686 104.515 127.186
8122.72 184.608 147.079 132.535 116.406
8125.44 96.3555 141.583 112.169 124.43
8128.16 143.784 129.1 128.586 123.797
8130.88 147.161 135.965 130.635 120.895
8133.6 116.949 148.04 103.465 124.536
8136.32 180.01 133.602 139.508 104.719
8139.04 103.847 143.984 71.1848 110.305
8141.76 148.095 127.221 120.221 108.754
8144.48 129.722 153.627 134.855 121.717
8147.2 183.066 160.927 110.076 135.15
8149.92 169.993 166.051 160.518 134.014
8152.64 145.095 149.296 131.446 135.14
8155.36 132.8 128.297 113.457 119.776
8158.08 106.997 106.892 114.426 108.684
8160.8 80.8796 115.778 98.1693 104.79
8163.51 159.459 127.097 101.776 92.6652
8166.23 140.952 153.238 78.0507 105.753
8168.95 159.302 148.739 137.432 105.682
8171.66 145.964 153.883 101.563 122.329
8174.38 156.382 147.611 127.991 112.244
8177.1 140.486 138.411 107.179 113.371
8179.81 118.365 129.314 104.945 104.526
8182.53 129.092 138.979 101.456 105.244
8185.25 169.481 167.665 109.333 105.138
8187.96 204.423 163.492 104.624 97.0281
8190.68 116.571 142.867 77.1272 89.4884
8193.39 107.608 109.322 86.7138 80.1808
8196.1 103.787 116.703 76.7014 99.825
8198.82 138.714 129.23 136.06 105.807
8201.53 145.188 152.824 104.66 119.944
8204.25 174.569 174.855 119.112 108.993
8206.96 204.807 194.009 103.208 125.338
8209.67 202.651 187.015 153.693 136.459
8212.39 153.588 178.816 152.477 142.427
8215.1 180.21 147.361 121.112 117.673
8217.81 108.285 131.61 79.4291 103.495
8220.52 106.335 121.193 109.944 104.208
8223.23 148.958 142.758 123.25 113.396
8225.95 172.98 143.678 106.993 103.509
8228.66 109.096 140.247 80.284 104.034
8231.37 138.664 117.397 124.826 97.3926
8234.08 104.43 131.556 87.0673 107.13
8236.79 151.575 146.846 109.495 103.488
8239.5 184.532 166.381 113.901 113.605
8242.21 163.036 166.582 117.418 113.963
8244.92 152.177 126.326 110.57 101.584
8247.63 63.7647 126.046 76.7637 102.428
8250.33 162.195 122.001 119.949 93.1862
8253.04 140.042 149.506 82.8459 106.434
8255.75 146.28 146.243 116.506 111.613
8258.46 152.408 129.846 135.487 114.116
8261.17 90.8492 118.484 90.355 104.273
8263.87 112.196 128.636 86.9756 106.599
8266.58 182.862 139.398 142.467 105.191
8269.29 123.137 154.49 86.1298 121.085
8271.99 157.47 114.985 134.659 110.428
8274.7 64.3486 101.813 110.495 107.835
8277.41 83.6188 101.399 78.3523 109.154
8280.11 156.228 44.6511 138.615 113.726
8282.82 -105.894 -35.8059 124.21 113.323
8285.52 -157.752 -48.8357 77.1451 100.204
8288.23 117.139 36.1937 99.2555 109.983
8290.93 149.194 131.75 153.547 100.672
8293.64 128.916 124.752 49.2138 104.2
8296.34 96.1441 147.552 109.84 106.655
8299.04 217.595 160.036 160.912 127.536
8301.75 166.368 161.877 111.855 142.737
8304.45 101.667 115.332 155.444 114.83
8307.15 77.9616 92.4344 77.1917 89.5661
8309.86 97.6744 99.3133 36.0623 65.0788
8312.56 122.304 93.122 81.9823 63.1563
8315.26 59.3876 92.2641 71.4244 77.7523
8317.96 95.1008 107.957 79.8501 90.8889
8320.66 169.381 114.265 121.392 93.7065
8323.36 78.3117 111.611 79.8774 88.0281
8326.06 87.139 105.296 62.8148 84.0989
8328.76 150.438 124.848 109.604 89.4369
8331.46 136.966 124.372 95.8913 93.6805
8334.16 85.7124 80.6762 75.5457 95.0959
8336.86 19.3498 123.831 113.851 94.2707
8339.56 266.432 157.497 93.4156 112.784
8342.26 186.711 182.813 131.087 57.513
8344.96 95.2955 -97.505 -51.9634 51.3414
8347.66 -574.521 -254.363 74.9009 34.989
8350.36 -283.863 -258.026 82.0296 86.719
8353.05 84.3057 -29.8781 103.226 97.7353
8355.75 109.923 99.3014 107.95 99.8421
8358.45 103.676 77.1112 88.35 105.609
8361.15 17.7351 87.5722 120.526 97.5582
8363.84 141.306 104.569 83.7988 96.3886
8366.54 154.667 143.913 84.8412 89.0661
8369.23 135.767 133.345 98.5582 92.9571
8371.93 109.602 117.142 95.4719 95.1367
8374.63 106.058 98.2681 91.3799 87.2588
8377.32 79.1446 98.4384 74.9244 87.7687
8380.02 110.113 122.895 97.0017 93.5248
8382.71 179.428 146.831 108.648 99.5785
8385.4 150.953 133.448 93.0852 105.705
8388.1 69.9617 113.069 115.38 91.7111
8390.79 118.293 106.97 66.6679 83.9546
8393.48 132.656 175.997 69.8159 70.2582
8396.18 277.041 216.776 74.2907 94.2034
8398.87 240.632 203.105 138.504 86.7962
8401.56 91.6413 126.213 47.5941 96.3746
8404.25 46.3657 27.4145 103.026 81.6421
8406.95 -55.7634 72.4064 94.3062 113.296
8409.64 226.617 118.224 142.557 146.347
8412.33 183.82 182.333 202.179 140.506
8415.02 136.564 163.482 76.7827 158.872
8417.71 170.063 140.596 197.654 133.531
8420.4 115.161 164.662 126.156 154.273
8423.09 208.763 150.363 139.011 125.28
8425.78 127.166 137.04 110.673 98.1918
8428.47 75.1923 67.9233 44.8913 54.0225
8431.16 1.41191 33.1689 6.50311 22.1418
8433.85 22.9026 18.5825 15.0309 25.0123
8436.54 31.4331 68.3132 53.5028 65.2786
8439.22 150.604 90.9581 127.302 85.0758
8441.91 90.8372 133.953 74.4226 122.177
8444.6 160.419 128.572 164.807 90.9411
8447.29 134.459 82.4873 33.5937 106.898
8449.97 -47.4159 29.3154 122.295 78.0668
8452.66 0.903434 -6.20086 78.3122 95.8494
8455.35 27.9098 44.8972 86.9414 99.2604
8458.03 105.878 96.6254 132.528 79.7077
8460.72 156.088 157.138 19.654 83.732
8463.4 209.448 190.885 99.0145 71.7533
8466.09 207.12 164.628 96.5913 84.6283
8468.77 77.3146 116.825 58.279 76.5876
8471.46 66.0392 96.836 74.8925 70.8301
8474.14 147.154 110.807 79.3189 71.7489
8476.82 119.228 128.36 61.0352 60.1497
8479.51 118.699 129.999 40.0949 68.905
8482.19 152.07 138.91 105.585 91.6233
8484.87 145.961 128.834 129.19 92.1365
8487.56 88.4714 118.168 41.6346 87.1156
8490.24 120.073 129.269 90.5222 56.433
8492.92 179.264 160.371 37.1423 72.8072
8495.6 181.776 133.935 90.7571 75.0382
8498.28 40.7665 57.2648 97.2152 81.9029
8500.96 -50.7479 27.8421 57.7362 66.4605
8503.65 93.5076 68.9609 44.4301 60.2459
8506.33 164.123 116.404 78.5714 78.0891
8509.01 91.5828 132.046 111.266 104.328
8511.69 140.431 115.015 123.148 112.633
8514.36 113.032 134.78 103.484 106.119
8517.04 150.878 137.806 91.7246 86.7515
8519.72 149.508 140.981 65.0454 75.4423
8522.4 122.556 132.396 69.5569 68.6955
8525.08 125.125 130.28 71.4843 64.3931
8527.76 143.158 140.336 52.1381 72.1766
8530.43 152.725 158.746 92.9074 89.5018
8533.11 180.355 121.296 123.46 92.3429
8535.79 30.808 113.544 60.6615 94.1101
8538.47 129.469 99.9145 98.2089 74.6793
8541.14 139.467 128.33 65.1676 81.9826
8543.82 116.056 135.38 82.5714 95.8753
8546.49 150.618 135.801 139.887 92.0683
8549.17 140.729 132.242 53.7467 83.9543
8551.84 105.378 151.714 58.2293 80.0036
8554.52 209.036 150.617 128.035 89.7026
8557.19 137.437 151.096 82.8436 100.496
8559.87 106.814 119.913 90.6104 90.7895
8562.54 115.487 118.676 98.9146 98.0189
8565.21 133.725 131.415 104.532 94.6075
8567.89 145.034 128.039 80.376 81.9337
8570.56 105.358 133.856 60.8932 73.3423
8573.23 151.177 138.499 78.7575 69.4546
8575.9 158.962 156.336 68.7131 84.6963
8578.58 158.869 150.992 106.618 98.5368
8581.25 135.145 153.031 120.279 112.437
8583.92 165.078 142.03 110.413 99.0089
8586.59 125.868 148.712 66.3344 97.7875
8589.26 155.189 143.212 116.615 86.6638
8591.93 148.579 143.584 77.0423 85.0163
8594.6 126.983 119.949 61.392 65.3873
8597.27 84.283 112.117 57.7276 82.0164
8599.94 125.086 106.757 126.93 83.2393
8602.61 110.902 121.581 65.0608 99.2763
8605.28 128.754 128.232 105.839 88.1122
8607.94 145.041 142.609 93.4373 91.1748
8610.61 154.031 122.376 74.2485 74.3416
8613.28 68.0553 126.897 55.3391 75.6546
8615.95 158.603 125.755 97.3761 107.327
8618.61 150.608 143.8 169.265 130.135
8621.28 122.19 136.006 123.765 140.911
8623.95 135.22 136.428 129.702 105.661
8626.61 151.876 122.334 63.5142 82.4374
8629.28 79.9079 87.5674 54.0959 72.6341
8631.94 30.9189 87.2085 100.292 104.12
8634.61 150.799 104.581 157.971 111.956
8637.27 132.025 134.4 77.6056 95.4329
8639.94 120.375 149.794 50.7224 86.7482
8642.6 196.982 141.44 131.917 90.8135
8645.27 106.963 130.126 89.8015 96.2298
8647.93 86.4342 78.4849 66.9713 53.7488
8650.59 42.0579 87.3228 4.47354 53.5325
8653.25 133.476 96.1737 89.1528 61.4316
8655.92 112.987 119.416 90.6685 79.7928
8658.58 111.784 79.7237 59.5571 48.8152
8661.24 14.4004 40.6375 -3.77995 47.7974
8663.9 -4.27198 24.2467 87.6149 32.559
8666.56 62.6118 69.9185 13.842 35.4817
8669.22 151.416 91.9221 4.98836 41.6617
8671.88 61.7386 127.717 106.155 87.6872
8674.54 169.996 107.941 151.919 108.151
8677.2 92.0895 103.379 66.3787 107.358
8679.86 48.052 44.968 103.777 80.6044
8682.52 -5.23746 69.4255 71.6573 72.6353
8685.18 165.462 104.403 42.4714 69.4183
8687.84 152.985 152.023 94.1263 67.0446
8690.5 137.622 158.05 64.5362 97.7009
8693.15 183.545 154.471 134.44 89.31
8695.81 142.246 140.733 68.9535 97.6919
8698.47 96.4096 137.906 89.682 88.8063
8701.13 175.063 140.87 107.784 99.4852
8703.78 151.136 124.986 100.99 95.1408
8706.44 48.7596 115.127 76.6487 97.4166
8709.09 145.487 103.363 114.611 89.4731
8711.75 115.842 144.167 77.1597 98.2135
8714.4 171.171 139.529 102.87 97.1872
8717.06 131.574 142.851 111.532 87.4093
8719.71 125.808 133.535 47.8261 76.8934
8722.37 143.224 141.501 71.3225 78.815
8725.02 155.471 131.744 117.296 76.6739
8727.67 96.5363 154.162 41.4029 101.277
8730.33 210.48 141.329 145.131 86.2078
8732.98 116.972 149.689 72.089 97.943
8735.63 121.616 123.502 76.6085 73.9578
8738.28 131.917 134.967 73.1759 68.8339
8740.94 151.368 143.184 56.7173 76.0642
8743.59 146.267 138.485 98.2994 87.6207
8746.24 117.82 124.38 107.845 100.46
8748.89 109.053 101.841 95.2361 116.771
8751.54 78.6488 54.2325 147.23 126.669
8754.19 -25.0046 89.2412 137.542 131.417
8756.84 214.079 111.297 109.48 116.692
8759.49 144.815 169.235 103.053 120.029
8762.14 148.81 93.6232 147.554 40.482
8764.78 -12.7553 -99.2356 -129.161 -3.06454
8767.43 -433.761 -123.084 -27.5866 -35.0464
8770.08 77.265 -113.625 51.6084 41.6043
8772.73 15.6202 51.8729 100.791 68.6476
8775.38 62.7335 -69.2308 53.543 55.2084
8778.02 -286.046 -191.986 11.2908 -3.34071
8780.67 -352.646 -256.66 -74.8559 -12.2767
8783.31 -131.289 -178.196 26.7351 -13.557
8785.96 -50.6526 -0.842865 7.44982 22.9768
8788.61 179.413 72.1481 34.7455 -0.185942
8791.25 87.684 128.984 -42.7532 -3.77253
8793.9 119.854 124.159 -3.30995 -1.73603
8796.54 164.94 137.92 40.8551 29.6404
8799.18 128.968 143.213 51.376 61.3635
8801.83 135.733 102.902 91.8595 80.2281
8804.47 44.0068 100.973 97.4489 89.501
8807.11 123.18 118.769 79.1946 85.7636
8809.76 189.121 167.12 80.6474 83.3469
8812.4 189.057 187.42 90.1988 114.663
8815.04 184.081 111.918 173.142 183.887
8817.68 -37.3832 7.21862 288.321 274.914
8820.32 -125.042 65.973 363.28 278.747
8822.97 360.344 183.823 184.64 182.883
8825.61 316.168 302.005 0.729497 2.77501
8828.25 229.501 187.866 -177.045 -107.423
8830.89 17.928 97.3795 -145.955 -178.839
8833.53 44.7093 82.4126 -213.519 -119.82
8836.16 184.6 5.13985 0.0138315 -69.7802
8838.8 -213.89 10.162 4.16425 15.077
8841.44 59.7759 -1.20932 41.0528 39.0568
8844.08 150.486 138.258 71.9532 61.8188
8846.72 204.511 148.432 72.4504 28.7665
8849.36 90.2991 150.325 -58.1042 40.3107
8851.99 156.164 111.887 106.586 27.7982
8854.63 89.1961 109.352 34.913 62.3778
8857.27 82.6951 121.579 45.6345 76.9054
8859.9 192.847 126.007 150.169 90.8829
8862.54 102.48 148.4 76.8455 65.9911
8865.17 149.874 141.53 -29.041 10.6042
8867.81 172.236 157.614 -15.9917 -17.7768
8870.44 150.733 150.795 -8.29771 12.5026
8873.08 129.415 133.297 61.7973 75.6846
8875.71 119.742 68.9537 173.554 152.184
8878.34 -42.2966 -77.8831 221.201 174.589
8880.98 -311.095 -343.218 129.013 61.9862
8883.61 -676.262 -263.308 -164.256 -101.927
8886.24 197.433 -306.093 -270.539 -190.526
8888.87 -439.449 -48.0831 -136.784 -125.349
8891.51 97.7669 -79.3499 31.2768 3.09064
8894.14 103.632 70.4308 114.779 64.648
8896.77 9.89335 124.012 47.8882 76.4533
8899.4 258.511 55.5535 66.6928 45.9653
8902.03 -101.744 127.19 23.3148 40.3463
8904.66 224.803 78.8794 31.0314 57.9179
8907.29 113.579 101.062 119.408 95.78
8909.92 -35.1964 54.7413 136.901 162.476
8912.55 85.8416 -71.0294 231.119 126.146
8915.17 -263.733 -228.159 10.4193 6.89175
8917.8 -506.587 -416.289 -220.863 -107.634
8920.43 -478.548 -295.517 -112.458 -146.958
8923.06 98.5853 -118.673 -107.552 -47.2397
8925.68 23.9437 76.4444 78.2911 19.3743
8928.31 106.804 97.31 87.3837 73.508
8930.94 161.182 109.431 54.8491 69.1953
8933.56 60.307 123.832 65.353 60.0125
8936.19 150.006 124.95 59.8353 56.6853
8938.81 164.537 148.802 44.8675 20.6051
8941.44 131.862 148.293 -42.8876 6.71856
8944.06 148.481 123.971 18.1758 -6.34914
8946.69 91.5711 122.744 5.66438 58.4673
8949.31 128.181 115.091 151.562 77.831
8951.94 125.52 136.227 76.2667 57.2927
8954.56 154.98 56.426 -55.9504 -59.1772
8957.18 -111.222 36.8463 -197.848 -74.1907
8959.8 66.7809 16.9568 31.2261 -19.7287
8962.42 95.3113 80.8727 107.436 82.1978
8965.05 80.5258 102.404 107.932 113.01
8967.67 131.376 99.1478 123.663 99.0066
8970.29 85.5416 91.8324 65.4255 86.7698
8972.91 58.5795 79.8195 71.2214 61.1784
8975.53 95.3372 83.2249 46.8882 49.6506
8978.15 95.758 109.631 30.8423 30.5569
8980.77 137.797 91.0832 13.9402 35.0727
8983.39 39.6944 37.7244 60.4356 42.737
8986.01 -64.3186 12.5166 53.8353 39.4755
8988.62 62.174 34.6563 4.1555 19.3048
8991.24 106.113 104.329 -0.0764077 18.7603
8993.86 144.7 154.198 52.2017 -7.14829
8996.48 211.781 137.616 -73.5701 -10.9992
8999.09 56.3665 115.69 -11.6293 -50.7067
9001.71 78.9225 57.3196 -66.9208 11.2655
9004.33 36.6696 58.1042 112.347 49.6425
9006.94 58.7205 56.8587 103.502 105.746
9009.56 75.186 88.6246 101.39 92.6871
9012.17 131.967 98.1906 73.1701 80.7922
9014.79 87.4187 111.796 67.817 63.9835
9017.4 116.003 124.929 50.9635 47.3834
9020.01 171.364 147.059 23.3696 36.9162
9022.63 153.811 134.421 36.4156 38.6321
9025.24 78.0883 113.258 56.1113 43.7979
9027.85 107.875 105.085 38.8669 41.7839
9030.47 129.291 139.481 30.3737 55.7935
9033.08 181.277 136.001 98.1399 86.8366
9035.69 97.4354 143.334 131.996 80.1372
9038.3 151.288 126.991 10.2756 67.9532
9040.91 132.251 120.713 61.5879 11.3452
9043.52 78.6011 121.318 -37.828 45.7835
9046.13 153.102 83.1473 113.59 50.6188
9048.74 17.7384 82.2273 76.0939 82.0575
9051.35 75.8413 66.6913 56.4881 53.1093
9053.96 106.494 97.778 26.746 45.7381
9056.57 110.998 109.57 53.9803 47.4384
9059.18 111.219 121.062 61.5888 64.0589
9061.78 140.969 135.635 76.6075 62.7971
9064.39 154.717 140.343 50.1948 58.1097
9067 125.342 120.579 47.5268 46.6607
9069.6 81.6771 96.737 42.2604 35.5001
9072.21 83.1919 80.4997 16.713 26.2741
9074.82 76.63 53.274 19.8489 12.1873
