wavelength spec_sum spec_optimal
3535.11 -5.17935 1.87759
3538.03 4.65677 -0.217297
3540.96 -1.62197 2.73516
3543.88 6.57512 2.59626
3546.81 -2.87163 10.9524
3549.73 -1.67014 0.330174
3552.66 5.08026 9.67378
3555.58 -6.1672 1.59666
3558.51 1.24233 6.0618
3561.43 1.35188 7.75049
3564.36 -0.923389 5.59136
3567.28 0.435595 18.3283
3570.21 1.78362 10.1222
3573.13 5.71584 6.70122
3576.06 4.69653 7.45538
3578.98 -8.68864 1.22044
3581.91 3.1723 4.89395
3584.83 -1.23467 6.74561
3587.76 2.30167 6.53343
3590.68 -0.314338 5.0356
3593.61 2.51209 3.36829
3596.53 7.77254 9.75079
3599.45 -0.179544 -4.16458
3602.38 2.70522 3.57966
3605.3 1.34745 9.74288
3608.23 0.648567 4.9397
3611.15 7.28291 5.01345
3614.07 5.29197 -7.13652
3617 2.93565 8.21998
3619.92 -3.55996 2.02524
3622.85 -4.74599 -0.155146
3625.77 4.75443 -0.125055
3628.69 1.74889 -4.96839
3631.62 6.70928 11.9119
3634.54 8.46469 10.8558
3637.46 -1.96464 6.44322
3640.39 5.74149 5.71433
3643.31 5.50698 -0.668114
3646.23 5.13269 2.18936
3649.16 2.90402 1.83512
3652.08 3.87991 -5.64421
3655 2.30068 2.50528
3657.93 3.80575 -0.319414
3660.85 1.73629 5.79137
3663.77 -0.438348 -2.57555
3666.7 7.426 10.8936
3669.62 -5.14572 -4.73728
3672.54 6.91837 9.244
3675.47 -2.5293 -2.40436
3678.39 7.71147 5.96025
3681.31 -1.57123 -4.46149
3684.23 6.01254 5.88498
3687.16 4.89356 9.61925
3690.08 8.46473 8.45667
3693 8.59351 2.59213
3695.92 2.04367 2.94587
3698.85 2.95439 6.91065
3701.77 2.43038 0.54614
3704.69 -2.86418 -5.90912
3707.61 1.69334 2.47432
3710.54 3.53032 4.07887
3713.46 -5.20383 -5.09851
3716.38 0.205273 -7.08735
3719.3 5.36775 -0.496873
3722.23 -1.02761 3.11058
3725.15 -1.46004 -5.16902
3728.07 0.275105 6.33608
3730.99 1.99851 2.38881
3733.91 2.57392 1.63561
3736.83 0.0168875 7.88553
3739.76 1.79496 2.26389
3742.68 -1.84536 7.37932
3745.6 3.00334 6.83569
3748.52 1.05747 8.16673
3751.44 0.702856 3.02841
3754.36 1.44198 7.25051
3757.29 3.60852 3.56077
3760.21 0.818602 6.62907
3763.13 -5.40406 -1.74836
3766.05 5.08296 3.8815
3768.97 -0.0617162 5.40099
3771.89 4.94633 5.0528
3774.81 9.81676 11.1728
3777.73 9.78103 11.0501
3780.65 1.01113 6.39674
3783.58 4.71819 6.71711
3786.5 0.280714 3.86414
3789.42 -0.837366 5.47855
3792.34 3.57294 4.2524
3795.26 4.21625 3.36949
3798.18 0.801723 3.19678
3801.1 5.01025 9.59077
3804.02 -0.00124209 6.39039
3806.94 0.994557 5.17631
3809.86 3.46259 12.1889
3812.78 6.237 7.46769
3815.7 -1.2318 2.12533
3818.62 5.97934 11.1811
3821.54 -1.12704 2.81741
3824.46 2.77136 8.78127
3827.38 0.529115 6.56605
3830.3 -2.059 2.33617
3833.22 5.41712 6.06577
3836.14 -2.39535 2.18267
3839.06 3.50248 7.81437
3841.98 1.10913 6.04013
3844.9 -1.02489 5.34958
3847.82 3.52279 6.31765
3850.74 5.30796 4.31742
3853.66 2.15869 6.83402
3856.58 4.97138 7.98623
3859.5 -2.13523 -3.23437
3862.42 -0.824866 1.04868
3865.34 -2.74404 1.62392
3868.26 2.9861 5.71924
3871.18 -2.40234 1.83794
3874.1 0.833319 3.45596
3877.02 -0.0980258 4.01631
3879.94 1.98701 4.7026
3882.86 3.49011 7.92801
3885.78 1.83511 0.209334
3888.69 1.61163 -0.222301
3891.61 3.92705 4.22455
3894.53 -0.722458 -1.2662
3897.45 4.77522 5.69725
3900.37 -0.333606 -1.15721
3903.29 2.86841 3.86979
3906.21 1.51422 3.64704
3909.13 2.2421 4.55075
3912.04 6.31204 1.50552
3914.96 4.5663 1.60266
3917.88 7.13795 3.71247
3920.8 1.58615 -2.87881
3923.72 1.20761 3.72004
3926.64 -1.20592 -3.66107
3929.55 1.78285 -2.80994
3932.47 4.50935 1.7296
3935.39 -0.638965 -0.549054
3938.31 1.99169 -0.0880626
3941.23 -2.17707 -6.01025
3944.15 8.71513 4.41173
3947.06 2.34836 1.2644
3949.98 -3.05436 0.182027
3952.9 0.978347 -1.37741
3955.82 4.088 0.32694
3958.73 0.384132 -0.249594
3961.65 3.00577 -0.347149
3964.57 1.82249 0.753669
3967.49 0.0980029 1.61212
3970.4 6.8241 2.92447
3973.32 4.19687 0.803685
3976.24 6.24378 2.43094
3979.16 5.72512 0.825759
3982.07 -0.731588 -2.54279
3984.99 5.44801 5.85672
3987.91 8.14902 3.28301
3990.83 5.27866 1.31645
3993.74 3.01347 2.339
3996.66 1.91791 1.77384
3999.58 6.40629 4.6751
4002.49 5.44749 2.62747
4005.41 0.902492 -0.023035
4008.33 6.53291 1.36072
4011.24 2.75771 6.56292
4014.16 6.38448 3.88906
4017.08 4.90487 2.04344
4019.99 0.48003 -2.30907
4022.91 9.81426 7.12673
4025.83 5.3025 8.11707
4028.74 5.93302 5.11987
4031.66 5.46771 4.70333
4034.58 2.50709 0.29103
4037.49 2.15559 2.00215
4040.41 6.42268 7.38345
4043.32 1.32281 1.39977
4046.24 -0.719618 3.30756
4049.16 6.3298 6.34323
4052.07 5.50537 6.27837
4054.99 9.48133 8.22377
4057.9 6.77083 4.24006
4060.82 6.77727 4.61753
4063.74 3.1252 1.97919
4066.65 6.82517 7.07706
4069.57 7.01936 3.53304
4072.48 8.66595 10.5864
4075.4 6.3603 6.53503
4078.31 3.98076 4.37469
4081.23 5.52084 6.48888
4084.14 3.77071 2.29578
4087.06 4.7651 9.71876
4089.97 7.52176 6.74916
4092.89 5.72562 8.05158
4095.8 7.77309 3.75609
4098.72 7.92911 8.55735
4101.63 3.44868 4.84492
4104.55 6.35887 5.65457
4107.46 6.43776 3.99348
4110.38 5.04177 -1.16956
4113.29 2.4122 0.820469
4116.21 2.50413 4.26308
4119.12 4.17471 5.29274
4122.04 7.87019 8.40935
4124.95 7.24049 7.38174
4127.87 7.95129 5.71238
4130.78 6.02943 3.76282
4133.7 5.48077 6.42127
4136.61 3.97678 4.33715
4139.52 6.71096 8.41921
4142.44 5.19831 6.06713
4145.35 4.95773 5.07265
4148.27 4.31505 4.4074
4151.18 1.50066 3.62272
4154.1 8.15344 7.9771
4157.01 6.60171 8.03856
4159.92 6.54277 4.25617
4162.84 8.22422 5.99876
4165.75 2.4939 5.86053
4168.66 3.99605 5.45957
4171.58 7.24521 4.68373
4174.49 5.84977 5.40458
4177.41 4.59531 4.99824
4180.32 6.22729 11.8934
4183.23 5.92974 3.72767
4186.15 2.01853 5.10555
4189.06 3.24841 1.51058
4191.97 4.31986 4.25574
4194.89 2.62378 0.812672
4197.8 4.59618 5.49058
4200.71 4.47424 0.00568247
4203.62 3.11999 4.38385
4206.54 5.75182 7.10482
4209.45 5.4153 6.57462
4212.36 5.3538 5.43999
4215.28 6.22283 4.86756
4218.19 7.21126 2.55438
4221.1 7.18748 4.44037
4224.01 4.56323 3.92234
4226.93 1.70911 5.40423
4229.84 4.55381 3.3895
4232.75 4.05145 5.17876
4235.66 2.92428 3.1609
4238.58 6.79961 6.65419
4241.49 5.15818 4.66388
4244.4 4.31067 3.92544
4247.31 5.81369 5.09043
4250.23 4.84089 3.22922
4253.14 1.64754 1.31819
4256.05 1.71921 0.488081
4258.96 8.77201 8.14088
4261.87 7.27802 6.09042
4264.78 5.38563 6.76754
4267.7 6.4101 7.62294
4270.61 4.63225 3.9757
4273.52 5.71819 6.71293
4276.43 8.26418 7.30259
4279.34 4.84917 1.44592
4282.25 4.38138 4.84754
4285.17 2.98928 5.83176
4288.08 1.18551 5.70355
4290.99 4.5643 4.98454
4293.9 1.82187 -0.646271
4296.81 8.42955 7.99187
4299.72 5.79773 6.19433
4302.63 4.17042 1.01536
4305.54 3.13158 1.22494
4308.45 5.161 5.21504
4311.37 4.29134 4.99907
4314.28 6.84158 3.69502
4317.19 5.84504 3.41795
4320.1 8.79886 5.64951
4323.01 8.59875 7.51347
4325.92 5.73064 1.42009
4328.83 6.5621 7.59056
4331.74 6.86339 5.7622
4334.65 6.24197 6.09369
4337.56 6.74408 5.29945
4340.47 9.31152 9.2373
4343.38 9.07928 7.95699
4346.29 6.88811 6.36652
4349.2 4.8841 3.78184
4352.11 6.80151 3.63674
4355.02 7.53224 6.52101
4357.93 6.05101 6.30441
4360.84 8.40942 7.58916
4363.75 7.89924 8.31523
4366.66 9.32858 6.73562
4369.57 9.58124 9.3361
4372.48 7.72401 5.19179
4375.39 8.74431 6.82376
4378.3 6.02624 4.7128
4381.21 4.51287 5.13167
4384.12 8.6876 6.22735
4387.03 7.3864 6.26113
4389.94 9.33357 6.15646
4392.85 10.2839 7.85523
4395.75 8.53033 8.7277
4398.66 8.37612 8.441
4401.57 7.16403 4.24473
4404.48 5.24114 4.63774
4407.39 7.52902 6.89229
4410.3 7.84429 6.68065
4413.21 8.12892 7.37495
4416.12 9.19726 7.95014
4419.03 7.47112 5.81053
4421.93 7.0192 4.88082
4424.84 8.46854 5.76185
4427.75 8.17534 8.60931
4430.66 8.57455 7.7697
4433.57 9.07843 5.87091
4436.48 8.11025 8.62332
4439.38 9.08113 4.71826
4442.29 9.55462 8.17317
4445.2 9.54652 8.40605
4448.11 8.58135 7.80046
4451.02 8.83572 8.03252
4453.92 7.29212 6.45903
4456.83 6.42298 5.70432
4459.74 5.24059 5.66648
4462.65 4.38676 4.52111
4465.56 10.8648 9.31886
4468.46 9.60582 9.35663
4471.37 10.2357 8.39426
4474.28 11.3071 10.2242
4477.19 10.4809 9.32826
4480.09 8.55737 6.71361
4483 11.0705 11.1912
4485.91 10.6719 10.294
4488.81 8.99077 8.36099
4491.72 7.73319 10.3131
4494.63 9.38258 9.30361
4497.54 8.42652 6.15152
4500.44 12.6868 12.1938
4503.35 11.7056 11.0287
4506.26 8.93098 8.99856
4509.16 12.0069 11.8673
4512.07 11.9899 9.74576
4514.98 9.58166 8.69658
4517.88 9.51345 9.72696
4520.79 10.5676 9.67058
4523.7 12.4367 11.3736
4526.6 10.0987 10.3043
4529.51 9.65583 5.64315
4532.41 7.72173 7.52091
4535.32 10.8966 11.4837
4538.23 8.73848 6.84638
4541.13 10.1387 9.84169
4544.04 8.66007 10.12
4546.94 9.10766 8.9792
4549.85 11.6551 10.3024
4552.76 9.40861 8.76521
4555.66 11.5347 10.1314
4558.57 7.76495 7.82799
4561.47 10.4239 10.2554
4564.38 10.2326 9.41844
4567.28 11.4356 10.8625
4570.19 9.17368 7.5056
4573.1 11.5579 8.50675
4576 10.3729 8.29728
4578.91 9.28608 9.37561
4581.81 9.48775 7.31482
4584.72 9.79062 9.50721
4587.62 12.4469 9.33696
4590.53 13.4736 11.7113
4593.43 10.8663 9.96047
4596.34 9.43269 9.5647
4599.24 11.2007 12.3629
4602.14 12.3412 8.76367
4605.05 11.0455 9.639
4607.95 8.17641 7.44856
4610.86 8.90602 8.0663
4613.76 11.9587 10.8357
4616.67 11.5901 10.7328
4619.57 13.1232 11.2858
4622.48 12.6541 10.6422
4625.38 10.2981 8.51482
4628.28 12.8417 12.6559
4631.19 7.57186 5.82798
4634.09 8.46036 7.69309
4637 11.4136 11.0312
4639.9 10.6452 9.02098
4642.8 7.99577 6.57387
4645.71 11.055 10.3019
4648.61 9.93878 10.0927
4651.51 9.97562 9.54127
4654.42 10.2911 11.4522
4657.32 10.8983 7.9651
4660.22 8.35935 8.15255
4663.13 11.1755 10.5691
4666.03 10.4804 11.4024
4668.93 10.1415 7.5689
4671.84 9.23269 7.92202
4674.74 10.3217 8.84586
4677.64 9.74705 7.63777
4680.55 9.74708 6.93757
4683.45 13.4038 12.3036
4686.35 11.06 10.0636
4689.26 8.97267 8.92676
4692.16 8.99122 9.58739
4695.06 10.2933 10.2044
4697.96 8.20318 8.51656
4700.87 9.41179 9.48985
4703.77 8.33804 7.29636
4706.67 9.28587 6.92035
4709.57 11.5059 12.373
4712.47 10.4299 10.8391
4715.38 10.101 7.64055
4718.28 12.2389 11.9228
4721.18 11.7907 10.6151
4724.08 10.7805 11.6389
4726.98 8.21865 6.09537
4729.89 9.86344 9.43662
4732.79 10.9145 9.96472
4735.69 11.5643 10.1999
4738.59 11.0383 10.6484
4741.49 9.22385 7.41655
4744.39 9.71418 9.55265
4747.3 11.9502 9.21907
4750.2 8.85934 8.11328
4753.1 11.537 10.4706
4756 10.3944 9.58639
4758.9 6.13489 6.78945
4761.8 7.68423 8.04857
4764.7 11.3335 12.7961
4767.6 9.85235 9.03713
4770.5 12.1806 10.6565
4773.4 11.7343 12.2027
4776.31 10.8205 9.18932
4779.21 9.80801 8.85292
4782.11 8.21865 8.92078
4785.01 6.14454 7.15452
4787.91 11.7429 9.80283
4790.81 8.98623 9.32601
4793.71 9.90868 9.25249
4796.61 12.7968 12.546
4799.51 6.99857 6.80022
4802.41 10.7403 9.28522
4805.31 8.9563 8.26553
4808.21 10.5134 12.0394
4811.11 9.69655 8.44287
4814.01 8.27699 8.36928
4816.91 9.79665 9.10016
4819.81 10.0923 8.76181
4822.71 8.93305 8.50404
4825.61 8.65659 7.32096
4828.51 11.237 9.66866
4831.4 11.8447 10.0927
4834.3 7.19074 6.21799
4837.2 11.5555 9.2501
4840.1 7.4972 6.35176
4843 9.59416 7.92215
4845.9 9.40074 10.0842
4848.8 9.68332 9.8867
4851.7 10.0607 7.60229
4854.6 11.1625 12.1141
4857.5 11.4391 11.8998
4860.39 8.64993 8.95272
4863.29 7.7669 7.69357
4866.19 10.5424 8.81942
4869.09 9.31683 9.22393
4871.99 10.168 10.4518
4874.89 8.20321 7.55033
4877.78 8.98024 8.23807
4880.68 10.1941 9.81311
4883.58 9.42186 10.3752
4886.48 12.1258 12.303
4889.38 8.6997 8.11681
4892.27 7.70035 7.35999
4895.17 10.8491 12.0661
4898.07 14.3363 13.6947
4900.97 10.9217 9.12325
4903.87 9.43852 8.47949
4906.76 13.2398 13.8775
4909.66 10.9197 11.3858
4912.56 9.70942 10.3139
4915.45 8.79454 7.86385
4918.35 9.4451 9.45697
4921.25 10.5933 10.6563
4924.15 9.386 9.83749
4927.04 11.0853 10.2232
4929.94 9.90786 9.87434
4932.84 12.546 11.8408
4935.73 9.62035 9.32226
4938.63 13.0234 10.9857
4941.53 10.0734 9.62512
4944.42 8.38208 7.51379
4947.32 11.7123 12.1964
4950.22 10.8263 10.1277
4953.11 10.5878 10.254
4956.01 11.5567 11.0556
4958.91 10.7749 10.2069
4961.8 10.7564 12.1558
4964.7 8.60071 8.00172
4967.59 11.0305 10.0729
4970.49 11.6004 11.6298
4973.39 10.7905 10.1209
4976.28 9.87151 10.2931
4979.18 9.22109 10.6539
4982.07 9.2118 7.96157
4984.97 9.63681 8.89423
4987.86 10.196 11.5269
4990.76 10.5329 9.70666
4993.65 7.61297 7.65099
4996.55 9.86202 8.995
4999.44 9.33422 8.50276
5002.34 7.13159 6.81465
5005.23 9.32071 9.84757
5008.13 9.81231 8.65313
5011.02 10.3009 10.3335
5013.92 9.48352 9.06653
5016.81 9.69301 10.1446
5019.71 10.6616 10.184
5022.6 12.8232 11.096
5025.5 11.7522 9.95787
5028.39 12.128 9.78758
5031.29 9.82724 8.30353
5034.18 8.37597 9.20508
5037.07 9.5424 6.75365
5039.97 10.8331 11.5485
5042.86 9.40661 10.1318
5045.76 11.4709 11.3211
5048.65 8.40748 7.53098
5051.54 8.63029 8.6422
5054.44 8.01725 7.2116
5057.33 14.7817 13.9013
5060.22 10.6111 9.43914
5063.12 9.64168 8.34447
5066.01 12.4115 12.9291
5068.9 7.7509 8.95085
5071.8 7.08699 8.98968
5074.69 8.42544 7.54421
5077.58 8.06677 8.37654
5080.48 8.23278 7.7156
5083.37 8.03797 6.16533
5086.26 8.86236 8.18168
5089.16 8.29696 7.06725
5092.05 9.65713 9.38822
5094.94 9.54885 8.31181
5097.83 10.9271 9.09423
5100.73 10.4951 8.50306
5103.62 9.72488 7.70791
5106.51 7.71543 7.61919
5109.4 9.40927 9.22106
5112.29 8.63373 7.89146
5115.19 7.30633 7.24087
5118.08 6.56284 6.13692
5120.97 9.70147 7.83054
5123.86 9.71902 8.28379
5126.75 8.04321 7.93015
5129.65 8.61279 8.883
5132.54 8.32253 6.69311
5135.43 9.7589 9.32091
5138.32 8.88051 6.96271
5141.21 7.87822 5.67333
5144.1 9.27015 6.93301
5146.99 8.05008 7.81549
5149.89 8.24051 6.93334
5152.78 8.66874 7.83178
5155.67 10.8443 8.11064
5158.56 6.96973 5.60318
5161.45 8.79046 8.2295
5164.34 5.19178 4.35148
5167.23 7.39055 6.0078
5170.12 3.99674 3.30544
5173.01 4.70708 3.05129
5175.9 4.36946 5.71889
5178.79 7.79424 7.99779
5181.68 7.74672 6.34426
5184.57 6.83343 5.45195
5187.46 9.22133 7.98018
5190.35 8.13595 9.14795
5193.24 10.2359 10.8271
5196.13 9.8913 9.92675
5199.02 9.87256 9.08824
5201.91 8.42005 8.28196
5204.8 7.10983 7.07
5207.69 5.89413 3.70275
5210.58 9.06016 8.88169
5213.47 11.8403 12.6013
5216.36 9.95036 11.1758
5219.25 13.0873 13.35
5222.14 9.77988 9.69583
5225.03 11.4098 10.3761
5227.91 10.9281 10.5417
5230.8 11.8951 12.1013
5233.69 11.125 10.1649
5236.58 9.14219 8.94798
5239.47 13.7916 12.648
5242.36 12.6569 12.4295
5245.25 12.9658 11.4985
5248.13 12.4579 11.6782
5251.02 11.637 10.7617
5253.91 10.335 9.38007
5256.8 12.7882 10.1734
5259.69 11.9363 10.02
5262.58 11.1737 10.8436
5265.46 8.68832 7.8654
5268.35 12.766 12.6699
5271.24 7.34177 9.8011
5274.13 13.4926 14.3895
5277.01 12.2245 11.0152
5279.9 11.5079 13.1064
5282.79 12.2585 12.2769
5285.68 14.005 13.5196
5288.56 10.474 10.5387
5291.45 11.1907 9.56485
5294.34 13.5254 14.3851
5297.22 10.942 10.9297
5300.11 13.5863 13.6547
5303 11.8182 11.9353
5305.88 13.7928 13.896
5308.77 12.3385 14.4939
5311.66 13.5938 15.5846
5314.54 13.6145 14.2454
5317.43 12.4229 14.9984
5320.32 12.8031 13.2575
5323.2 9.21356 11.3406
5326.09 10.6382 12.6962
5328.97 13.3902 13.9589
5331.86 12.7716 13.587
5334.75 9.05471 10.5306
5337.63 13.5886 14.0917
5340.52 12.4042 12.4918
5343.4 12.0708 12.4505
5346.29 11.1664 10.4783
5349.17 14.1512 13.921
5352.06 12.0476 12.0943
5354.94 12.5388 14.7696
5357.83 14.5796 14.7216
5360.71 14.526 14.0264
5363.6 14.1687 15.0492
5366.48 14.4121 13.8657
5369.37 14.1465 15.9989
5372.25 12.2834 12.2482
5375.14 11.1364 12.0604
5378.02 12.198 14.1738
5380.91 11.1939 12.2781
5383.79 11.3303 14.5874
5386.67 11.776 11.6346
5389.56 11.9059 12.8887
5392.44 13.3044 15.5921
5395.33 10.756 13.4818
5398.21 14.8768 17.081
5401.09 10.1312 11.0261
5403.98 11.8339 12.1306
5406.86 13.0291 15.0417
5409.75 11.8458 14.2147
5412.63 10.3724 12.2689
5415.51 14 16.0387
5418.4 17.9316 19.9284
5421.28 14.2557 17.3094
5424.16 13.0294 14.9931
5427.04 12.376 12.6384
5429.93 13.0974 14.4697
5432.81 13.1264 13.6655
5435.69 12.8634 14.7272
5438.58 13.3644 15.6164
5441.46 12.3268 13.8386
5444.34 12.5584 13.839
5447.22 12.1302 14.7952
5450.1 13.0737 15.3502
5452.99 13.9957 16.4001
5455.87 14.1387 17.3151
5458.75 9.92316 12.011
5461.63 8.13635 15.7627
5464.51 13.0081 16.4187
5467.4 10.1804 11.8229
5470.28 13.8709 15.3505
5473.16 8.46102 16.1809
5476.04 10.2196 13.8815
5478.92 14.1608 18.0766
5481.8 8.51525 16.8388
5484.68 14.2732 16.0462
5487.57 7.99644 16.0003
5490.45 12.8166 15.9872
5493.33 13.4042 15.8671
5496.21 11.5303 16.315
5499.09 14.5846 17.0748
5501.97 12.5264 14.8262
5504.85 13.3129 16.6326
5507.73 10.9467 15.7809
5510.61 10.184 14.9214
5513.49 11.8252 14.8707
5516.37 6.66516 14.5919
5519.25 10.6523 14.6851
5522.13 11.6866 15.0934
5525.01 9.29219 11.5169
5527.89 13.0628 15.0783
5530.77 14.0269 18.1882
5533.65 8.2611 18.0714
5536.53 12.6523 15.6946
5539.41 6.23835 15.7773
5542.29 6.06352 15.5871
5545.17 9.94847 19.1072
5548.05 14.1901 17.9122
5550.93 14.3045 16.1574
5553.8 13.633 16.2409
5556.68 13.3279 14.1477
5559.56 11.6678 14.6543
5562.44 6.88259 17.4576
5565.32 11.9201 16.0423
5568.2 11.174 14.9825
5571.08 14.4969 17.6521
5573.95 10.8618 6.90063
5576.83 9.5573 2.78134
5579.71 8.49281 5.04556
5582.59 7.48763 7.09189
5585.47 -7.28562 9.66871
5588.34 -0.959853 12.5163
5591.22 -0.88171 12.5989
5594.1 10.3683 16.3163
5596.98 3.16823 15.7185
5599.85 10.6491 14.0325
5602.73 13.0215 16.8642
5605.61 13.0249 16.4004
5608.48 10.0816 17.8981
5611.36 12.6206 13.653
5614.24 12.1783 15.2522
5617.12 6.99643 15.673
5619.99 12.7061 15.1131
5622.87 7.01102 15.4601
5625.75 13.6412 14.1971
5628.62 12.3079 14.7938
5631.5 11.6535 14.7196
5634.37 8.87552 18.3682
5637.25 12.385 16.4304
5640.13 12.1455 16.383
5643 14.8633 16.8102
5645.88 8.19574 16.3368
5648.75 14.5604 17.5905
5651.63 6.77843 14.4341
5654.5 3.99372 11.0382
5657.38 14.8073 17.3777
5660.26 14.892 18.5502
5663.13 12.1321 13.468
5666.01 13.0928 16.6135
5668.88 12.0349 15.8554
5671.76 13.6553 16.4825
5674.63 11.6097 14.9767
5677.51 12.4617 14.2096
5680.38 12.7315 14.758
5683.25 16.8834 20.1826
5686.13 13.5677 18.1025
5689 14.0559 18.3545
5691.88 13.8147 15.4638
5694.75 18.1352 21.7284
5697.63 5.76171 12.6319
5700.5 14.5822 18.4124
5703.37 9.75012 12.651
5706.25 15.7797 16.7971
5709.12 13.2817 15.3723
5711.99 11.0339 12.9751
5714.87 13.4795 14.8527
5717.74 12.8415 15.6102
5720.61 14.2402 16.0937
5723.49 13.6184 16.965
5726.36 11.5966 13.9658
5729.23 4.96867 13.3115
5732.11 12.4189 14.5612
5734.98 12.3023 13.9485
5737.85 13.4504 15.3901
5740.72 14.7547 15.7072
5743.6 13.9174 18.0214
5746.47 12.3497 16.6377
5749.34 15.6113 19.3741
5752.21 14.9783 18.3306
5755.08 6.04461 13.7323
5757.96 12.829 16.4546
5760.83 12.6078 14.9487
5763.7 12.6727 16.009
5766.57 13.6944 17.9499
5769.44 12.2509 16.2458
5772.31 9.70665 16.8825
5775.18 6.77639 17.3497
5778.06 11.7173 14.4977
5780.93 11.0129 13.4752
5783.8 11.8035 14.6142
5786.67 13.7945 15.3653
5789.54 14.0029 15.7081
5792.41 11.3448 12.8434
5795.28 17.6592 20.8836
5798.15 16.4723 19.4866
5801.02 13.5423 15.602
5803.89 16.7172 19.2774
5806.76 11.3368 13.239
5809.63 11.5733 14.2015
5812.5 9.50487 17.4377
5815.37 16.8186 20.0158
5818.24 14.7271 17.3821
5821.11 15.2073 18.625
5823.98 14.1178 15.6155
5826.85 15.6739 19.3332
5829.72 13.8899 16.8768
5832.59 8.17287 15.2834
5835.46 12.3144 15.8105
5838.32 7.60991 17.6298
5841.19 13.3916 17.9697
5844.06 6.59376 14.9264
5846.93 8.41416 15.179
5849.8 13.0524 13.653
5852.67 13.388 16.2178
5855.54 14.1529 16.796
5858.4 14.6511 19.0878
5861.27 11.9057 13.4879
5864.14 12.3157 16.5337
5867.01 6.00887 16.8818
5869.88 4.02774 12.2915
5872.74 14.6861 14.6414
5875.61 12.478 15.3306
5878.48 5.18887 16.9998
5881.35 3.41015 14.4496
5884.21 10.2009 9.14326
5887.08 10.2862 11.1745
5889.95 5.30844 4.51856
5892.81 -8.4874 9.93113
5895.68 10.299 13.2487
5898.55 8.06776 11.8402
5901.41 10.9998 15.062
5904.28 16.351 18.586
5907.15 14.2905 15.5881
5910.01 14.4708 19.1839
5912.88 12.4042 16.9844
5915.74 13.7617 18.0429
5918.61 8.90393 10.2385
5921.48 16.4364 20.6693
5924.34 12.8777 17.5972
5927.21 13.1222 15.2472
5930.07 14.6401 17.4629
5932.94 13.1898 15.3217
5935.8 12.5865 14.6351
5938.67 13.1024 16.1461
5941.53 13.2475 17.123
5944.4 14.7672 19.0578
5947.26 13.6293 16.1183
5950.13 13.8166 15.6701
5952.99 14.3062 16.6193
5955.86 16.2699 17.9623
5958.72 12.4531 15.875
5961.58 13.8455 16.4295
5964.45 17.5878 19.9578
5967.31 13.61 15.862
5970.18 10.763 19.899
5973.04 12.5727 14.473
5975.9 11.3138 14.5076
5978.77 12.9778 17.2603
5981.63 13.9874 17.303
5984.49 11.1443 17.2415
5987.36 9.43166 18.9613
5990.22 11.7988 15.3628
5993.08 15.2774 15.4402
5995.94 11.012 19.0591
5998.81 6.87954 15.85
6001.67 14.1886 17.4292
6004.53 14.8171 17.5594
6007.39 9.42968 17.7837
6010.26 12.4811 15.4039
6013.12 11.85 13.6158
6015.98 12.8008 16.6871
6018.84 13.607 17.8882
6021.7 11.691 12.8275
6024.57 6.09442 12.6255
6027.43 15.8342 17.3745
6030.29 14.1678 15.8648
6033.15 12.621 14.7927
6036.01 7.87198 15.0643
6038.87 14.4146 16.1419
6041.73 12.1477 15.905
6044.59 12.7125 14.7039
6047.45 8.94079 18.0762
6050.31 8.0393 16.0412
6053.18 8.58888 17.0266
6056.04 15.4938 20.2602
6058.9 9.52276 16.9469
6061.76 13.6112 15.0271
6064.62 15.7727 17.8797
6067.48 13.2197 16.4461
6070.34 14.356 16.9861
6073.2 14.1982 18.6007
6076.05 15.4832 18.705
6078.91 9.71994 18.3902
6081.77 9.74266 15.0505
6084.63 13.6725 16.7917
6087.49 7.41878 15.3772
6090.35 14.1662 17.8678
6093.21 14.9025 16.743
6096.07 10.422 14.3667
6098.93 14.7397 16.9924
6101.78 12.9003 14.8609
6104.64 14.8375 17.6617
6107.5 12.9043 14.6074
6110.36 5.26016 13.7367
6113.22 11.0014 12.0019
6116.07 6.64016 14.9812
6118.93 14.7104 17.222
6121.79 11.7693 13.8496
6124.65 12.1275 14.42
6127.5 15.1702 17.2918
6130.36 7.53861 13.7877
6133.22 13.3549 15.4689
6136.08 13.1003 13.9639
6138.93 12.5081 15.3435
6141.79 14.5693 16.3723
6144.65 13.2238 16.9158
6147.5 12.0546 13.5909
6150.36 15.1996 16.5786
6153.22 11.7043 14.9605
6156.07 5.61828 13.956
6158.93 9.95058 12.0953
6161.78 9.84044 13.3137
6164.64 12.9532 15.9081
6167.49 13.1793 14.4178
6170.35 6.71334 13.727
6173.21 7.59425 15.1879
6176.06 7.95145 14.6654
6178.92 14.1252 15.9983
6181.77 8.1476 17.1187
6184.63 13.4986 15.8342
6187.48 11.9822 13.4499
6190.33 9.59303 18.157
6193.19 12.2888 16.6317
6196.04 15.4501 17.5087
6198.9 8.31128 19.1556
6201.75 11.5663 14.1591
6204.61 13.307 15.4066
6207.46 13.2792 15.2239
6210.31 10.6908 12.443
6213.17 12.8052 14.8354
6216.02 8.31726 15.3779
6218.87 11.7197 13.4552
6221.73 13.4605 16.1903
6224.58 14.8947 17.012
6227.43 9.33025 11.3939
6230.29 11.9154 13.1273
6233.14 12.7765 13.8025
6235.99 13.7426 14.1408
6238.84 16.4718 17.3618
6241.7 14.9643 16.0603
6244.55 14.7613 17.4021
6247.4 14.8752 18.2957
6250.25 15.5505 19.4593
6253.1 12.0123 15
6255.96 11.8201 14.8733
6258.81 12.158 13.0769
6261.66 12.2861 12.9452
6264.51 14.7969 17.0152
6267.36 13.023 16.225
6270.21 15.2363 18.035
6273.06 14.7583 17.0851
6275.91 12.9878 16.6434
6278.76 11.2708 13.245
6281.61 4.5789 14.6869
6284.46 15.4594 16.1881
6287.32 12.6515 14.6252
6290.17 12.1791 17.5277
6293.02 13.7245 13.6702
6295.87 10.097 1.63763
6298.71 11.7545 2.28501
6301.56 7.94963 1.63725
6304.41 12.0684 5.33143
6307.26 10.5978 11.4928
6310.11 16.0109 17.5744
6312.96 14.8148 17.827
6315.81 13.8632 17.8591
6318.66 5.64307 18.2721
6321.51 13.3356 18.2926
6324.36 14.729 19.749
6327.2 5.31623 16.0443
6330.05 13.6852 15.9363
6332.9 16.6029 20.8643
6335.75 7.57497 16.6102
6338.6 12.3536 15.6926
6341.44 11.5723 16.333
6344.29 13.9132 19.0557
6347.14 11.9875 15.4543
6349.99 9.23197 20.507
6352.83 14.3566 18.2392
6355.68 17.4707 20.7278
6358.53 1.75678 17.9895
6361.37 11.0516 12.3813
6364.22 14.2096 12.8897
6367.07 11.0835 14.4182
6369.91 12.5814 18.1937
6372.76 8.5705 12.8773
6375.61 7.81005 20.4139
6378.45 13.8257 19.1559
6381.3 12.0671 15.735
6384.14 14.4502 18.512
6386.99 5.90309 15.7264
6389.84 14.0733 18.3083
6392.68 12.5115 17.1467
6395.53 7.79191 17.8392
6398.37 13.3278 16.7941
6401.22 13.5392 16.6071
6404.06 15.1242 20.5595
6406.91 13.157 16.9449
6409.75 6.25651 13.6871
6412.59 13.3833 17.6345
6415.44 14.288 18.9017
6418.28 12.192 15.5945
6421.13 14.2239 17.7982
6423.97 12.882 16.4735
6426.81 14.5397 18.7489
6429.66 12.3021 17.0356
6432.5 13.022 19.2062
6435.34 12.3307 19.5086
6438.19 13.2149 17.4503
6441.03 15.3684 19.6344
6443.87 14.2629 18.814
6446.72 8.78769 17.5834
6449.56 14.4939 20.3911
6452.4 9.30111 19.2826
6455.24 6.26142 16.2495
6458.08 12.5524 18.2649
6460.93 5.79412 16.4676
6463.77 12.1559 14.5875
6466.61 13.7469 17.4371
6469.45 8.17641 19.5656
6472.29 14.0049 18.0065
6475.13 15.5125 20.052
6477.98 12.3733 16.6295
6480.82 6.04847 15.3807
6483.66 14.0939 18.2356
6486.5 15.1868 19.153
6489.34 13.0507 19.0065
6492.18 5.49302 13.9944
6495.02 4.85961 17.1648
6497.86 12.436 13.5824
6500.7 2.78459 12.2275
6503.54 15.5675 20.5842
6506.38 13.8718 16.8284
6509.22 11.9392 15.5491
6512.06 13.8672 18.0979
6514.9 8.65766 17.8292
6517.74 13.8417 18.8517
6520.57 11.1217 15.5884
6523.41 11.5482 21.3828
6526.25 8.86762 18.9873
6529.09 15.8416 20.3989
6531.93 5.7079 17.8795
6534.77 15.5031 18.2571
6537.61 15.347 20.2423
6540.44 13.9853 18.2417
6543.28 16.8209 21.6346
6546.12 15.7733 19.5856
6548.96 14.3492 19.8867
6551.79 6.23955 18.2494
6554.63 15.0518 18.7468
6557.47 12.7056 16.9704
6560.3 13.5764 14.599
6563.14 15.9606 20.3367
6565.98 14.3989 18.3612
6568.81 13.3872 15.6329
6571.65 14.5684 18.3295
6574.49 5.07113 14.2099
6577.32 11.814 14.844
6580.16 15.4219 18.845
6582.99 12.7269 17.6747
6585.83 6.63813 15.4263
6588.67 6.87853 18.338
6591.5 11.7885 16.4809
6594.34 10.1109 19.5649
6597.17 13.0178 16.9371
6600.01 12.5732 15.3481
6602.84 15.0764 18.7818
6605.68 12.1253 16.0839
6608.51 7.67751 17.1624
6611.34 13.6522 18.6516
6614.18 8.55476 17.0827
6617.01 15.0043 18.1683
6619.85 12.9017 17.9958
6622.68 13.6956 16.3201
6625.51 13.6565 17.8923
6628.35 15.8619 22.0205
6631.18 14.4393 16.141
6634.01 7.51994 15.3699
6636.85 13.3505 15.4495
6639.68 8.69764 14.5538
6642.51 10.19 17.5298
6645.34 12.5329 14.9451
6648.18 11.7203 14.1411
6651.01 14.8496 16.7538
6653.84 10.3639 18.8557
6656.67 13.0619 15.7573
6659.5 9.56889 17.5296
6662.33 9.84958 16.7
6665.17 14.034 21.2381
6668 12.9732 15.2076
6670.83 14.7756 16.2566
6673.66 8.42614 15.4795
6676.49 13.8134 17.3135
6679.32 14.1236 17.3182
6682.15 12.5698 14.0819
6684.98 14.477 16.8974
6687.81 11.7455 15.533
6690.64 10.439 17.7441
6693.47 14.7712 16.7879
6696.3 12.3961 14.0851
6699.13 14.2689 17.0483
6701.96 13.8101 15.1007
6704.79 10.9578 13.4002
6707.62 14.0571 15.2631
6710.45 13.1619 15.4474
6713.28 12.3713 16.4061
6716.1 14.6974 15.2428
6718.93 13.8832 17.0782
6721.76 15.0945 18.0049
6724.59 13.4755 16.04
6727.42 16.0694 16.6608
6730.24 15.0396 16.5237
6733.07 13.9577 16.3382
6735.9 13.9886 16.2298
6738.73 11.61 17.6026
6741.55 10.5287 12.6078
6744.38 13.4375 14.1324
6747.21 14.1874 16.9006
6750.04 8.01754 13.6165
6752.86 13.6458 16.9579
6755.69 14.7388 17.3846
6758.51 14.2603 16.4276
6761.34 11.8108 13.1851
6764.17 9.02317 15.1113
6766.99 13.2551 15.8091
6769.82 14.052 15.6797
6772.64 11.2358 13.1468
6775.47 15.8891 17.4858
6778.29 8.74392 14.3634
6781.12 15.2403 16.9833
6783.94 17.8553 19.401
6786.77 9.04459 14.8428
6789.59 9.36468 15.2958
6792.42 11.0486 12.0909
6795.24 13.5196 13.9853
6798.06 15.689 17.3308
6800.89 14.3055 14.8797
6803.71 13.1002 15.719
6806.53 13.9189 14.8351
6809.36 9.57837 15.3349
6812.18 13.3134 15.8112
6815 7.58866 13.4138
6817.83 8.04413 13.4908
6820.65 12.8702 15.7949
6823.47 16.0204 18.6172
6826.29 11.5787 14.0677
6829.12 11.9099 11.8887
6831.94 13.8997 14.9069
6834.76 14.7707 12.1598
6837.58 12.9424 14.5391
6840.4 11.4627 15.565
6843.22 13.47 16.5177
6846.05 12.9891 13.6599
6848.87 13.057 13.1475
6851.69 10.6317 11.4743
6854.51 3.56162 14.4233
6857.33 11.5756 13.6345
6860.15 12.5077 12.8182
6862.97 1.91332 11.4623
6865.79 -2.69695 8.40363
6868.61 0.815051 10.4631
6871.43 8.54782 9.33651
6874.25 4.26683 9.37613
6877.07 9.76453 11.013
6879.89 12.1189 14.1896
6882.71 12.8178 14.7489
6885.52 9.09375 11.1131
6888.34 7.27908 13.5108
6891.16 13.5753 13.5179
6893.98 7.15886 13.3092
6896.8 10.1364 10.5957
6899.62 11.5321 13.0972
6902.43 9.86132 10.9528
6905.25 15.2215 16.512
6908.07 12.6292 16.1154
6910.89 12.1973 14.9713
6913.7 6.15738 12.0489
6916.52 10.2323 10.9086
6919.34 3.24062 9.87327
6922.15 3.44063 11.2499
6924.97 11.3808 12.4647
6927.79 13.1135 14.0309
6930.6 12.2385 13.6608
6933.42 6.59921 12.8909
6936.23 12.8717 13.2442
6939.05 9.23227 14.4546
6941.87 4.09337 11.5556
6944.68 13.899 15.2564
6947.5 12.813 13.2397
6950.31 14.7414 14.7829
6953.13 4.00758 9.58622
6955.94 13.6613 12.1713
6958.75 15.3552 15.0109
6961.57 12.5005 12.1773
6964.38 15.5645 17.0775
6967.2 13.7044 13.0527
6970.01 12.7318 13.3492
6972.82 14.2364 15.9672
6975.64 8.18678 16.3719
6978.45 13.3729 13.4954
6981.26 12.7502 13.1915
6984.08 14.3512 16.0018
6986.89 14.7726 14.5856
6989.7 14.7255 16.6561
6992.51 14.1695 14.3365
6995.33 8.72488 11.6281
6998.14 13.0598 12.8709
7000.95 10.6176 14.0601
7003.76 3.74903 8.73809
7006.57 15.6274 16.0065
7009.38 13.124 13.4196
7012.19 12.3634 13.2569
7015.01 13.8749 14.7756
7017.82 14.9546 14.9
7020.63 13.733 14.6615
7023.44 15.7305 15.7689
7026.25 8.50575 12.6709
7029.06 13.9769 13.8373
7031.87 12.3551 16.1441
7034.68 9.29578 12.9826
7037.49 16.0394 16.952
7040.29 16.7507 16.517
7043.1 15.4866 16.7488
7045.91 6.81445 11.4205
7048.72 13.8075 14.0344
7051.53 15.0034 15.4686
7054.34 12.5968 13.1289
7057.15 12.2941 16.6247
7059.95 14.8391 14.3012
7062.76 14.2054 13.717
7065.57 10.8993 16.1328
7068.38 16.5476 16.8388
7071.18 5.52839 10.9398
7073.99 14.3273 13.9419
7076.8 11.3394 14.8013
7079.61 9.75549 14.2693
7082.41 10.4582 9.76842
7085.22 12.3516 13.1874
7088.02 12.1752 11.7009
7090.83 12.2149 12.1004
7093.64 14.8303 14.8261
7096.44 13.357 13.5327
7099.25 12.3535 11.5449
7102.05 10.566 13.5623
7104.86 14.6847 15.9279
7107.66 16.3088 16.5299
7110.47 10.2552 13.2768
7113.27 13.2406 14.6962
7116.08 10.3489 13.1222
7118.88 14.4288 15.0903
7121.68 14.0682 13.279
7124.49 14.3913 16.6899
7127.29 12.475 13.5029
7130.1 14.5365 14.8942
7132.9 12.4427 11.6282
7135.7 10.7884 11.2416
7138.5 13.8857 14.0179
7141.31 13.2083 14.5929
7144.11 13.2928 13.4514
7146.91 13.528 14.8382
7149.71 16.3259 15.4392
7152.52 13.5261 13.7419
7155.32 13.7584 13.6159
7158.12 8.00472 11.8142
7160.92 6.91359 9.48
7163.72 11.1918 16.4277
7166.52 12.2283 17.9019
7169.32 16.1053 15.9524
7172.12 9.80976 15.177
7174.92 15.2615 14.3669
7177.72 11.3551 15.9964
7180.52 12.1447 11.5591
7183.32 7.23531 11.6538
7186.12 9.77674 11.9362
7188.92 12.6873 12.9904
7191.72 10.4345 11.5866
7194.52 14.7378 15.2147
7197.32 11.1526 13.0254
7200.12 15.5374 16.6085
7202.92 11.7076 11.8953
7205.72 12.2248 12.1979
7208.51 13.7501 14.9435
7211.31 9.96034 14.8058
7214.11 13.2522 13.6575
7216.91 13.0848 14.4876
7219.71 11.4076 12.6913
7222.5 13.8522 12.6053
7225.3 8.79047 14.4202
7228.1 11.301 14.1825
7230.89 14.4856 16.9196
7233.69 12.0491 14.9655
7236.49 10.4984 12.5284
7239.28 15.6531 9.13629
7242.08 11.2421 14.5482
7244.87 11.8625 12.4548
7247.67 13.5407 16.5143
7250.46 -1.85054 10.5996
7253.26 11.743 14.7531
7256.05 4.2767 13.2311
7258.85 8.17655 13.5028
7261.64 10.9039 13.9452
7264.44 11.0785 12.849
7267.23 7.47135 13.9117
7270.02 12.5734 13.0745
7272.82 12.8913 10.7458
7275.61 15.7546 18.6811
7278.41 -3.24043 18.1829
7281.2 -8.40335 13.8387
7283.99 -5.7243 11.2008
7286.78 2.67979 16.4037
7289.58 11.1306 11.4757
7292.37 12.984 16.4999
7295.16 6.14503 12.7553
7297.95 12.2664 15.0727
7300.74 1.05953 10.2329
7303.54 13.6607 18.8653
7306.33 9.61363 12.3333
7309.12 4.82298 17.3434
7311.91 -2.36825 15.705
7314.7 15.732 19.0662
7317.49 -3.27593 13.808
7320.28 12.6189 17.7479
7323.07 11.6673 12.8886
7325.86 18.2435 17.6191
7328.65 15.2876 13.7728
7331.44 12.1725 14.2835
7334.23 18.0254 14.1243
7337.02 17.5433 14.9217
7339.81 16.1772 11.4551
7342.6 12.0412 16.4543
7345.38 12.0088 14.2271
7348.17 13.184 14.2267
7350.96 12.7348 14.6866
7353.75 13.977 14.3883
7356.54 15.502 17.4688
7359.32 12.9489 13.6296
7362.11 17.4626 16.1045
7364.9 10.4603 11.6496
7367.68 -6.28902 11.1257
7370.47 13.1947 14.1095
7373.26 11.976 15.6058
7376.04 12.2335 14.038
7378.83 16.5877 16.5592
7381.62 8.66691 13.7476
7384.4 9.61033 14.93
7387.19 7.07285 13.8055
7389.97 11.9905 10.1415
7392.76 13.206 14.1493
7395.54 1.3741 12.1925
7398.33 13.9117 11.7989
7401.11 13.8329 15.1947
7403.89 11.0488 14.1339
7406.68 9.72507 13.2269
7409.46 11.4438 12.9121
7412.25 13.6672 15.8138
7415.03 5.4542 10.4769
7417.81 15.6556 17.043
7420.59 10.2658 14.769
7423.38 13.9614 14.2092
7426.16 15.0744 15.022
7428.94 13.8634 13.9644
7431.72 14.7037 13.8305
7434.51 7.20049 17.9241
7437.29 13.6297 14.1353
7440.07 14.5764 14.5184
7442.85 15.8979 17.5514
7445.63 12.8701 12.6324
7448.41 14.7081 14.129
7451.19 16.0538 15.5043
7453.97 11.7332 16.5066
7456.75 15.7907 16.3094
7459.53 15.6197 14.3838
7462.31 10.7027 15.2518
7465.09 15.3945 16.225
7467.87 13.9324 15.8013
7470.65 15.9506 13.9364
7473.43 16.2837 19.4095
7476.21 12.5911 12.7779
7478.99 16.8597 12.4698
7481.77 4.27292 16.1877
7484.54 8.77235 15.8063
7487.32 12.084 13.6743
7490.1 17.8579 17.2514
7492.88 9.97421 13.7731
7495.65 13.7438 16.4873
7498.43 15.6989 14.063
7501.21 18.5664 18.6758
7503.98 14.8735 15.9208
7506.76 11.2203 12.8395
7509.54 11.2921 14.3304
7512.31 13.5611 13.2244
7515.09 15.226 14.403
7517.86 5.77496 14.0337
7520.64 1.59428 17.2638
7523.41 16.1003 16.0871
7526.19 9.69884 11.9381
7528.96 -1.62465 14.4418
7531.74 1.61281 12.3874
7534.51 10.9205 11.8986
7537.29 12.8039 12.3263
7540.06 12.4855 13.1164
7542.83 15.3566 13.8017
7545.61 9.94464 13.7901
7548.38 13.5918 12.265
7551.15 15.6162 14.948
7553.93 12.5807 13.0379
7556.7 11.7735 13.1226
7559.47 11.4809 12.3532
7562.24 12.7314 16.9993
7565.01 9.29893 13.9406
7567.78 15.4163 14.1191
7570.56 17.1301 13.3493
7573.33 15.0792 12.4801
7576.1 11.6816 12.4702
7578.87 13.909 14.0204
7581.64 10.1699 9.33025
7584.41 9.82945 11.7021
7587.18 13.8167 13.6408
7589.95 10.3443 11.2419
7592.72 8.60616 5.6186
7595.49 -0.592078 4.21417
7598.26 3.79192 5.16872
7601.03 4.02654 4.85424
7603.79 4.77817 6.1529
7606.56 0.772482 0.741085
7609.33 6.17883 6.22227
7612.1 7.74632 7.89313
7614.87 9.8442 9.54128
7617.63 6.67355 7.31486
7620.4 7.4441 8.17591
7623.17 7.67853 4.54277
7625.94 1.11152 7.434
7628.7 7.82874 9.82243
7631.47 9.36125 8.86533
7634.23 9.40205 7.43152
7637 5.54588 7.15526
7639.77 5.63399 8.55701
7642.53 9.29274 8.56418
7645.3 10.4325 9.93863
7648.06 6.55134 8.6714
7650.83 6.22083 8.85153
7653.59 10.169 9.7171
7656.36 10.3414 9.74145
7659.12 7.65487 11.7239
7661.88 4.69788 7.66211
7664.65 11.1093 8.74329
7667.41 12.0666 12.1486
7670.17 12.8421 10.3445
7672.94 13.0081 11.1574
7675.7 12.0937 14.1396
7678.46 9.59594 10.0228
7681.22 9.56241 13.9949
7683.99 10.2895 9.39064
7686.75 10.7052 11.361
7689.51 12.6065 13.6794
7692.27 12.5137 9.55457
7695.03 13.285 11.4914
7697.79 13.2543 9.56724
7700.55 10.5332 9.814
7703.31 12.0104 13.8691
7706.07 11.5257 5.731
7708.83 14.1355 11.9281
7711.59 12.2963 9.3382
7714.35 -24.7322 7.02199
7717.11 5.56867 2.97663
7719.87 12.0187 13.5024
7722.63 -3.38458 17.2259
7725.39 13.6758 12.0425
7728.15 13.0525 12.17
7730.91 12.814 12.1888
7733.66 9.51096 9.01651
7736.42 14.805 12.9636
7739.18 13.016 11.1737
7741.94 12.2392 12.7946
7744.69 1.87174 11.0646
7747.45 15.6563 12.6235
7750.21 -13.3744 7.29756
7752.96 12.0926 11.4578
7755.72 12.5679 13.6262
7758.47 10.8574 13.5047
7761.23 13.2289 10.195
7763.98 2.14474 12.6585
7766.74 12.8729 13.1787
7769.49 5.53902 13.9359
7772.25 14.3973 13.251
7775 14.0081 14.4393
7777.76 16.1262 13.4198
7780.51 13.7323 14.6389
7783.26 11.0451 14.491
7786.02 12.5256 13.9626
7788.77 13.9302 9.4709
7791.52 12.625 6.65043
7794.28 15.7053 10.8358
7797.03 14.0882 12.0616
7799.78 10.3633 10.895
7802.53 13.5958 12.779
7805.28 13.7695 9.9176
7808.04 3.20107 10.7589
7810.79 13.9565 13.1038
7813.54 0.08136 7.96137
7816.29 21.1327 13.136
7819.04 19.1165 11.5514
7821.79 18.3708 15.6554
7824.54 11.979 13.3821
7827.29 12.8296 10.9225
7830.04 5.1274 9.85502
7832.79 15.035 15.9257
7835.54 15.7069 13.4285
7838.29 16.9773 13.2337
7841.03 16.2966 14.0689
7843.78 3.56942 15.0474
7846.53 9.37264 11.672
7849.28 15.1022 10.335
7852.03 -21.6289 0.211045
7854.77 15.9873 13.0087
7857.52 4.14755 4.14174
7860.27 15.7239 15.163
7863.01 -7.33315 12.5649
7865.76 -5.53332 11.8707
7868.51 6.55919 5.35394
7871.25 6.27826 2.84966
7874 14.7382 16.604
7876.74 13.1147 7.55137
7879.49 11.8103 10.6242
7882.23 15.337 12.6128
7884.98 15.0303 14.7233
7887.72 8.65647 11.0839
7890.46 -3.72236 11.8695
7893.21 12.2437 12.014
7895.95 6.05145 13.2716
7898.7 13.9736 12.8413
7901.44 12.3634 13.0699
7904.18 14.5948 14.2158
7906.92 3.66298 11.7568
7909.67 18.2436 4.08337
7912.41 10.864 10.7638
7915.15 6.76811 5.43248
7917.89 16.4742 16.3827
7920.63 8.54707 4.95023
7923.37 8.5034 7.05746
7926.11 -1.00008 14.0655
7928.85 -3.004 9.26148
7931.59 14.0263 12.7675
7934.33 13.5495 11.1152
7937.07 9.84559 12.5955
7939.81 12.8532 10.5836
7942.55 14.2882 11.5509
7945.29 9.98532 6.24913
7948.03 2.6159 8.22649
7950.77 12.1288 11.0688
7953.51 12.7973 12.305
7956.25 13.6435 12.8445
7958.98 12.3061 7.33497
7961.72 13.0306 11.1962
7964.46 16.8606 14.9047
7967.19 -12.4541 9.83412
7969.93 7.00422 9.30791
7972.67 10.0531 10.2711
7975.4 13.9758 7.9963
7978.14 -2.59234 10.1574
7980.88 14.0657 12.9293
7983.61 -0.541917 12.2097
7986.35 11.3 11.3423
7989.08 -4.98785 8.33357
7991.82 -13.8056 6.38997
7994.55 10.5934 9.89026
7997.28 14.1067 13.0909
8000.02 14.045 13.5257
8002.75 11.9323 8.97144
8005.49 12.2353 9.00787
8008.22 12.6 16.3118
8010.95 17.2558 14.6121
8013.68 15.5714 11.9665
8016.42 12.1211 9.11498
8019.15 13.1339 7.48314
8021.88 11.646 9.25207
8024.61 12.3342 5.51074
8027.34 13.5546 16.0778
8030.07 12.1308 14.2332
8032.8 3.58163 12.8217
8035.53 16.4273 16.8912
8038.26 16.6755 14.3335
8040.99 14.4352 11.0427
8043.72 8.68645 12.9002
8046.45 15.5845 13.2786
8049.18 6.80409 8.44982
8051.91 6.83074 13.1954
8054.64 10.6118 9.9962
8057.37 2.35032 8.70406
8060.1 16.0934 11.8986
8062.82 14.1311 11.062
8065.55 15.9075 12.7788
8068.28 16.2586 16.1292
8071.01 6.03383 9.84549
8073.73 17.0221 14.0172
8076.46 16.2242 12.939
8079.19 10.0308 12.0924
8081.91 12.231 14.6488
8084.64 14.9588 11.0481
8087.36 14.6717 13.1295
8090.09 12.2381 12.2419
8092.81 12.6651 14.2279
8095.54 14.4469 14.218
8098.26 8.85186 7.88276
8100.99 14.4064 10.2188
8103.71 15.2944 13.0784
8106.43 14.3036 14.1238
8109.16 14.753 12.9223
8111.88 14.6611 11.4299
8114.6 15.6702 14.8087
8117.32 13.1288 13.3517
8120.05 12.869 9.69828
8122.77 14.0972 12.2544
8125.49 12.3375 10.3877
8128.21 13.2321 11.9424
8130.93 13.1569 12.1239
8133.65 12.155 9.63587
8136.37 16.2712 12.9688
8139.09 8.21948 6.63882
8141.81 10.9261 11.202
8144.53 15.6109 12.5753
8147.25 15.6791 10.2566
8149.97 13.5726 14.979
8152.69 11.5755 12.2884
8155.41 11.098 10.6266
8158.13 9.09182 10.7107
8160.85 10.9643 9.21438
8163.56 13.6079 9.55173
8166.28 13.851 7.35096
8169 14.0977 12.9331
8171.71 13.3929 9.58451
8174.43 11.6005 12.0739
8177.15 12.7737 10.1362
8179.86 10.4286 9.94621
8182.58 10.6661 9.62567
8185.3 13.6418 10.3987
8188.01 17.0202 9.96744
8190.73 9.98658 7.34717
8193.44 10.377 8.30022
8196.15 6.88703 7.34584
8198.87 12.8615 13.0253
8201.58 13.5977 10.0573
8204.3 14.6712 11.4576
8207.01 17.7654 9.95754
8209.72 16.5685 14.7763
8212.44 17.333 14.7072
8215.15 14.8698 11.7247
8217.86 13.9091 7.71149
8220.57 11.907 10.6543
8223.28 12.6062 11.9549
8226 15.2899 10.3999
8228.71 13.2397 7.81255
8231.42 13.0725 12.1421
8234.13 11.4568 8.47741
8236.84 13.8177 10.6671
8239.55 18.2335 11.11
8242.26 13.9802 11.4379
8244.97 14.6576 10.7616
8247.68 11.3078 7.49656
8250.38 13.4054 11.6681
8253.09 13.6901 8.08553
8255.8 14.6069 11.3226
8258.51 14.3123 13.1468
8261.22 11.3782 8.77231
8263.92 12.2556 8.44123
8266.63 16.9243 13.7901
8269.34 12.5865 8.36357
8272.04 13.9657 13.0217
8274.75 14.1446 10.6741
8277.46 10.0036 7.57624
8280.16 13.529 13.3811
8282.87 13.6068 11.9731
8285.57 14.3498 7.49351
8288.28 9.41857 9.59106
8290.98 12.4964 14.8153
8293.69 15.6576 4.81169
8296.39 8.2952 10.5488
8299.09 18.2614 15.4879
8301.8 13.0549 10.7755
8304.5 11.7598 14.9877
8307.2 8.40764 7.47593
8309.91 10.4054 3.53314
8312.61 15.172 7.94972
8315.31 12.1031 6.95412
8318.01 7.72508 7.74
8320.71 14.9309 11.7775
8323.41 10.6186 7.76974
8326.11 11.6838 6.12887
8328.82 14.0105 10.6712
8331.52 13.4373 9.35048
8334.22 9.55266 7.38533
8336.91 13.781 11.1146
8339.61 16.7001 9.17392
8342.31 11.5339 12.8351
8345.01 6.33351 -5.04913
8347.71 2.40974 7.36352
8350.41 12.9798 8.10538
8353.11 14.2117 10.1833
8355.8 10.6 10.6714
8358.5 11.6351 8.7583
8361.2 12.0569 11.8864
8363.89 9.79944 8.30918
8366.59 16.5463 8.39878
8369.29 10.1471 9.78032
8371.98 12.3075 9.46845
8374.68 12.362 9.07316
8377.37 9.04673 7.43967
8380.07 10.459 9.61323
8382.76 15.6985 10.8108
8385.46 12.4118 9.22348
8388.15 14.599 11.4307
8390.84 11.4675 6.63093
8393.54 12.7783 6.90849
8396.23 21.0361 7.3752
8398.92 19.6941 13.7145
8401.62 10.5645 4.75923
8404.31 9.49659 10.168
8407 9.71314 9.31066
8409.69 20.5514 14.0744
8412.38 17.4011 19.9277
8415.07 10.0229 7.57913
8417.76 16.4327 19.4426
8420.45 11.9531 12.4163
8423.14 18.5875 13.6995
8425.83 7.52151 10.8525
8428.52 8.07604 4.39823
8431.21 4.18191 0.649704
8433.9 5.3255 1.51468
8436.59 5.685 5.29028
8439.28 14.376 12.4895
8441.97 9.36533 7.32471
8444.65 15.369 16.1418
8447.34 12.8856 3.31471
8450.03 14.2009 11.993
8452.71 17.4118 7.72712
8455.4 13.1848 8.52986
8458.09 11.915 13.0252
8460.77 12.09 1.95044
8463.46 14.8207 9.76849
8466.14 17.6404 9.54246
8468.83 9.09795 5.75113
8471.51 9.60623 7.36869
8474.2 14.3141 7.8274
8476.88 12.8225 6.03423
8479.56 11.2543 3.99549
8482.25 15.2562 10.414
8484.93 13.5568 12.7589
8487.61 8.26422 4.13319
8490.29 11.4057 8.94153
8492.98 14.3197 3.69435
8495.66 16.2022 8.97076
8498.34 11.385 9.5802
8501.02 14.2441 5.70612
8503.7 9.71035 4.39027
8506.38 14.3645 7.78005
8509.06 9.56066 10.9628
8511.74 13.0181 12.1172
8514.42 11.4765 10.177
8517.1 15.5438 9.0216
8519.78 14.0779 6.40142
8522.46 13.3621 6.8421
8525.14 12.2703 7.01759
8527.82 13.7806 5.12759
8530.49 13.7799 9.07709
8533.17 14.4148 12.0246
8535.85 9.02923 5.89611
8538.52 10.8583 9.52354
8541.2 12.8974 6.35029
8543.88 10.7253 7.97332
8546.55 12.8661 13.5206
8549.23 9.32738 5.23431
8551.9 9.19567 5.61363
8554.58 19.5732 12.3234
8557.25 13.0881 7.96722
8559.93 13.1537 8.68837
8562.6 12.8515 9.48695
8565.27 11.2841 10.0047
8567.95 14.7582 7.70068
8570.62 10.9992 5.82477
8573.29 15.2828 7.53956
8575.96 14.24 6.5646
8578.64 12.0943 10.1385
8581.31 13.9741 11.4261
8583.98 15.1382 10.5156
8586.65 11.6384 6.31304
8589.32 12.1697 11.0643
8591.99 13.3297 7.34247
8594.66 14.1458 5.85248
8597.33 9.6762 5.50296
8600 16.0451 12.0608
8602.67 12.1208 6.1908
8605.34 11.8044 10.0367
8608.01 13.543 8.8742
8610.68 14.6386 7.06864
8613.34 11.4561 5.27597
8616.01 13.3701 9.26709
8618.68 13.8311 16.0411
8621.34 11.7679 11.7408
8624.01 13.4661 12.3149
8626.68 10.3527 6.07041
8629.34 8.3735 5.17573
8632.01 15.8277 9.53988
8634.67 15.2497 15.0026
8637.34 13.0778 7.39429
8640 8.92679 4.85654
8642.67 14.4494 12.573
8645.33 12.3337 8.56188
8648 9.9528 6.41158
8650.66 6.99394 0.46723
8653.32 13.6289 8.50445
8655.98 13.1245 8.67763
8658.65 10.2158 5.70499
8661.31 5.67485 -0.309986
8663.97 13.3968 8.37823
8666.63 8.25266 1.38161
8669.29 14.5566 0.516396
8671.95 12.385 10.1413
8674.61 14.8938 14.4839
8677.27 14.9959 6.37079
8679.93 11.8677 9.91231
8682.59 6.6616 6.84452
8685.25 14.5308 4.07904
8687.91 11.5926 8.9974
8690.57 10.8641 6.17712
8693.23 14.9043 12.8299
8695.88 11.3333 6.59568
8698.54 14.9366 8.56764
8701.2 16.2304 10.2919
8703.85 14.543 9.64049
8706.51 12.5971 7.30383
8709.17 14.6901 10.9022
8711.82 14.552 7.36845
8714.48 15.6987 9.78749
8717.13 15.3561 10.5854
8719.79 12.4706 4.5812
8722.44 12.4231 6.76967
8725.09 15.7164 11.1255
8727.75 10.1976 3.95344
8730.4 18.8472 13.7167
8733.05 11.09 6.82564
8735.71 14.0785 7.23905
8738.36 12.9072 6.91737
8741.01 13.0975 5.36572
8743.66 14.769 9.22409
8746.31 13.0907 10.1205
8748.96 10.1567 8.93772
8751.62 13.2506 13.7714
8754.27 12.1391 12.8842
8756.92 18.8033 10.2232
8759.57 10.203 9.59766
8762.21 11.9885 13.7415
8764.86 3.83938 -11.9199
8767.51 12.4544 -2.50645
8770.16 8.81897 4.80843
8772.81 5.19531 9.41225
8775.46 4.51328 4.97312
8778.1 12.5692 1.09676
8780.75 3.9687 -6.87237
8783.4 9.51028 2.53583
8786.04 8.39516 0.75098
8788.69 13.6811 3.24965
8791.33 8.26385 -3.92876
8793.98 11.586 -0.2549
8796.62 14.9033 3.79531
8799.27 11.2284 4.74656
8801.91 12.1748 8.50747
8804.56 8.74994 9.02224
8807.2 11.1709 7.34731
8809.84 14.7958 7.49887
8812.48 15.3866 8.40607
8815.13 15.1199 16.092
8817.77 7.89572 26.8032
8820.41 17.1827 33.8825
8823.05 29.2177 17.2798
8825.69 21.8856 0.0983103
8828.33 7.96838 -16.5954
8830.97 4.38913 -13.686
8833.61 7.29672 -20.1215
8836.25 14.9012 0.0652704
8838.89 5.14089 0.387939
8841.53 7.4443 3.98333
8844.17 12.4983 6.98822
8846.81 17.3378 7.05822
8849.45 10.1181 -5.62469
8852.08 14.3459 10.503
8854.72 11.4948 3.51405
8857.36 10.1589 4.60655
8859.99 17.069 15.1382
8862.63 9.42467 7.84769
8865.26 17.5885 -2.90531
8867.9 12.7585 -1.56739
8870.53 15.0656 -0.807329
8873.17 14.0231 6.52209
8875.8 12.4837 18.2568
8878.44 13.7875 23.3969
8881.07 9.68317 13.6996
8883.7 -0.0534521 -17.5364
8886.34 9.72595 -28.9774
8888.97 3.13874 -14.7239
8891.6 11.7015 3.42404
8894.23 14.2531 12.5421
8896.87 13.2089 5.24495
8899.5 23.6321 7.33238
8902.13 18.0594 2.60139
8904.76 19.7318 3.42667
8907.39 12.2862 13.0797
8910.02 12.7188 14.9536
8912.65 12.5433 25.1061
8915.28 18.6358 1.19856
8917.9 23.0617 -23.7186
8920.53 21.4485 -12.017
8923.16 7.31104 -11.4224
8925.79 2.60416 8.31695
8928.41 11.3101 9.21883
8931.04 15.0734 5.77047
8933.67 12.6747 6.80955
8936.29 13.3836 6.20546
8938.92 14.707 4.62639
8941.54 13.707 -4.31507
8944.17 14.8114 1.8863
8946.79 10.9641 0.632809
8949.42 11.5456 15.1346
8952.04 16.709 7.61075
8954.67 8.58399 -5.49047
8957.29 -5.55816 -19.4081
8959.91 8.89347 3.03203
8962.53 10.7849 10.5691
8965.16 7.57799 10.5561
8967.78 14.0333 12.0873
8970.4 9.43317 6.40507
8973.02 12.1504 7.01391
8975.64 9.2986 4.62543
8978.26 11.4971 3.08186
8980.88 11.4206 1.43584
8983.5 7.02307 6.05151
8986.12 9.93678 5.43135
8988.74 8.10145 0.45974
8991.36 11.5422 0.0381409
8993.98 12.4761 5.44055
8996.59 20.3656 -7.60198
8999.21 8.98402 -1.19844
9001.83 6.35791 -7.06948
9004.44 10.178 12.0868
9007.06 6.7625 11.2238
9009.68 9.39323 11.0779
9012.29 14.9131 8.07937
9014.91 11.526 7.52213
9017.52 12.286 5.71812
9020.14 16.1252 2.6547
9022.75 15.1148 4.13651
9025.36 10.4657 6.33325
9027.98 11.9282 4.39135
9030.59 14.0297 3.4678
9033.2 19.3347 10.9929
9035.81 11.6579 14.6534
9038.43 14.3774 1.15185
9041.04 14.9945 6.73325
9043.65 9.11985 -3.9921
9046.26 16.5095 12.0705
9048.87 5.8822 7.98576
9051.48 10.291 5.89707
9054.09 12.8952 2.82701
9056.7 11.2847 5.6507
9059.31 10.5348 6.52588
9061.91 14.1165 8.32142
9064.52 13.962 5.70499
9067.13 14.9995 5.69146
