wavelength spectrum_sum 3smoothed_sum spectrum_optimal 3smoothed_optimal
3514.69 -5.26904 -1.37605 -3.69018 2.20255
3517.61 1.14089 1.0228 10.2978 2.82499
3520.54 7.19656 5.62699 1.86732 5.7009
3523.46 8.54352 3.75666 4.93756 0.771502
3526.39 -4.47011 6.2589 -4.49038 3.12938
3529.31 14.7033 4.35895 8.94097 -0.31352
3532.23 2.84366 3.68522 -5.39115 2.55533
3535.16 -6.4913 3.30924 4.11616 -0.557601
3538.08 13.5753 1.7173 -0.397816 3.26799
3541.01 -1.93215 5.5486 6.08564 3.84491
3543.93 5.0026 -0.565015 5.84691 12.3449
3546.85 -4.7655 -1.00705 25.1021 10.6054
3549.78 -3.25826 0.998392 0.867243 16.1394
3552.7 11.0189 -1.29424 22.4489 8.99918
3555.63 -11.6434 1.47142 3.68142 13.4726
3558.55 5.03874 -0.832603 14.2874 12.1229
3561.47 4.10685 3.61298 18.4 15.3308
3564.4 1.69335 2.74587 13.305 25.3415
3567.32 2.4374 4.31465 44.3196 27.469
3570.24 8.81318 9.71626 24.7826 28.5108
3573.17 17.8982 13.4247 16.4301 19.843
3576.09 13.5627 3.57208 18.3163 12.6461
3579.02 -20.7447 1.81496 3.19174 11.2852
3581.94 12.6268 -3.97726 12.3474 10.8482
3584.86 -3.81393 6.16936 17.0055 15.3419
3587.79 9.69517 2.39478 16.6728 15.6105
3590.71 1.3031 7.47995 13.1534 12.8865
3593.63 11.4416 10.1032 8.83335 15.9318
3596.56 17.565 8.90912 25.8088 7.83081
3599.48 -2.2792 7.42793 -11.1497 8.09657
3602.4 6.99799 4.18871 9.63065 8.34312
3605.33 7.84735 5.08684 26.5484 16.6156
3608.25 0.4152 8.84659 13.6678 18.0158
3611.17 18.2772 11.7067 13.8313 2.39616
3614.09 16.4278 14.9056 -20.3106 5.67147
3617.02 10.0116 4.39542 23.4937 3.03452
3619.94 -13.2532 -4.57797 5.92044 9.75301
3622.86 -10.4924 -1.32684 -0.155137 1.76309
3625.79 19.765 7.33461 -0.476037 -5.07771
3628.71 12.7312 18.885 -14.6019 6.96363
3631.63 24.1587 20.2055 35.9689 18.1689
3634.55 23.7267 14.0633 33.1398 29.6756
3637.48 -5.69544 9.90684 19.918 23.6565
3640.4 11.6892 8.19553 17.9118 11.9015
3643.32 18.5928 16.1983 -2.12517 7.60856
3646.24 18.3127 16.5837 7.03906 3.66501
3649.17 12.8456 14.5096 6.08113 -1.81301
3652.09 12.3705 12.7886 -18.5592 -1.35967
3655.01 13.1497 12.1199 8.39908 -3.73397
3657.93 10.8396 10.7291 -1.04176 9.04233
3660.86 8.19788 6.32773 19.7697 3.28674
3663.78 -0.0543133 10.8188 -8.86767 16.2516
3666.7 24.3128 2.09197 37.8527 4.13126
3669.62 -17.9825 10.0782 -16.5912 17.986
3672.55 23.9043 -1.23406 32.6965 2.55603
3675.47 -9.6239 13.9113 -8.43715 15.2535
3678.39 27.4536 3.62899 21.5011 -1.10477
3681.31 -6.94271 12.6656 -16.3782 8.98064
3684.23 17.486 8.11166 21.8191 13.8529
3687.16 13.7916 19.1415 36.1178 29.9764
3690.08 26.1469 21.9253 31.9922 25.9678
3693 25.8373 21.7324 9.79329 17.8085
3695.92 13.213 17.0676 11.64 16.1172
3698.84 12.1524 13.0882 26.9182 13.6045
3701.76 13.8991 5.89289 2.25515 1.95183
3704.69 -8.37287 8.93397 -23.3179 -3.68623
3707.61 21.2757 7.64607 10.004 1.16
3710.53 10.0354 2.73385 16.7938 2.04968
3713.45 -23.1095 -4.52855 -20.6488 -11.0661
3716.37 -0.511549 1.22619 -29.3433 -17.3805
3719.29 27.2996 7.57317 -2.14924 -6.14725
3722.22 -4.06858 4.71247 13.0508 -3.62849
3725.14 -9.09366 -3.04317 -21.787 6.14795
3728.06 4.03275 -1.56301 27.1801 5.25224
3730.98 0.371871 3.59761 10.3637 14.8482
3733.9 6.38822 1.66419 7.00095 17.3936
3736.82 -1.76754 1.10208 34.8162 17.3581
3739.74 -1.31446 -3.82362 10.257 25.9951
3742.66 -8.38887 2.12575 32.9119 24.6233
3745.59 16.0806 3.56841 30.7009 33.5791
3748.51 3.01353 6.37237 37.1246 27.2267
3751.43 0.0230207 3.91217 13.8546 28.1397
3754.35 8.69995 7.19719 33.44 21.2385
3757.27 12.8686 9.99121 16.4208 26.9464
3760.19 8.40507 0.279207 30.9784 13.032
3763.11 -20.4361 2.43412 -8.30322 13.7693
3766.03 19.3333 -0.762953 18.6327 12.0658
3768.95 -1.18615 14.944 25.868 23.0178
3771.87 26.6848 22.4338 24.5527 34.9483
3774.79 41.8027 36.4087 54.4243 44.4008
3777.71 40.7386 32.2634 54.2255 46.7303
3780.63 14.2489 27.2118 31.541 39.7552
3783.55 26.648 16.7012 33.4991 28.2214
3786.47 9.20672 12.0129 19.6241 27.0742
3789.4 0.183845 6.12963 28.0995 23.1647
3792.32 8.99834 8.77638 21.7704 22.4048
3795.24 17.1469 9.95117 17.3446 18.6339
3798.16 3.70824 16.5391 16.7867 28.2114
3801.08 28.7621 8.34085 50.5027 33.7941
3804 -7.44782 11.7289 34.0928 37.4435
3806.92 13.8723 9.17418 27.7349 42.6414
3809.84 21.0981 22.4334 66.0964 44.9311
3812.76 32.3298 16.1931 40.9619 39.6565
3815.68 -4.84865 19.5843 11.9113 38.5106
3818.6 31.2717 6.91629 62.6585 30.1891
3821.52 -5.67413 15.7517 15.9973 43.0481
3824.44 21.6575 8.04412 50.4884 34.8227
3827.36 8.14902 8.09924 37.9823 34.1205
3830.28 -5.50878 12.5047 13.8907 29.2618
3833.19 34.8739 4.18047 35.9126 21.0124
3836.11 -16.8237 12.8964 13.2341 32.1231
3839.03 20.639 2.44402 47.2225 32.3621
3841.95 3.51673 6.65394 36.6298 39.0891
3844.87 -4.19394 9.64265 33.4151 36.4727
3847.79 29.6052 19.2302 39.3731 33.3594
3850.71 32.2794 23.1976 27.29 36.6656
3853.63 7.70836 23.5584 43.3339 40.5637
3856.55 30.6874 9.05412 51.0673 24.6051
3859.47 -11.2334 3.54146 -20.5858 12.4671
3862.39 -8.82964 -13.7242 6.91982 -0.992865
3865.31 -21.1097 -0.775104 10.6874 18.5023
3868.23 27.614 -1.94378 37.8996 20.3128
3871.15 -12.3357 7.91124 12.3513 24.4957
3874.07 8.45534 -2.16236 23.2361 20.9683
3876.98 -2.60673 5.02776 27.3175 27.6328
3879.9 9.23469 9.29776 32.3449 37.9722
3882.82 21.2653 11.8558 54.2541 29.2599
3885.74 5.06728 12.2759 1.1808 17.9758
3888.66 10.4952 15.8099 -1.50741 9.744
3891.58 31.8672 13.8019 29.5586 6.46359
3894.5 -0.956583 18.9998 -8.66043 20.3593
3897.42 26.0888 8.84616 40.1796 7.80492
3900.33 1.40628 13.9137 -8.10443 19.8505
3903.25 14.246 9.44734 27.4764 15.0653
3906.17 12.6897 13.5777 25.824 28.6153
3909.09 13.7973 23.3601 32.5455 22.8977
3912.01 43.5931 30.8185 10.3237 18.0972
3914.93 35.0651 40.5206 11.4223 16.1382
3917.84 42.9035 31.534 26.6685 5.73391
3920.76 16.6334 22.8533 -20.8891 10.894
3923.68 9.02286 6.97034 26.9027 -6.82199
3926.6 -4.74528 6.07775 -26.4796 -6.70601
3929.52 13.9557 12.9959 -20.5411 -11.5077
3932.44 29.7774 14.5202 12.4976 -4.0663
3935.35 -0.172528 14.2556 -4.15534 2.519
3938.27 13.162 -1.36907 -0.785218 -16.4003
3941.19 -17.0967 18.9797 -44.2604 -4.2631
3944.11 60.8739 21.3222 32.2563 -0.949875
3947.02 20.1895 22.9 9.15444 14.2322
3949.94 -12.3634 3.88981 1.28572 -0.0167382
3952.86 3.84334 7.5583 -10.4904 -2.24527
3955.78 31.195 12.6579 2.46884 -3.28583
3958.7 2.93544 18.6335 -1.83595 -0.671142
3961.61 21.77 15.6606 -2.64631 0.365668
3964.53 22.2764 12.6529 5.57927 4.99455
3967.45 -6.08768 20.714 12.0507 13.1551
3970.37 45.9532 24.3971 21.8355 13.2934
3973.28 33.3259 42.325 5.99393 15.3862
3976.2 47.696 41.8117 18.3291 10.1523
3979.12 44.4132 31.23 6.13391 1.56333
3982.03 1.58063 31.8586 -19.7731 10.3954
3984.95 49.5819 38.001 44.8253 16.5618
3987.87 62.8405 48.3941 24.6332 26.46
3990.79 32.7599 40.7098 9.92148 17.5101
3993.7 26.529 27.8034 17.9756 13.9018
3996.62 24.1214 36.2349 13.8083 22.6803
3999.54 58.0542 41.2148 36.2572 23.5457
4002.45 41.4687 37.4495 20.5716 18.7233
4005.37 12.8255 36.6227 -0.658745 10.1256
4008.29 55.574 34.8797 10.4639 20.6806
4011.2 36.2396 45.7976 52.2367 31.1324
4014.12 45.5792 38.487 30.6967 33.0147
4017.04 33.6422 27.5022 16.1106 9.37294
4019.95 3.28529 40.5923 -18.6885 18.273
4022.87 84.8494 44.786 57.3968 34.9237
4025.79 46.2232 61.087 66.0627 55.0715
4028.7 52.1884 45.4057 41.7551 48.8074
4031.62 37.8054 39.6672 38.6044 27.6231
4034.54 29.0079 28.0509 2.50972 19.1969
4037.45 17.3394 35.3649 16.4765 27.0053
4040.37 59.7474 27.1107 62.0297 30.035
4043.28 4.24548 17.9208 11.5989 33.9281
4046.2 -10.2304 15.8233 28.1558 31.2117
4049.12 53.4549 28.4113 53.8804 45.3133
4052.03 42.0094 54.9463 53.9038 59.5796
4054.95 69.3746 57.2017 70.9548 53.7886
4057.86 60.2212 62.6673 36.5072 49.2413
4060.78 58.4062 45.9644 40.2619 31.3996
4063.7 19.2659 47.5931 17.4297 39.989
4066.61 65.1071 44.818 62.2755 36.977
4069.53 50.0812 59.3695 31.2259 62.6373
4072.44 62.9202 58.6243 94.4105 61.5052
4075.36 62.8716 54.3215 58.8793 64.1695
4078.27 37.1728 52.9119 39.2186 52.3083
4081.19 58.6912 45.9898 58.827 39.6135
4084.11 42.1052 52.2158 20.7949 56.2568
4087.02 55.8508 57.7284 89.1486 57.3963
4089.94 75.2293 59.6609 62.2454 75.2778
4092.85 47.9026 63.1605 74.4393 57.1606
4095.77 66.3494 58.5328 34.7972 63.0843
4098.68 61.3463 48.0042 80.0164 53.4803
4101.6 16.317 44.0509 45.6275 59.6219
4104.51 54.4896 41.5387 53.2219 45.4379
4107.43 53.8096 52.9848 37.4645 26.4811
4110.34 50.6552 39.7157 -11.2429 11.3482
4113.26 14.6822 27.5171 7.82299 12.464
4116.17 17.2139 22.1089 40.812 33.0316
4119.09 34.4307 43.6359 50.4599 57.2899
4122 79.2632 59.8957 80.5977 67.4826
4124.92 65.9932 74.7816 71.3904 69.0129
4127.83 79.0885 67.8067 55.0507 54.2667
4130.75 58.3385 66.8765 36.3592 51.3361
4133.66 63.2025 53.2189 62.5984 47.1994
4136.57 38.1157 53.7604 42.6407 62.6179
4139.49 59.9631 54.2668 82.6147 61.6261
4142.4 64.7217 57.2853 59.6228 64.1273
4145.32 47.1712 53.1924 50.1443 51.0876
4148.23 47.6842 37.8452 43.4955 43.197
4151.15 18.6801 51.0028 35.9512 52.9967
4154.06 86.644 60.4441 79.5434 65.3501
4156.97 76.0081 75.2744 80.5556 67.5422
4159.89 63.1713 75.2401 42.5276 61.2545
4162.8 86.541 57.7846 60.6802 54.3235
4165.72 23.6415 50.735 59.7628 58.7451
4168.63 42.0225 46.6494 55.7924 54.6311
4171.54 74.2843 60.3229 48.3382 53.2775
4174.46 64.6618 64.312 55.7019 51.9635
4177.37 53.9899 65.6512 51.8504 77.5536
4180.29 78.3019 66.2558 125.109 72.1869
4183.2 66.4756 56.5657 39.6019 73.009
4186.11 24.9197 39.6827 54.3166 36.7087
4189.03 27.6527 33.8443 16.2077 38.691
4191.94 48.9605 34.8456 45.5488 23.4839
4194.85 27.9236 41.87 8.69532 38.123
4197.77 48.726 39.8519 60.1248 23.0131
4200.68 42.9061 42.7767 0.21917 36.2667
4203.59 36.6979 46.0919 48.456 42.677
4206.51 58.6716 51.5726 79.3558 66.9572
4209.42 59.3482 60.0344 73.0597 71.1393
4212.33 62.0834 63.8156 61.0022 62.9801
4215.25 70.0153 72.506 54.8783 48.2655
4218.16 85.4194 78.5821 28.916 44.771
4221.07 80.3117 74.8807 50.5187 41.4043
4223.98 58.911 57.1847 44.7782 52.5862
4226.9 32.3316 50.864 62.4618 48.797
4229.81 61.3494 47.3377 39.1511 53.9153
4232.72 48.3322 49.942 60.1329 45.415
4235.64 40.1444 56.3907 36.961 58.3343
4238.55 80.6956 60.7753 77.909 56.6314
4241.46 61.4861 64.0434 55.024 59.7644
4244.37 49.9485 55.8272 46.3602 53.8173
4247.29 56.047 55.1048 60.0675 48.1861
4250.2 59.3189 47.8778 38.1305 37.9193
4253.11 28.2676 35.4236 15.5598 19.8058
4256.02 18.6844 53.9724 5.72707 39.5187
4258.94 114.965 73.618 97.2692 58.6972
4261.85 87.2043 88.2744 73.0953 83.9155
4264.76 62.6536 76.7215 81.382 82.087
4267.67 80.3065 70.5036 91.7838 73.6264
4270.58 68.5506 73.2406 47.7135 73.6104
4273.5 70.8646 77.9632 81.3338 72.5708
4276.41 94.4743 76.0081 88.6651 62.4774
4279.32 62.6853 73.8248 17.4333 55.143
4282.23 64.3148 54.4631 59.3307 49.2159
4285.14 36.3892 40.6653 70.8838 66.695
4288.05 21.2921 35.6159 69.8705 67.2296
4290.97 49.1663 34.5661 60.9347 41.0321
4293.88 33.2399 61.4561 -7.70872 50.6347
4296.79 101.962 71.0745 98.678 55.8545
4299.7 78.0216 73.362 76.5942 62.5939
4302.61 40.1021 48.603 12.5095 34.7769
4305.52 27.6854 44.0035 15.227 30.9076
4308.43 64.223 47.3661 64.9864 47.6249
4311.35 50.1898 66.0619 62.6613 58.0499
4314.26 83.7729 74.2664 46.5019 50.6764
4317.17 88.8366 95.5364 42.8661 53.5694
4320.08 114 102.041 71.3401 69.839
4322.99 103.287 98.0352 95.3107 61.4611
4325.9 76.8191 91.5276 17.7326 69.9959
4328.81 94.4769 89.1397 96.9443 62.913
4331.72 96.123 91.1337 74.0621 83.3344
4334.63 82.8011 91.709 78.9968 73.8888
4337.54 96.203 96.683 68.6075 89.292
4340.45 111.045 108.491 120.272 97.6711
4343.37 118.227 104.265 104.134 102.645
4346.28 83.5227 92.9149 83.5301 79.1837
4349.19 76.9954 84.1847 49.887 60.5978
4352.1 92.0358 90.6139 48.3762 61.7654
4355.01 102.811 94.8495 87.033 73.1839
4357.92 89.7022 104.052 84.1425 91.1965
4360.83 119.644 107.974 102.414 99.7278
4363.74 114.575 119.69 112.627 102.125
4366.65 124.851 123.228 91.3354 110.324
4369.56 130.259 121.153 127.009 96.3838
4372.47 108.348 119.444 70.8069 97.1464
4375.38 119.727 106.348 93.6233 76.3803
4378.29 90.9712 91.6471 64.7108 76.4291
4381.2 64.2436 90.5831 70.9532 74.0411
4384.11 116.535 94.5296 86.4594 81.3655
4387.02 102.811 114.501 86.6839 86.0827
4389.93 124.157 127.316 85.1048 93.6366
4392.84 154.981 133.64 109.121 105.528
4395.75 121.781 136.506 122.357 116.519
4398.66 132.755 119.409 118.079 99.9437
4401.57 103.69 100.599 59.3954 80.7996
4404.47 65.3517 90.1119 64.9248 73.7761
4407.38 101.294 94.1884 97.0082 85.2429
4410.29 115.92 116.897 93.7956 98.2521
4413.2 133.479 124.853 103.952 103.27
4416.11 125.161 122.306 112.062 99.1816
4419.02 108.277 111.72 81.5306 87.5553
4421.93 101.723 108.075 69.0735 77.2377
4424.84 114.226 110.556 81.1089 90.8083
4427.75 115.719 121.386 122.242 104.531
4430.66 134.213 122.006 110.241 105.235
4433.56 116.086 124.011 83.2221 105.269
4436.47 121.734 118.16 122.343 90.5874
4439.38 116.662 120.92 66.197 101.689
4442.29 124.364 120.472 116.526 100.772
4445.2 120.39 125.425 119.592 115.725
4448.11 131.521 127.463 111.056 115.133
4451.02 130.478 122.696 114.752 106.082
4453.92 106.09 109.798 92.4384 96.3723
4456.83 92.8267 95.9669 81.9264 85.325
4459.74 88.9845 81.9089 81.6101 76.2683
4462.65 63.9156 106.172 65.2685 93.5795
4465.56 165.616 118.901 133.86 111.514
4468.47 127.172 146.945 135.414 130.315
4471.37 148.048 144.407 121.672 135.244
4474.28 158.002 151.57 148.646 135.348
4477.19 148.661 140.428 135.728 127.39
4480.1 114.622 147.171 97.7976 132.505
4483 178.23 149.776 163.99 137.66
4485.91 156.477 158.307 151.193 146.199
4488.82 140.213 137.063 123.415 142.411
4491.73 114.498 131.929 152.626 137.986
4494.64 141.076 125.534 137.917 127.312
4497.54 121.028 148.446 91.3924 137.067
4500.45 183.234 159.663 181.893 146.19
4503.36 174.727 165.284 165.286 160.9
4506.26 137.891 171.752 135.52 159.742
4509.17 202.64 176.377 178.421 153.747
4512.08 188.6 177.765 147.299 152.497
4514.99 142.057 156.789 131.771 142.364
4517.89 139.711 148.1 148.023 142.346
4520.8 162.532 162.304 147.242 156.522
4523.71 184.671 164.582 174.3 159.87
4526.61 146.544 161.871 158.068 139.899
4529.52 154.4 139.777 87.328 120.537
4532.43 118.387 154.067 116.215 127.157
4535.33 189.415 148.608 177.928 133.345
4538.24 138.023 168.059 105.894 145.52
4541.15 176.74 155.88 152.737 138.789
4544.05 152.876 155.943 157.736 150.233
4546.96 138.214 161.022 140.226 153.267
4549.87 191.976 158.964 161.838 146.562
4552.77 146.703 175.829 137.621 153.139
4555.68 188.808 146.257 159.958 140.324
4558.58 103.259 151.228 123.392 148.564
4561.49 161.617 143.52 162.342 145.101
4564.4 165.684 170.594 149.568 161.59
4567.3 184.481 171.319 172.859 147.504
4570.21 163.792 179.822 120.084 142.979
4573.11 191.194 175.619 135.994 129.889
4576.02 171.872 168.95 133.588 140.249
4578.93 143.785 162.852 151.164 134.169
4581.83 172.898 158.287 117.753 140.843
4584.74 158.179 176.675 153.612 140.835
4587.64 198.95 191.55 151.14 165.024
4590.55 217.521 201.012 190.319 167.922
4593.45 186.566 188.917 162.307 169.62
4596.36 162.664 176.987 156.233 173.826
4599.26 181.729 184.499 202.939 167.672
4602.17 209.104 187.833 143.845 168.476
4605.07 172.666 172.649 158.643 141.854
4607.98 136.177 155.822 123.073 138.511
4610.88 158.622 165.454 133.816 145.722
4613.79 201.562 181.356 180.277 164.413
4616.69 183.885 203.359 179.145 182.834
4619.6 224.63 205.328 189.079 182.253
4622.5 207.468 200.586 178.536 170.244
4625.41 169.659 201.703 143.118 178.597
4628.31 227.981 179.228 214.137 151.997
4631.22 140.045 170.089 98.7349 147.845
4634.12 142.242 160.81 130.663 139.2
4637.03 200.143 172.4 188.204 157.662
4639.93 174.815 167.524 154.121 151.651
4642.83 127.614 168.704 112.628 147.935
4645.74 203.683 168.685 177.055 154.545
4648.64 174.757 181.62 173.951 172.016
4651.55 166.42 171.274 165.041 179.186
4654.45 172.646 178.916 198.564 167.323
4657.35 197.683 176.452 138.364 159.663
4660.26 159.029 183.145 142.061 154.953
4663.16 192.722 178.072 184.435 175.284
4666.07 182.465 186.2 199.357 171.951
4668.97 183.412 176.582 132.061 156.753
4671.87 163.867 172.622 138.842 142.131
4674.78 170.587 168.804 155.489 142.832
4677.68 171.958 179.007 134.166 137.143
4680.58 194.477 201.83 121.776 157.423
4683.49 239.054 210.943 216.327 171.773
4686.39 199.299 199.557 177.215 183.544
4689.29 160.32 172.684 157.089 167.746
4692.2 158.435 162.263 168.932 168.714
4695.1 168.035 155.988 180.122 166.584
4698 141.493 156.867 150.698 166.069
4700.91 161.073 151.464 167.388 148.921
4703.81 151.826 156.768 128.676 139.44
4706.71 157.404 173.873 122.255 156.616
4709.61 212.388 185.579 218.917 177.642
4712.52 186.944 195.328 191.753 181.718
4715.42 186.652 200.462 134.483 179.063
4718.32 227.791 208.117 210.953 177.742
4721.22 209.909 210.153 187.791 201.64
4724.13 192.758 180.269 206.175 167.18
4727.03 138.139 170.633 107.574 160.572
4729.93 181 176.296 167.967 150.914
4732.83 209.75 197.965 177.202 175.53
4735.74 203.145 208.135 181.421 182.847
4738.64 211.511 194.718 189.917 168.036
4741.54 169.497 188.09 132.77 164.565
4744.44 183.262 192.87 171.007 156.317
4747.34 225.85 184.965 165.173 160.831
4750.25 145.783 195.613 146.313 166.871
4753.15 215.206 189.449 189.126 169.853
4756.05 207.358 184.14 174.121 162.172
4758.95 129.857 160.438 123.269 148.125
4761.85 144.099 166.504 146.985 168.356
4764.75 225.555 186.792 234.814 182.771
4767.65 190.722 218.173 166.513 199.486
4770.56 238.243 214.679 197.131 196.807
4773.46 215.071 215.891 226.776 198.439
4776.36 194.36 196.544 171.411 187.907
4779.26 180.201 180.076 165.534 168.232
4782.16 165.666 159.226 167.752 155.97
4785.06 131.809 173.026 134.622 162.658
4787.96 221.604 180.263 185.6 165.904
4790.86 187.375 200.809 177.49 179.733
4793.76 193.447 210.192 176.11 197.806
4796.66 249.754 191.619 239.818 181.952
4799.57 131.655 196.107 129.928 182.71
4802.47 206.912 169.507 178.385 155.629
4805.37 169.954 193.885 158.575 189.809
4808.27 204.79 189.89 232.468 184.437
4811.17 194.926 186.098 162.267 185.35
4814.07 158.576 180.931 161.314 166.41
4816.97 189.29 180.629 175.65 168.552
4819.87 194.02 186.345 168.694 169.25
4822.77 175.724 184.027 163.406 157.683
4825.67 182.338 191.18 140.948 163.354
4828.57 215.479 207.578 185.706 173.332
4831.47 224.918 194.57 193.341 166.014
4834.37 143.314 198.162 118.995 162.848
4837.27 226.254 172.083 176.207 138.635
4840.17 146.682 184.2 120.702 148.962
4843.07 179.664 167.407 149.978 153.426
4845.96 175.875 178.526 189.598 175.003
4848.86 180.038 180.02 185.432 172.288
4851.76 184.149 191.562 141.835 184.225
4854.66 210.499 200.429 225.408 196.067
4857.56 206.64 195.538 220.956 203.996
4860.46 169.476 175.924 165.625 176.015
4863.36 151.655 170.323 141.463 156.33
4866.26 189.837 174.22 161.903 157.176
4869.16 181.169 185.23 168.161 173.31
4872.06 184.685 174.378 189.866 165.004
4874.96 157.279 167.338 136.984 158.677
4877.85 160.051 168.213 149.18 154.439
4880.75 187.308 178.562 177.153 171.177
4883.65 188.328 200.049 187.197 195.395
4886.55 224.512 190.242 221.836 185.062
4889.45 157.885 173.923 146.154 166.748
4892.35 139.373 165.53 132.253 165.323
4895.24 199.33 198.774 217.561 198.931
4898.14 257.618 214.808 246.979 209.791
4901.04 187.476 204.308 164.833 188.454
4903.94 167.83 203.279 153.551 190.522
4906.84 254.532 203.829 253.182 205.049
4909.73 189.126 211.537 208.413 217.018
4912.63 190.952 186.225 189.46 180.894
4915.53 178.597 180.698 144.811 169.845
4918.43 172.544 182.861 175.265 172.793
4921.33 197.441 186.869 198.305 185.929
4924.22 190.621 192.598 184.217 191.785
4927.12 189.731 192.349 192.832 187.942
4930.02 196.695 206.416 186.778 201.656
4932.91 232.821 206.097 225.357 196.759
4935.81 188.774 224.079 178.142 204.845
4938.71 250.643 215.592 211.036 191.865
4941.61 207.359 202.924 186.417 180.971
4944.5 150.77 199.393 145.458 189.958
4947.4 240.051 197.237 237.998 194.091
4950.3 200.891 217.305 198.818 213.021
4953.19 210.974 216.876 202.246 206.706
4956.09 238.762 220.592 219.055 208.144
4958.99 212.04 218.867 203.132 221.715
4961.88 205.8 198.006 242.96 202.092
4964.78 176.177 206.541 160.185 201.912
4967.68 237.646 217.368 202.592 199.149
4970.57 238.28 232.107 234.669 213.867
4973.47 220.395 219.062 204.34 215.821
4976.36 198.51 201.461 208.453 209.558
4979.26 185.479 190.723 215.88 195.175
4982.16 188.18 191.561 161.191 185.785
4985.05 201.025 198.012 180.285 191.783
4987.95 204.831 209.524 233.875 203.661
4990.84 222.715 194.996 196.822 195.461
4993.74 157.441 191.538 155.687 178.401
4996.64 194.458 178.36 182.693 170.352
4999.53 183.182 174.329 172.677 164.603
5002.43 145.346 171.442 138.44 170.493
5005.32 185.799 176.939 200.36 171.46
5008.22 199.673 200.616 175.58 195.321
5011.11 216.376 205.203 210.023 189.935
5014.01 199.561 206.39 184.203 200.163
5016.9 203.233 208.093 206.264 199.254
5019.8 221.486 231.76 207.295 213.054
5022.69 270.561 244.984 225.602 211.685
5025.59 242.906 257.414 202.158 208.951
5028.48 258.775 232.994 199.094 190.065
5031.38 197.301 211.66 168.942 185.14
5034.27 178.905 186.28 187.384 164.582
5037.17 182.635 196.448 137.421 186.776
5040.06 227.805 208.191 235.523 193.28
5042.95 214.134 225.544 206.895 224.651
5045.85 234.692 211.859 231.535 197.508
5048.74 186.751 197.65 154.094 187.809
5051.64 171.506 177.425 177.797 160.055
5054.53 174.019 211.074 148.273 204.321
5057.42 287.698 227.124 286.894 210.012
5060.32 219.655 236.773 194.868 218.201
5063.21 202.966 225.581 172.842 212.257
5066.11 254.123 205.022 269.062 209.388
5069 157.978 195.156 186.261 214.365
5071.89 173.366 170.823 187.772 177.373
5074.79 181.125 173.368 158.084 174.202
5077.68 165.615 171.573 176.75 165.764
5080.57 167.98 170.413 162.457 156.397
5083.47 177.643 179.764 129.985 155.255
5086.36 193.669 184.39 173.323 151.02
5089.25 181.856 191.955 149.753 174.189
5092.15 200.34 193.384 199.491 175.5
5095.04 197.954 213.676 177.255 190.347
5097.93 242.734 223.712 194.294 184.571
5100.82 230.447 232.521 182.165 180.553
5103.72 224.381 208.315 165.199 170.319
5106.61 170.117 199.494 163.593 175.814
5109.5 203.984 186.268 198.65 177.496
5112.39 184.702 183.66 170.244 175.115
5115.29 162.294 164.509 156.452 153.104
5118.18 146.529 175.102 132.617 152.739
5121.07 216.483 191.013 169.148 160.232
5123.96 210.028 198.797 178.932 173.021
5126.86 169.881 188.025 170.983 180.676
5129.75 184.167 177.318 192.112 169.203
5132.64 177.905 195.246 144.515 179.346
5135.53 223.667 199.675 201.412 165.264
5138.42 197.455 194.726 149.864 157.847
5141.31 163.056 191.88 122.265 140.454
5144.21 215.131 180.994 149.233 146.533
5147.1 164.795 192.377 168.102 155.484
5149.99 197.206 186.454 149.116 161.9
5152.88 197.361 212.736 168.481 163.713
5155.77 243.64 197.947 173.542 153.947
5158.66 152.841 198.561 119.818 156.407
5161.55 199.202 156.154 175.86 129.501
5164.44 116.419 153.568 92.8244 132
5167.34 145.083 113.364 127.317 96.7719
5170.23 78.5889 103.603 70.1745 87.4483
5173.12 87.1379 86.9827 64.8536 85.2988
5176.01 95.2214 113.104 120.868 118.066
5178.9 156.952 138.772 168.477 140.914
5181.79 164.143 153.141 133.397 138.738
5184.68 138.327 166.357 114.341 138.178
5187.57 196.601 171.56 166.795 157.171
5190.46 179.751 201.059 190.377 194.001
5193.35 226.826 204.822 224.832 206.843
5196.24 207.89 216.007 205.319 205.823
5199.13 213.304 198.737 187.318 187.748
5202.02 175.016 175.303 170.608 167.612
5204.91 137.588 145.037 144.912 130.337
5207.8 122.507 147.414 75.4911 133.509
5210.69 182.148 183.421 180.123 170.239
5213.58 245.607 210.44 255.102 220.364
5216.47 203.563 240.024 225.866 249.838
5219.36 270.901 222.452 268.547 229.714
5222.25 192.893 229.979 194.73 223.533
5225.14 226.144 214.859 207.322 204.189
5228.02 225.54 231.037 210.514 219.523
5230.91 241.427 232.724 240.732 217.705
5233.8 231.206 221.256 201.871 206.451
5236.69 191.135 231.292 176.751 209.574
5239.58 271.534 236.464 250.1 223.84
5242.47 246.723 261.128 244.671 240.28
5245.36 265.127 251.475 226.071 233.577
5248.25 242.574 243.259 229.989 222.361
5251.13 222.077 221.725 211.022 208.315
5254.02 200.523 224.648 183.934 198.198
5256.91 251.343 234.035 199.636 193.399
5259.8 250.237 238.679 196.627 203.055
5262.69 214.457 208.833 212.901 188.042
5265.58 161.805 212.115 154.599 205.343
5268.46 260.084 191.941 248.529 198.642
5271.35 153.934 224.695 192.797 241.606
5274.24 260.065 214.364 283.494 231.176
5277.13 229.094 239.146 217.238 253.277
5280.01 228.278 234.652 259.099 239.855
5282.9 246.586 254.264 243.228 256.724
5285.79 287.929 243.582 267.845 240.096
5288.68 196.23 237.389 209.216 222.45
5291.56 228.008 229.312 190.289 228.912
5294.45 263.7 238.131 287.233 231.985
5297.34 222.686 256.422 218.433 259.774
5300.22 282.881 247.189 273.657 243.799
5303.11 236.001 265.08 239.306 264.157
5306 276.358 251.603 279.506 270.359
5308.89 242.451 265.973 292.264 295.726
5311.77 279.111 264.994 315.408 298.657
5314.66 273.419 266.152 288.3 302.593
5317.54 245.925 261.844 304.07 287.226
5320.43 266.188 234.227 269.307 268.08
5323.32 190.57 228.33 230.862 253.08
5326.2 228.232 231.883 259.071 258.505
5329.09 276.848 257.841 285.581 274.182
5331.98 268.444 245.89 277.895 259.761
5334.86 192.377 242.436 215.807 260.939
5337.75 266.486 239.307 289.116 253.79
5340.63 259.059 258.36 256.447 267.284
5343.52 249.535 245.529 256.288 242.778
5346.4 227.992 255.789 215.6 252.96
5349.29 289.839 260.355 286.992 250.786
5352.17 263.234 273.036 249.765 280.58
5355.06 266.036 274.283 304.984 286.354
5357.95 293.58 289.916 304.315 299.766
5360.83 310.133 300.546 289.998 301.963
5363.72 297.924 302.824 311.575 296.259
5366.6 300.416 297.259 287.204 310.263
5369.49 293.436 281.444 332.009 291.034
5372.37 250.479 263.623 253.89 278.702
5375.25 246.954 255.27 250.209 266.162
5378.14 268.375 253.171 294.388 266.428
5381.02 244.184 249.608 254.686 284.056
5383.91 236.266 244.676 303.093 266.601
5386.79 253.58 242.274 242.024 271.068
5389.68 236.976 260.249 268.086 278.31
5392.56 290.192 254.659 324.819 291.333
5395.44 236.808 281.941 281.093 320.771
5398.33 318.823 254.17 356.402 289.263
5401.21 206.878 263.167 230.295 280.184
5404.1 263.799 245.481 253.854 266.455
5406.98 265.765 260.512 315.217 289.084
5409.86 251.972 245.941 298.18 290.333
5412.75 220.087 258.666 257.602 297.553
5415.63 303.938 298.415 336.878 337.911
5418.51 371.22 328.496 419.252 373.631
5421.4 310.331 325.46 364.764 366.81
5424.28 294.831 285.685 316.414 315.958
5427.16 251.894 272.826 266.697 296.169
5430.05 271.753 272.919 305.396 287.079
5432.93 295.11 277.84 289.144 302.304
5435.81 266.658 282.925 312.372 310.997
5438.69 287.007 276.839 331.476 312.681
5441.58 276.852 281.133 294.193 306.743
5444.46 279.542 271.839 294.559 301.447
5447.34 259.124 275.208 315.589 312.397
5450.22 286.958 283.09 327.044 330.883
5453.1 303.19 313.131 350.017 349.177
5455.99 349.246 301.941 370.469 325.994
5458.87 253.386 301.993 257.494 321.932
5461.75 303.346 290.598 337.834 316.021
5464.63 315.06 286.331 352.734 314.819
5467.51 240.587 278.977 253.891 312.287
5470.4 281.283 280.569 330.237 310.997
5473.28 319.836 280.727 348.863 326.317
5476.16 241.062 292.491 299.85 346.471
5479.04 316.576 297.71 390.699 351.546
5481.92 335.491 325.511 364.09 367.307
5484.8 324.464 323.342 347.132 352.646
5487.68 310.071 307.104 346.715 346.909
5490.56 286.775 298.496 346.879 346.039
5493.44 298.641 294.592 344.523 348.729
5496.33 298.358 308.526 354.785 356.891
5499.21 328.579 304.81 371.364 349.796
5502.09 287.494 304.105 323.238 352.306
5504.97 296.242 275.05 362.316 343.164
5507.85 241.414 254.313 343.937 343.89
5510.73 225.282 243.749 325.417 331.506
5513.61 264.549 254.535 325.162 323.224
5516.49 273.773 255.622 319.093 321.757
5519.37 228.543 253.105 321.014 323.639
5522.25 256.999 236.209 330.81 301.385
5525.13 223.086 253.913 252.33 304.732
5528.01 281.654 271.699 331.056 327.673
5530.89 310.357 297.777 399.632 375.92
5533.77 301.32 296.122 397.072 380.532
5536.65 276.689 283.738 344.893 363.118
5539.52 273.206 269.467 347.39 345.59
5542.4 258.507 293.479 344.488 371.314
5545.28 348.725 308.002 422.065 387.267
5548.16 316.773 325.323 395.247 391.478
5551.04 310.471 310.596 357.122 370.278
5553.92 304.543 301.303 358.466 342.795
5556.8 288.894 281.859 312.796 331.982
5559.68 252.139 281.055 324.683 341.402
5562.56 302.132 276.354 386.729 355.822
5565.43 274.791 276.29 356.053 358.524
5568.31 251.945 276.848 332.789 360.409
5571.19 303.807 268.228 392.385 292.773
5574.07 248.93 255.426 153.144 202.01
5576.95 213.54 235.7 60.5004 108.823
5579.82 244.63 214.668 112.825 110.287
5582.7 185.835 215.982 157.536 161.717
5585.58 217.481 224.145 214.792 217.271
5588.46 269.12 235.925 279.486 258.621
5591.34 221.174 244.663 281.584 308.634
5594.21 243.695 241.601 364.832 332.622
5597.09 259.933 250.555 351.45 343.606
5599.97 248.035 265.177 314.537 348.065
5602.84 287.562 281.898 378.208 353.548
5605.72 310.096 317.77 367.899 382.708
5608.6 355.653 317.071 402.016 358.792
5611.47 285.464 309.412 306.461 350.472
5614.35 287.119 290.533 342.939 334.017
5617.23 299.017 295.203 352.651 345.13
5620.1 299.473 294.727 339.801 346.925
5622.98 285.69 302.191 348.324 335.978
5625.86 321.408 298.079 319.81 333.806
5628.73 287.137 290.975 333.284 328.346
5631.61 264.38 292.282 331.946 360.194
5634.49 325.329 290.696 415.351 372.997
5637.36 282.379 298.349 371.695 386.069
5640.24 287.34 304.307 371.16 374.621
5643.11 343.203 317.779 381.007 374.194
5645.99 322.794 328.995 370.415 383.427
5648.86 320.989 307.935 398.86 365.521
5651.74 280.022 273.713 327.288 325.617
5654.61 220.127 282.658 250.703 324.187
5657.49 347.825 300.686 394.57 355.669
5660.36 334.107 325.062 421.733 374.073
5663.24 293.254 311.328 305.914 368.72
5666.11 306.623 290.613 378.511 348.493
5668.99 271.963 295.586 361.054 371.638
5671.86 308.173 281.648 375.347 359.392
5674.74 264.808 287.664 341.774 347.004
5677.61 290.012 283.735 323.889 334.132
5680.49 296.384 326.228 336.734 373.822
5683.36 392.287 331.495 460.844 403.781
5686.24 305.813 339.691 413.767 431.434
5689.11 320.974 314.09 419.691 395.617
5691.98 315.482 345.334 353.395 423.277
5694.86 399.546 326.642 496.747 379.582
5697.73 264.897 334.031 288.605 402.174
5700.6 337.65 272.873 421.171 332.995
5703.48 216.073 309.675 289.211 364.945
5706.35 375.303 300.218 384.453 342.015
5709.23 309.277 315.057 352.381 344.699
5712.1 260.591 291.947 297.263 329.761
5714.97 305.974 286.96 339.64 331.402
5717.84 294.313 310.822 357.302 355.198
5720.72 332.177 317.076 368.652 371.547
5723.59 324.736 306.653 388.687 359.2
5726.46 263.045 284.336 320.26 337.789
5729.34 265.227 270.337 304.418 319.479
5732.21 282.737 283.552 333.758 319.344
5735.08 302.691 294.768 319.857 335.603
5737.95 298.877 312.506 353.194 344.367
5740.82 335.95 319.235 360.049 375.464
5743.7 322.879 315.081 413.149 384.985
5746.57 286.414 319.55 381.756 413.325
5749.44 349.358 321.38 445.068 415.702
5752.31 328.367 316.168 420.281 393.497
5755.18 270.779 294.245 315.143 370.888
5758.06 283.589 286.525 377.24 345.113
5760.93 305.209 290.19 342.956 362.457
5763.8 281.772 305.448 367.176 373.929
5766.67 329.364 304.485 411.655 383.873
5769.54 302.319 324.879 372.787 390.707
5772.41 342.953 311.887 387.678 386.293
5775.28 290.391 298.082 398.414 372.847
5778.15 260.904 270.168 332.45 346.637
5781.02 259.211 264.46 309.047 325.681
5783.89 273.264 282.203 335.548 332.586
5786.76 314.134 308.585 353.164 349.753
5789.63 338.358 306.099 360.547 336.059
5792.5 265.804 340.298 294.468 378.185
5795.38 416.732 350.464 479.54 407.276
5798.24 368.858 365.926 447.819 428.645
5801.11 312.19 354.677 358.576 416.585
5803.98 382.983 315.412 443.36 368.748
5806.85 251.063 301.077 304.308 358.026
5809.72 269.184 292.074 326.411 343.881
5812.59 355.975 336.471 400.925 395.931
5815.46 384.255 359.155 460.457 420.559
5818.33 337.235 357.537 400.295 429.91
5821.2 351.122 338.666 428.976 396.369
5824.07 327.642 346.733 359.837 411.549
5826.94 361.435 339.864 445.833 398.268
5829.81 330.513 338.502 389.133 395.773
5832.68 323.558 314.014 352.352 368.79
5835.54 287.972 308.264 364.885 375.08
5838.41 313.261 305.759 408.002 396.154
5841.28 316.043 307.631 415.575 389.594
5844.15 293.588 307.728 345.205 370.779
5847.02 313.554 305.822 351.555 337.67
5849.89 310.326 310.114 316.249 347.841
5852.75 306.462 316.986 375.719 360.651
5855.62 334.169 325.145 389.985 403.11
5858.49 334.804 319.301 443.625 382.339
5861.36 288.928 299.799 313.408 380.451
5864.22 275.664 292.033 384.321 363.646
5867.09 311.508 291.162 393.209 354.71
5869.96 286.314 314.633 286.601 340.247
5872.83 346.078 308.738 340.931 328.422
5875.69 293.82 304.183 357.735 365.294
5878.56 272.65 274.687 397.217 364.285
5881.43 257.592 251.845 337.904 316.098
5884.29 225.293 244.75 213.172 270.736
5887.16 251.365 199.735 261.133 193.188
5890.03 122.548 189.702 105.258 199.437
5892.89 195.193 194.017 231.92 215.879
5895.76 264.31 216.658 310.459 273.337
5898.63 190.471 236.62 277.632 313.802
5901.49 255.081 270.39 353.317 355.794
5904.36 365.618 314.135 436.434 385.254
5907.22 321.708 344.381 366.01 417.687
5910.09 345.817 323.005 450.617 405.22
5912.95 301.49 329.17 399.032 424.634
5915.82 340.202 285.161 424.253 354.5
5918.68 213.792 315.894 240.215 383.259
5921.55 393.688 305.065 485.309 379.572
5924.42 307.716 338.833 413.192 418.846
5927.28 315.096 321.508 358.036 394.04
5930.14 341.713 327.426 410.891 376.393
5933.01 325.469 320.171 360.252 371.817
5935.87 293.33 310.26 344.307 361.486
5938.74 311.979 305.423 379.897 375.636
5941.6 310.96 324.842 402.703 410.325
5944.47 351.587 326.368 448.374 409.955
5947.33 316.557 326.987 378.787 398.34
5950.2 312.818 319.779 367.859 379.109
5953.06 329.96 341.015 390.683 393.832
5955.92 380.266 337.667 422.954 395.598
5958.79 302.776 339.455 373.158 394.205
5961.65 335.323 347.507 386.503 409.609
5964.51 404.423 346.329 469.167 409.543
5967.38 299.241 369.4 372.958 436.752
5970.24 404.536 327.671 468.13 393.987
5973.1 279.234 316.532 340.874 383.51
5975.97 265.827 278.77 341.525 363.045
5978.83 291.248 302.443 406.736 385.271
5981.69 350.255 354.613 407.552 406.752
5984.56 422.336 376.506 405.969 420.042
5987.42 356.926 352.448 446.606 405.005
5990.28 278.08 333.315 362.439 391.15
5993.14 364.938 349.86 364.404 392.193
5996 406.563 360.596 449.737 395.931
5998.87 310.286 354.433 373.65 411.656
6001.73 346.451 336.447 411.58 399.895
6004.59 352.604 354.547 414.454 415.366
6007.45 364.585 338.041 420.065 399.521
6010.31 296.934 314.931 364.043 368.566
6013.17 283.274 294.642 321.591 360.144
6016.04 303.719 301.561 394.797 379.873
6018.9 317.69 303.791 423.231 373.78
6021.76 289.964 293.15 303.313 341.75
6024.62 271.797 309.498 298.706 337.564
6027.48 366.732 324.162 410.672 361.561
6030.34 333.959 339.727 375.305 378.715
6033.2 318.49 322.064 350.168 360.743
6036.06 313.742 328.257 356.756 363.164
6038.92 352.54 318.195 382.568 372.174
6041.78 288.302 309.97 377.198 369.324
6044.64 289.066 298.744 348.206 384.483
6047.5 318.863 306.592 428.045 385.608
6050.36 311.846 320.926 380.573 403.993
6053.22 332.07 334.79 403.36 421.507
6056.08 360.454 346.655 480.587 428.38
6058.94 347.44 345.733 401.194 412.412
6061.8 329.305 352.067 355.456 393.363
6064.66 379.454 342.603 423.438 389.408
6067.52 319.05 345.608 389.331 404.966
6070.38 338.318 330.57 402.13 410.795
6073.24 334.341 345.157 440.924 428.589
6076.1 362.811 348.83 442.713 439.643
6078.96 349.338 357.622 435.292 411.434
6081.81 360.718 346.683 356.298 396.231
6084.67 329.992 329.615 397.104 372.506
6087.53 298.134 319.204 364.116 394.927
6090.39 329.486 332.273 423.56 394.698
6093.25 369.2 309.763 396.418 386.862
6096.1 230.602 321.893 340.609 379.771
6098.96 365.876 305.407 402.284 364.926
6101.82 319.744 345.717 351.885 390.936
6104.68 351.533 326.282 418.639 372.249
6107.54 307.569 307.744 346.223 363.328
6110.39 264.129 281.295 325.122 318.596
6113.25 272.186 277.327 284.444 321.811
6116.11 295.665 307.914 355.867 349.89
6118.96 355.892 314.225 409.359 364.82
6121.82 291.119 317.197 329.234 360.75
6124.68 304.581 324.021 343.657 361.478
6127.53 376.364 324.864 411.542 361.256
6130.39 293.647 335.06 328.57 369.778
6133.25 335.169 309.83 369.222 343.771
6136.1 300.674 309.08 333.522 356.433
6138.96 291.396 313.535 366.554 363.711
6141.82 348.535 317.685 391.055 387.541
6144.67 313.125 322.288 405.012 373.724
6147.53 305.203 325.279 325.103 375.655
6150.38 357.509 316.107 396.851 360.29
6153.24 285.61 301.987 358.916 363.522
6156.09 262.842 264.001 334.799 327.913
6158.95 243.55 247.527 290.023 314.895
6161.8 236.189 269.696 319.861 330.455
6164.66 329.347 295.68 381.481 348.826
6167.51 321.505 315.385 345.136 351.698
6170.37 295.304 310.478 328.478 345.699
6173.22 314.624 304.775 363.483 347.383
6176.08 304.396 323.302 350.188 365.122
6178.93 350.887 325.046 381.694 380.001
6181.79 319.854 335.87 408.122 388.775
6184.64 336.868 314.633 376.509 367.825
6187.49 287.176 322.211 318.845 374.93
6190.35 342.59 304.821 429.438 380.181
6193.2 284.696 330.443 392.261 411.115
6196.05 364.044 325.808 411.648 417.558
6198.91 328.684 330.197 448.766 396.98
6201.76 297.863 315.775 330.526 379.186
6204.61 320.779 311.412 358.267 346.908
6207.47 315.595 297.247 351.931 332.325
6210.32 255.366 294.057 286.777 326.02
6213.17 311.21 297.77 339.353 325.49
6216.03 326.735 305.039 350.341 331.645
6218.88 277.172 303.684 305.242 340.419
6221.73 307.145 303.993 365.674 350.956
6224.58 327.662 285.174 381.953 334.101
6227.43 220.716 272.275 254.676 309.383
6230.29 268.448 255.746 291.521 283.873
6233.14 278.074 285.699 305.422 302.68
6235.99 310.576 320.079 311.098 332.468
6238.84 371.587 335.652 380.884 347.479
6241.69 324.791 336.255 350.455 370.032
6244.54 312.386 326.45 378.758 375.311
6247.4 342.173 330.227 396.721 398.655
6250.25 336.122 312.296 420.487 379.628
6253.1 258.593 280.441 321.675 353.729
6255.95 246.609 262.462 319.026 306.944
6258.8 282.185 265.549 280.131 292.077
6261.65 267.852 289.581 277.073 306.64
6264.5 318.707 287.162 362.717 328.243
6267.35 274.926 303.053 344.937 363.949
6270.2 315.524 303.593 384.192 364.192
6273.05 320.327 305.679 363.448 367.235
6275.9 281.184 279.62 354.064 332.894
6278.75 237.348 250.902 281.169 315.637
6281.6 234.174 267.374 311.677 312.261
6284.45 330.6 284.776 343.936 322.219
6287.3 289.553 293.288 311.043 342.616
6290.15 259.712 291.96 372.87 325.289
6293 326.616 274.815 291.954 232.549
6295.85 238.116 303.481 32.8232 124.448
6298.7 345.712 261.862 48.5677 38.4175
6301.54 201.759 278.404 33.8617 65.3399
6304.39 287.741 241.448 113.59 131.4
6307.24 234.844 286.847 246.749 245.925
6310.09 337.958 303.948 377.436 335.63
6312.94 339.042 322.754 382.704 381.615
6315.79 291.261 317.626 384.705 386.892
6318.63 322.574 301.438 393.266 390.922
6321.48 290.48 311.359 394.794 404.862
6324.33 321.023 302.24 426.526 389.29
6327.18 295.216 306.54 346.549 372.383
6330.02 303.381 317.201 344.073 380.361
6332.87 353.007 325.01 450.461 384.77
6335.72 318.642 314.576 359.774 383.162
6338.57 272.078 295.638 339.251 350.787
6341.41 296.192 308.518 353.336 368.053
6344.26 357.283 316.52 411.572 366.303
6347.11 296.085 341.776 334 396.079
6349.95 371.96 326.837 442.666 390.284
6352.8 312.466 355.683 394.187 427.972
6355.64 382.623 357.043 447.063 409.353
6358.49 376.041 339.418 386.81 366.761
6361.34 259.589 320.039 266.41 310.009
6364.18 324.487 278.162 276.806 284.296
6367.03 250.41 305.876 309.671 325.625
6369.87 342.73 270.418 390.397 325.262
6372.72 218.115 305.303 275.718 367.662
6375.56 355.063 307.494 436.872 373.942
6378.41 349.304 333.646 409.236 393.863
6381.25 296.572 327.211 335.481 379.706
6384.1 335.756 305.509 394.402 354.82
6386.94 284.2 324.172 334.579 372.667
6389.79 352.559 317.958 389.02 362.481
6392.63 317.114 324.401 363.845 377.272
6395.48 303.531 302.474 378.952 366.298
6398.32 286.776 297.277 356.098 362.329
6401.16 301.524 314.339 351.937 381.212
6404.01 354.716 310.915 435.603 382.064
6406.85 276.506 295.525 358.653 361.338
6409.69 255.354 285.819 289.758 340.469
6412.54 325.597 297.986 372.995 354.335
6415.38 313.006 316.637 400.253 367.66
6418.22 311.307 318.978 329.731 368.832
6421.07 332.621 309.577 376.514 351.671
6423.91 284.804 314.883 348.77 374.14
6426.75 327.223 299.186 397.136 368.878
6429.59 285.532 302.262 360.729 388.338
6432.44 294.031 319.968 407.149 393.822
6435.28 380.341 329.79 413.587 396.86
6438.12 314.998 352.975 369.844 399.893
6440.96 363.586 347.009 416.249 395.181
6443.81 362.443 350.988 399.45 396.423
6446.65 326.936 342.16 373.569 402.174
6449.49 337.103 330.969 433.503 405.782
6452.33 328.87 313.328 410.276 396.563
6455.17 274.013 303.134 345.911 381.732
6458.01 306.519 288.011 389.009 362.097
6460.85 283.503 298.019 351.369 350.575
6463.69 304.034 305.389 311.347 345.131
6466.53 328.63 330.547 372.677 367.264
6469.38 358.977 330.115 417.769 391.889
6472.22 302.739 335.258 385.22 410.79
6475.06 344.058 306.795 429.38 390.252
6477.9 273.589 284.677 356.155 371.762
6480.74 236.383 266.135 329.753 358.956
6483.58 288.433 283.057 390.959 377.327
6486.42 324.355 296.267 411.27 403.721
6489.26 276.012 282.994 408.935 373.664
6492.09 248.615 255.938 300.788 359.748
6494.93 243.187 256.572 369.52 320.884
6497.77 277.913 262.046 292.343 308.275
6500.61 265.038 296.447 262.961 332.98
6503.45 346.39 303.533 443.635 356.427
6506.29 299.171 301.868 362.686 380.463
6509.13 260.042 287.384 335.07 362.798
6511.97 302.938 293.184 390.64 370.072
6514.8 316.572 311.022 384.506 394.172
6517.64 313.556 291.668 407.369 376.078
6520.48 244.877 308.098 336.358 401.834
6523.32 365.86 305.48 461.775 402.894
6526.16 305.702 335.834 410.548 437.824
6528.99 335.939 314.275 441.15 412.992
6531.83 301.185 324.639 387.279 407.914
6534.67 336.792 321.031 395.313 407.079
6537.51 325.116 326.812 438.646 409.627
6540.34 318.529 332.106 394.921 434.069
6543.18 352.673 338.627 468.638 429.363
6546.02 344.679 336.991 424.53 441.306
6548.85 313.622 319.376 430.749 417.038
6551.69 299.828 313.219 395.835 411.125
6554.52 326.205 301.825 406.791 390.185
6557.36 279.442 301.863 367.929 363.796
6560.2 299.943 311.396 316.667 375.243
6563.03 354.803 326.304 441.134 385.249
6565.87 324.165 322.446 397.948 392.702
6568.7 288.37 316.387 339.024 378.14
6571.54 336.627 301.296 397.449 348.351
6574.37 278.89 289.317 308.579 342.848
6577.21 252.434 290.756 322.516 346.93
6580.04 340.943 290.441 409.695 371.936
6582.88 277.947 299.851 383.597 376.14
6585.71 280.663 278.281 335.128 372.319
6588.55 276.233 269.56 398.231 363.751
6591.38 251.784 284.533 357.893 393.738
6594.22 325.581 288.439 425.09 383.617
6597.05 287.951 297.924 367.868 375.397
6599.88 280.241 300.037 333.234 369.485
6602.72 331.919 294.313 407.354 363.233
6605.55 270.781 296.077 349.112 376.297
6608.38 285.532 285.664 372.426 375.494
6611.22 300.677 292.643 404.944 382.666
6614.05 291.719 308.594 370.629 389.973
6616.88 333.386 302.573 394.348 385.24
6619.72 282.615 304.246 390.743 379.814
6622.55 296.737 294.703 354.35 377.849
6625.38 304.758 316.905 388.453 406.79
6628.21 349.219 322.172 477.568 405.594
6631.05 312.54 313.975 350.761 387.227
6633.88 280.167 300.281 333.352 339.615
6636.71 308.134 299.641 334.731 327.867
6639.54 310.622 312.176 315.517 343.288
6642.37 317.773 296.146 379.615 339.785
6645.2 260.042 277.117 324.224 336.686
6648.03 253.536 276.474 306.219 331.239
6650.87 315.843 295.989 363.274 359.39
6653.7 318.587 305.095 408.678 371.064
6656.53 280.855 306.719 341.24 376.516
6659.36 320.716 304.845 379.632 360.849
6662.19 312.963 345.011 361.675 400.327
6665.02 401.354 331.948 459.673 383.573
6667.85 281.528 336.449 329.37 380.339
6670.68 326.465 300.242 351.974 338.767
6673.51 292.732 307.196 334.957 353.803
6676.34 302.393 302.834 374.477 361.295
6679.17 313.377 291.746 374.45 351.149
6682 259.468 294.544 304.518 348.16
6684.83 310.786 273.211 365.511 335.208
6687.66 249.38 292.815 335.595 361.441
6690.48 318.279 297.694 383.216 360.564
6693.31 325.424 308.804 362.88 350.267
6696.14 282.708 306.616 304.704 345.363
6698.97 311.715 303.925 368.505 333.252
6701.8 317.353 291.156 326.548 328.267
6704.63 244.399 288.152 289.747 315.329
6707.45 302.704 279.313 329.692 317.669
6710.28 290.836 287.97 333.569 339.176
6713.11 270.369 292.695 354.266 338.991
6715.94 316.881 295.737 329.139 350.78
6718.77 299.961 316.157 368.934 362.284
6721.59 331.629 312.37 388.778 368.113
6724.42 305.52 334.114 346.626 365.11
6727.25 365.192 331.118 359.926 354.593
6730.07 322.644 332.102 357.227 356.68
6732.9 308.47 309.672 352.888 353.66
6735.73 297.902 315.522 350.865 361.522
6738.55 340.195 292.029 380.814 334.937
6741.38 237.99 294.549 273.132 319.907
6744.2 305.461 285.832 305.775 314.876
6747.03 314.043 299.751 365.719 322.175
6749.86 279.75 299.01 295.03 342.734
6752.68 303.237 304.288 367.452 346.438
6755.51 329.878 320.31 376.833 366.89
6758.33 327.816 306.106 356.386 339.876
6761.16 260.624 290.938 286.411 323.792
6763.98 284.374 277.946 328.581 319.69
6766.81 288.84 293.38 344.08 338.059
6769.63 306.925 283.489 341.515 324.097
6772.45 254.701 302.695 286.696 336.653
6775.28 346.46 297.173 381.747 327.41
6778.1 290.359 324.27 313.786 355.773
6780.93 335.992 336.565 371.786 370.235
6783.75 383.345 340.422 425.131 374.178
6786.57 301.929 330.382 325.616 362.11
6789.4 305.872 283.137 335.583 309.16
6792.22 241.609 282.781 266.28 303.355
6795.04 300.862 295.443 308.201 318.825
6797.87 343.858 320.822 381.995 339.451
6800.69 317.747 319.112 328.157 352.344
6803.51 295.731 309.097 346.878 334.487
6806.33 313.813 306.116 328.426 338.452
6809.16 308.804 309.636 340.051 339.581
6811.98 306.292 294.631 350.266 329.335
6814.8 268.797 283.331 297.689 315.887
6817.62 274.903 282.269 299.707 316.196
6820.44 303.107 308.054 351.193 355.133
6823.26 346.151 313.001 414.5 359.508
6826.09 289.745 303.012 312.831 330.633
6828.91 273.14 289.236 264.567 303.533
6831.73 304.823 304.083 333.201 289.997
6834.55 334.287 313.673 272.221 310.103
6837.37 301.909 301.634 324.887 315.022
6840.19 268.706 296.461 347.957 347.368
6843.01 318.769 293.915 369.261 340.922
6845.83 294.27 303.408 305.549 322.85
6848.65 297.187 272.012 293.739 285.217
6851.47 224.578 196.583 256.364 290.832
6854.29 67.984 183.235 322.392 294.608
6857.11 257.143 203.527 305.066 304.466
6859.93 285.453 274.541 285.94 282.638
6862.75 281.028 253.088 256.907 243.443
6865.57 192.782 231.253 187.481 226.089
6868.38 219.947 199.104 233.879 209.888
6871.2 184.584 207.092 208.302 217.019
6874.02 216.744 210.115 208.876 220.887
6876.84 229.017 241.642 245.483 256.491
6879.66 279.166 265.48 315.114 296.089
6882.48 288.258 258.961 327.669 296.63
6885.29 209.46 263.476 247.107 291.484
6888.11 292.709 266.536 299.675 282.151
6890.93 297.44 284.861 299.67 298.061
6893.75 264.434 267.69 294.838 276.303
6896.56 241.196 252.404 234.402 272.834
6899.38 251.581 238.678 289.262 255.116
6902.2 223.258 269.517 241.683 298.264
6905.01 333.712 282.951 363.846 320.09
6907.83 291.882 300.874 354.74 349.227
6910.65 277.028 280.443 329.095 316.212
6913.46 272.42 259.429 264.802 277.478
6916.28 228.838 254.295 238.536 239.822
6919.09 261.626 250.437 216.127 233.562
6921.91 260.847 267.048 246.024 244.794
6924.72 278.672 272.977 272.23 274.808
6927.54 279.412 273.462 306.171 291.887
6930.35 262.303 274.963 297.26 294.583
6933.17 283.173 273.852 280.316 288.425
6935.98 276.08 295.612 287.699 293.761
6938.8 327.585 284.607 313.267 283.703
6941.61 250.157 300.521 250.142 297.637
6944.43 323.821 283.067 329.5 288.374
6947.24 275.224 307.951 285.479 311.169
6950.06 324.809 283.636 318.527 269.981
6952.87 250.876 285.555 205.938 261.985
6955.68 280.98 283.106 261.49 263.281
6958.5 317.462 289.916 322.416 281.628
6961.31 271.304 312.907 260.978 316.142
6964.12 349.954 306.611 365.031 301.551
6966.94 298.574 306.937 278.645 309.401
6969.75 272.284 292.686 284.527 301.086
6972.56 307.199 300.414 340.085 324.137
6975.37 321.76 306.475 347.799 324.724
6978.18 290.467 293.146 286.288 304.523
6981 267.21 291.008 279.482 301.573
6983.81 315.347 299.406 338.949 308.915
6986.62 315.661 313.349 308.313 332.943
6989.43 309.04 310.039 351.566 320.879
6992.24 305.416 293.777 302.758 299.834
6995.05 266.874 279.033 245.179 273.039
6997.86 264.808 288.081 271.18 270.816
7000.68 332.56 262.798 296.089 250.382
7003.49 191.024 287.339 183.878 272.082
7006.3 338.433 269.528 336.277 267.233
7009.11 279.127 291.637 281.545 298.595
7011.92 257.352 278.848 277.962 289.681
7014.73 300.065 291.562 309.536 299.828
7017.54 317.269 301.655 311.986 309.517
7020.35 287.63 312.036 307.028 316.331
7023.16 331.208 296.718 329.979 300.485
7025.96 271.317 296.657 264.448 294.512
7028.77 287.446 300.294 289.11 296.699
7031.58 342.119 308.088 336.539 298.719
7034.39 294.699 325.817 270.506 320.133
7037.2 340.632 328.065 353.352 322.71
7040.01 348.864 336.496 344.272 348.667
7042.82 319.992 310.357 348.378 310.099
7045.62 262.214 290.419 237.646 292.72
7048.43 289.051 293.596 292.136 283.733
7051.24 329.521 293.006 321.417 295.464
7054.05 260.445 312.594 272.839 313.28
7056.85 347.815 305.88 345.584 305.042
7059.66 309.382 317.263 296.703 308.94
7062.47 294.593 313.198 284.534 305.175
7065.27 335.618 326.346 334.288 322.389
7068.08 348.828 299.041 348.346 302.997
7070.89 212.677 287.222 226.356 287.555
7073.69 300.16 282.277 287.963 273.337
7076.5 333.993 307.616 305.692 295.928
7079.3 288.694 279.035 294.128 266.992
7082.11 214.418 250.897 201.155 255.631
7084.92 249.579 241.007 271.611 237.745
7087.72 259.023 257.605 240.47 253.476
7090.53 264.214 274.961 248.349 264.309
7093.33 301.647 283.823 304.109 276.47
7096.14 285.607 281.564 276.952 272.51
7098.94 257.438 275.776 236.469 263.552
7101.74 284.284 283.532 277.233 279.466
7104.55 308.875 308.063 324.696 312.777
7107.35 331.03 309.909 336.403 310.213
7110.16 289.821 300.565 269.542 301.015
7112.96 280.845 286.587 297.099 277.089
7115.76 289.095 289.656 264.625 288.52
7118.57 299.029 288.933 303.834 278.311
7121.37 278.674 287.48 266.475 301.359
7124.17 284.736 275.568 333.768 289.862
7126.98 263.292 282.696 269.342 299.802
7129.78 300.059 267.658 296.295 265.195
7132.58 239.622 250.285 229.948 249.411
7135.38 211.173 241.615 221.991 242.374
7138.18 274.05 245.136 275.184 260.855
7140.99 250.184 263.78 285.391 274.277
7143.79 267.106 261.986 262.258 278.44
7146.59 268.668 285.266 287.672 282.75
7149.39 320.026 284.445 298.32 283.255
7152.19 264.642 283.308 263.772 274.127
7154.99 265.255 251.478 260.288 249.742
7157.79 224.535 239.266 225.166 221.674
7160.59 228.007 250.877 179.569 238.234
7163.39 300.089 276.993 309.968 275.226
7166.19 302.882 298.901 336.141 314.859
7168.99 293.731 287.649 298.467 305.752
7171.79 266.334 280.211 282.647 282.605
7174.59 280.568 280.837 266.701 281.507
7177.39 295.61 265.982 295.172 258.252
7180.19 221.768 243.711 212.883 240.671
7182.99 213.755 205.918 213.958 214.955
7185.79 182.229 210.134 218.024 222.862
7188.59 234.417 205.513 236.605 221.577
7191.39 199.894 236.826 210.103 240.731
7194.18 276.166 243.394 275.484 240.267
7196.98 254.123 278.792 235.214 270.132
7199.78 306.087 262.413 299.696 249.755
7202.58 227.03 255.852 214.355 244.505
7205.38 234.439 240.131 219.462 234.148
7208.17 258.925 257.597 268.626 251.323
7210.97 279.428 263.531 265.88 260.033
7213.77 252.239 269.018 245.593 257.065
7216.56 275.386 261.022 259.722 244.34
7219.36 255.44 260.834 227.705 238.028
7222.16 251.676 254.505 226.658 237.806
7224.95 256.397 246.841 259.056 246.796
7227.75 232.449 259.288 254.675 272.577
7230.54 289.019 258.691 304.002 275.679
7233.34 254.605 236.192 268.361 266.067
7236.14 164.952 245.711 225.839 219.685
7238.93 317.576 248.891 164.854 217.056
7241.73 264.144 288.296 260.476 216.309
7244.52 283.168 274.401 223.598 260.439
7247.31 275.891 263.19 297.242 237.119
7250.11 230.511 256.118 190.517 251.322
7252.9 261.952 241.594 266.209 231.97
7255.7 232.318 245.65 239.184 249.784
7258.49 242.68 244.356 243.959 244.87
7261.29 258.068 243.642 251.467 242.33
7264.08 230.177 249.73 231.565 244.783
7266.87 260.946 246.078 251.316 239.514
7269.67 247.111 247.272 235.662 226.83
7272.46 233.758 268.769 193.512 254.959
7275.25 325.44 290.207 335.702 285.503
7278.04 311.425 292.921 327.295 303.814
7280.84 241.898 254.187 248.444 258.571
7283.63 209.239 243.346 199.975 247.271
7286.42 278.9 241.255 293.395 232.644
7289.21 235.627 255.108 204.562 263.909
7292 250.798 247.757 293.77 241.671
7294.79 256.845 257.164 226.682 262.546
7297.59 263.849 247.886 267.184 224.869
7300.38 222.963 270.451 180.739 260.208
7303.17 324.542 251.415 332.7 243.503
7305.96 206.739 264.348 217.068 284.913
7308.75 261.762 241.733 304.97 265.6
7311.54 256.697 274.336 274.762 304.469
7314.33 304.549 291.339 333.675 283.051
7317.12 312.773 297.848 240.716 294.425
7319.91 276.224 269.839 308.884 257.813
7322.7 220.519 272.485 223.838 279.71
7325.49 320.713 269.34 306.409 256.35
7328.28 266.788 270.848 238.803 264.066
7331.06 225.043 271.391 246.985 243.328
7333.85 322.343 273.534 244.196 249.62
7336.64 273.216 302.524 257.679 233.05
7339.43 312.014 283 197.274 245.91
7342.22 263.77 268.646 282.776 241.492
7345.01 230.155 254.904 244.425 257.264
7347.79 270.788 243.845 244.591 247.184
7350.58 230.591 248.263 252.537 248.213
7353.37 243.408 258.661 247.511 266.635
7356.15 301.984 259.425 299.857 260.455
7358.94 232.884 275.994 233.996 270.214
7361.73 293.114 255.705 276.79 236.745
7364.51 241.117 244.574 199.448 222.209
7367.3 199.492 230.137 190.39 210.544
7370.09 249.803 220.036 241.794 233.3
7372.87 210.814 220.5 267.715 250.137
7375.66 200.884 232.575 240.902 264.379
7378.44 286.028 245.168 284.52 253.868
7381.23 248.592 261.521 236.183 259.152
7384.01 249.943 249.731 256.753 243.306
7386.8 250.658 235.729 236.98 222.623
7389.58 206.586 225.13 174.137 217.968
7392.37 218.144 206.877 242.786 208.675
7395.15 195.902 222.262 209.103 217.999
7397.94 252.741 235.588 202.107 223.745
7400.72 258.122 239.101 260.025 234.505
7403.5 206.441 207.94 241.383 242.243
7406.29 159.255 186.543 225.321 228.905
7409.07 193.932 198.858 220.012 238.038
7411.85 243.385 203.363 268.782 222.351
7414.64 172.77 225.234 178.26 245.193
7417.42 259.547 223.059 288.536 238.913
7420.2 236.859 243.949 249.942 259.386
7422.98 235.442 243.48 239.679 247.513
7425.77 258.139 248.197 252.918 242.344
7428.55 251.011 251.387 234.436 239.696
7431.33 245.01 255.632 231.736 255.04
7434.11 270.876 248.26 298.948 255.341
7436.89 228.894 240.974 235.34 258.43
7439.67 223.151 240.064 241.002 255.765
7442.45 268.147 236.461 290.953 246.94
7445.23 218.086 246.343 208.865 244.376
7448.01 252.795 247.741 233.308 232.459
7450.79 272.341 262.963 255.204 253.147
7453.57 263.755 265.055 270.927 264.477
7456.35 259.071 266.394 267.298 258.004
7459.13 276.356 265.962 235.787 250.862
7461.91 262.459 266.577 249.5 250.003
7464.69 260.917 242.356 264.722 257.218
7467.47 203.693 242.369 257.433 249.748
7470.25 262.497 249.865 227.09 266.885
7473.03 283.404 250.81 316.133 250.417
7475.81 206.531 259.024 208.029 242.5
7478.59 287.139 256.6 203.337 224.947
7481.36 276.132 287.807 263.475 241.646
7484.14 300.151 260.856 258.125 248.138
7486.92 206.283 264.469 222.815 254.285
7489.7 286.973 248.537 281.915 243.483
7492.47 252.355 258.661 225.718 259.156
7495.25 236.654 252.654 269.835 242.178
7498.03 268.952 269.982 230.983 269.281
7500.8 304.341 276.059 307.027 266.792
7503.58 254.884 254.584 262.365 260.294
7506.35 204.527 240.813 211.49 236.996
7509.13 263.029 231.345 237.134 222.572
7511.91 226.477 249.301 219.093 231.839
7514.68 258.395 246.86 239.292 230.705
7517.46 255.708 262.921 233.729 253.848
7520.23 274.66 271.377 288.524 263.84
7523.01 283.764 249.209 269.267 252.574
7525.78 189.204 220.432 199.929 237.362
7528.56 188.327 196.498 242.889 217.204
7531.33 211.964 198.36 208.794 217.634
7534.1 194.79 209.739 201.218 206.232
7536.88 222.462 214.022 208.685 210.744
7539.65 224.815 241.956 222.329 221.968
7542.42 278.592 251.34 234.891 230.705
7545.2 250.614 255.644 234.894 226.295
7547.97 237.726 248.87 209.099 233.115
7550.74 258.27 238.206 255.351 228.909
7553.51 218.623 225.506 222.277 233.923
7556.29 199.625 206.323 224.142 219.207
7559.06 200.721 205.884 211.201 241.954
7561.83 217.307 234.061 290.52 246.761
7564.6 284.156 252.993 238.563 257.02
7567.37 257.516 288.25 241.977 236.577
7570.14 323.078 284.459 229.191 228.206
7572.92 272.784 269.97 213.45 218.655
7575.69 214.049 238.357 213.323 222.162
7578.46 228.24 207.649 239.714 204.243
7581.23 180.658 232.96 159.691 200.042
7584 289.983 238.518 200.721 197.849
7586.77 244.914 241.018 233.134 208.577
7589.54 188.155 195.811 191.877 173.678
7592.31 154.364 139.619 96.0219 119.784
7595.08 76.3383 101.216 71.4541 85.1057
7597.84 72.9462 72.2072 87.8411 80.5582
7600.61 67.3371 75.9131 82.3794 91.5665
7603.38 87.456 61.2465 104.479 66.5022
7606.15 28.9465 73.5648 12.6484 74.1338
7608.92 104.292 91.0537 105.274 83.6709
7611.69 139.923 136.981 133.09 133.029
7614.45 166.728 139.781 160.722 138.917
7617.22 112.692 136.457 122.94 140.196
7619.99 129.952 127.773 136.926 112.141
7622.76 140.675 118.31 76.5578 112.41
7625.52 84.305 119.868 123.746 121.329
7628.29 134.624 127.769 163.684 144.998
7631.06 164.379 151.509 147.563 144.982
7633.82 155.525 151.385 123.697 129.89
7636.59 134.251 141.098 118.411 127.708
7639.35 133.519 138.913 141.015 133.396
7642.12 148.97 150.54 140.762 148.265
7644.88 169.13 157.851 163.017 148.433
7647.65 155.454 161.832 141.521 149.584
7650.41 160.911 161.522 144.215 147.878
7653.18 168.201 163.957 157.898 153.412
7655.94 162.758 173.292 158.124 168.561
7658.71 188.918 175.527 189.661 157.122
7661.47 174.905 184.934 123.582 151.228
7664.24 190.98 185.991 140.441 152.89
7667 192.088 195.3 194.649 166.846
7669.76 202.831 202.909 165.45 179.336
7672.53 213.807 219.1 177.91 189.236
7675.29 240.662 202.749 224.349 186.957
7678.05 153.778 209.499 158.611 201.205
7680.81 234.057 183.228 220.654 175.556
7683.58 161.848 187.301 147.404 181.994
7686.34 165.998 175.713 177.924 179.691
7689.1 199.294 183.373 213.746 180.112
7691.86 184.827 203.235 148.667 180.359
7694.62 225.584 206.8 178.663 158.524
7697.38 209.989 202.315 148.244 159.316
7700.14 171.372 181.722 151.04 170.883
7702.9 163.806 174.772 213.366 150.728
7705.66 189.139 195.589 87.7786 161.145
7708.43 233.821 207.442 182.291 137.068
7711.19 199.366 199.304 141.136 143.223
7713.94 164.726 161.867 106.242 97.3719
7716.7 121.511 160.321 44.7385 118.1
7719.46 194.726 177.242 203.32 168.942
7722.22 215.49 212.652 258.767 214.202
7724.98 227.74 221.965 180.518 207.144
7727.74 222.664 213.29 182.148 181.302
7730.5 189.466 186.117 181.238 165.671
7733.26 146.221 186.49 133.626 168.992
7736.01 223.784 194.506 192.113 163.74
7738.77 213.514 201.79 165.48 182.171
7741.53 168.073 203.813 188.921 172.694
7744.29 229.852 215.919 163.681 179.394
7747.04 249.831 244.67 185.579 152.201
7749.8 254.327 231.386 107.343 153.454
7752.56 190 207.521 167.44 157.772
7755.31 178.237 183.281 198.531 187.466
7758.07 181.607 187.881 196.427 181.152
7760.83 203.798 188.349 148.496 176.137
7763.58 179.642 187.313 183.487 174.214
7766.34 178.498 185.241 190.658 191.902
7769.09 197.584 195.982 201.562 194.433
7771.85 211.865 206.415 191.078 200.425
7774.6 209.796 219.717 208.636 197.658
7777.36 237.489 212.545 193.259 204.051
7780.11 190.35 199.955 210.258 203.852
7782.86 172.025 182.527 208.038 206.336
7785.62 185.207 189.475 200.712 181.589
7788.37 211.194 199.917 136.017 144.043
7791.13 203.349 221.5 95.4008 128.959
7793.88 249.956 218.651 155.46 141.118
7796.63 202.647 204.923 172.493 161.064
7799.38 162.164 183.236 155.24 169.92
7802.14 184.897 175.651 182.027 159.462
7804.89 179.891 186.295 141.12 158.77
7807.64 194.096 192.115 153.163 160.196
7810.39 202.356 182.299 186.304 150.726
7813.14 150.443 217.89 112.71 161.711
7815.9 300.87 244.552 186.118 154.188
7818.65 282.344 294.025 163.734 190.485
7821.4 298.863 255.686 221.603 191.496
7824.15 185.851 226.254 189.151 188.173
7826.9 194.048 189.191 153.764 160.531
7829.65 187.673 195.937 138.676 172.036
7832.4 206.09 205.936 223.666 183.577
7835.15 224.045 226.726 188.387 199.242
7837.9 250.043 232.715 185.674 190.278
7840.65 224.058 218.893 196.773 197.56
7843.39 182.579 185.654 210.234 189.794
7846.14 150.326 182.433 162.375 172.195
7848.89 214.395 169.376 143.976 102.902
7851.64 143.408 188.005 2.35461 108.804
7854.39 206.213 147.684 180.083 79.5552
7857.14 93.4312 180.353 56.2283 148.558
7859.88 241.415 160.774 209.364 146.028
7862.63 147.476 191.177 172.492 181.684
7865.38 184.638 142.106 163.198 136.432
7868.12 94.2035 127.021 73.6064 91.8844
7870.87 102.22 134.713 38.8493 113.142
7873.62 207.717 164.603 226.969 122.981
7876.36 183.872 191.64 103.124 158.398
7879.11 183.331 196.387 145.102 140.06
7881.86 221.958 203.712 171.954 172.362
7884.6 205.847 183.981 200.03 174.052
7887.35 124.137 162.955 150.173 170.186
7890.09 158.881 150.216 160.355 157.628
7892.84 167.629 176.653 162.357 167.259
7895.58 203.45 188.439 179.065 171.622
7898.32 194.237 190.591 173.444 176.017
7901.07 174.086 187.047 175.544 180.138
7903.81 192.819 197.515 191.427 175.163
7906.55 225.64 218.294 158.518 135.235
7909.3 236.422 208.63 55.7606 119.199
7912.04 163.827 166.295 143.32 90.2869
7914.78 98.6351 161.761 71.7805 144.784
7917.53 222.82 141.663 219.252 118.93
7920.27 103.533 146.551 65.7559 126.19
7923.01 113.301 134.274 93.5629 115.667
7925.75 185.988 145.612 187.684 134.766
7928.49 137.547 172.114 123.053 160.176
7931.24 192.806 171.946 169.793 146.732
7933.98 185.485 169.877 147.351 161.197
7936.72 131.339 165.922 166.447 151.137
7939.46 180.941 173.136 139.613 152.974
7942.2 207.129 179.678 152.863 124.899
7944.94 150.965 178.932 82.2219 114.557
7947.68 178.702 167.398 108.586 112.028
7950.42 172.528 173.943 145.275 138.236
7953.16 170.598 175.667 160.848 158.137
7955.9 183.875 174.73 168.288 141.395
7958.63 169.718 175.439 95.0484 136.307
7961.37 172.724 189.704 145.585 144.714
7964.11 226.671 181.378 193.507 155.426
7966.85 144.738 156.381 127.186 146.682
7969.59 97.7327 124.784 119.353 125.814
7972.33 131.881 138.501 130.905 117.55
7975.06 185.891 151.318 102.393 120.698
7977.8 136.184 169.861 128.796 131.774
7980.54 187.509 151.709 164.133 148.867
7983.27 131.434 145.862 153.672 153.315
7986.01 118.643 151.465 142.14 133.36
7988.75 204.317 174.124 104.267 108.747
7991.48 199.411 175.836 79.8327 102.15
7994.22 123.78 164.042 122.351 121.303
7996.95 168.936 156.652 161.726 150.228
7999.69 177.24 166.918 166.606 146.058
8002.42 154.577 158.889 109.842 128.644
8005.16 144.85 177.934 109.483 139.017
8007.89 234.374 192.651 197.725 161.042
8010.63 198.728 206.838 175.918 172.435
8013.36 187.412 176.311 143.663 142.655
8016.09 142.792 161.895 108.383 113.736
8018.83 155.482 147.273 89.1634 102.179
8021.56 143.547 155.055 108.991 87.5254
8024.29 166.135 154.518 64.4221 120.475
8027.03 153.871 160.308 188.013 139.547
8029.76 160.919 159.084 166.205 167.832
8032.49 162.463 170.512 149.277 170.299
8035.22 188.153 184.586 195.413 170.177
8037.96 203.142 182.907 165.84 162.808
8040.69 157.426 174.13 127.17 146.938
8043.42 161.821 168.064 147.805 142.204
8046.15 184.944 173.041 151.638 131.906
8048.88 172.358 177.991 96.2735 132.518
8051.61 176.67 158.461 149.643 119.535
8054.34 126.355 151.472 112.688 120.23
8057.07 151.391 155.125 98.3585 114.963
8059.8 187.628 173.106 133.844 118.884
8062.53 180.3 182.866 124.45 133.843
8065.26 180.669 184.834 143.235 149.387
8067.99 193.532 166.402 180.474 144.451
8070.72 125.006 171.125 109.643 148.657
8073.44 194.838 167.319 155.854 136.435
8076.17 182.114 181.734 143.809 144.457
8078.9 168.249 179.432 133.709 146.455
8081.63 187.932 177.009 161.846 139.162
8084.36 174.845 177.889 121.931 142.715
8087.08 170.89 170.239 144.369 133.711
8089.81 164.981 169.547 134.833 145.268
8092.54 172.771 173.811 156.601 149.055
8095.26 183.682 158.695 155.731 132.767
8097.99 119.633 158.911 85.9706 117.894
8100.71 173.419 150.343 111.981 113.663
8103.44 157.976 175.172 143.038 136.401
8106.17 194.12 171.092 154.182 146.005
8108.89 161.179 180.786 140.793 139.85
8111.62 187.058 175.427 124.575 142.14
8114.34 178.045 176.383 161.053 143.698
8117.06 164.047 166.967 145.466 137.25
8119.79 158.809 162.204 105.231 127.91
8122.51 163.756 155.773 133.035 116.951
8125.24 144.755 153.985 112.589 124.991
8127.96 153.445 150.728 129.35 124.337
8130.68 153.985 157.37 131.072 121.538
8133.4 164.679 167.622 104.192 125.106
8136.13 184.201 154.456 140.055 105.249
8138.85 114.488 151.38 71.5019 110.826
8141.57 155.45 149.503 120.921 109.381
8144.29 178.572 167.444 135.721 122.425
8147.01 168.309 169.749 110.633 135.904
8149.74 162.366 159.905 161.357 134.786
8152.46 149.041 147.646 132.368 135.918
8155.18 131.53 133.341 114.027 120.388
8157.9 119.452 125.217 114.768 109.195
8160.62 124.67 134.829 98.79 105.365
8163.34 160.364 144.126 102.536 93.3859
8166.06 147.344 154.401 78.8312 106.475
8168.78 155.496 153.565 138.058 106.443
8171.5 157.856 151.058 102.438 122.952
8174.22 139.823 145.842 128.361 112.828
8176.93 139.847 133.824 107.684 113.785
8179.65 121.8 134.378 105.31 105.068
8182.37 141.486 140.164 102.208 105.97
8185.09 157.206 158.934 110.392 106.098
8187.81 178.111 152.128 105.694 97.8415
8190.52 121.066 135.69 77.4386 90.0867
8193.24 107.894 104.964 87.1274 80.557
8195.96 85.9334 110.602 77.1051 100.254
8198.67 137.98 122.486 136.531 106.374
8201.39 143.544 146.665 105.485 120.608
8204.11 158.471 162.154 119.809 109.743
8206.82 184.446 169.07 103.935 126.01
8209.54 164.291 177.532 154.286 137.178
8212.25 183.858 171.288 153.313 143.219
8214.97 165.713 164.147 122.057 118.499
8217.68 142.869 144.708 80.1283 104.178
8220.4 125.542 133.284 110.347 104.835
8223.11 131.441 141.385 124.031 114.02
8225.82 167.173 143.86 107.681 104.269
8228.54 132.967 145.834 81.0962 104.865
8231.25 137.363 130.629 125.819 98.1636
8233.96 121.556 134.629 87.5754 107.894
8236.68 144.967 149.94 110.286 104.292
8239.39 183.296 158.527 115.013 114.451
8242.1 147.319 163.084 118.052 114.671
8244.81 158.636 141.606 110.948 102.288
8247.53 118.864 141.948 77.8623 103.116
8250.24 148.342 137.455 120.537 94.0659
8252.95 145.158 151.217 83.7981 107.155
8255.66 160.149 149.977 117.129 112.385
8258.37 144.625 139.309 136.227 114.763
8261.08 113.152 127.177 90.9319 104.714
8263.79 123.755 136.44 86.9849 107.074
8266.5 172.411 142.602 143.305 105.696
8269.21 131.639 148.685 86.7978 121.691
8271.92 142.005 135.063 134.969 110.864
8274.63 131.546 125.054 110.825 108.137
8277.34 101.612 122.069 78.6168 109.6
8280.05 133.05 130.65 139.358 114.342
8282.75 157.286 152.799 125.051 114.295
8285.46 168.059 148.342 78.4773 100.991
8288.17 119.681 143.371 99.4448 110.77
8290.88 142.373 139.809 154.389 101.398
8293.58 157.372 133.274 50.3616 104.827
8296.29 100.078 157.677 109.732 107.253
8299 215.58 158.682 161.666 127.881
8301.7 160.389 168.035 112.246 143.236
8304.41 128.136 134.063 155.795 115.258
8307.12 113.665 122.37 77.7348 90.077
8309.82 125.31 130.196 36.7016 65.7768
8312.53 151.613 138.979 82.8941 64.0814
8315.23 140.015 128.232 72.6484 78.5022
8317.94 93.0684 131.154 79.9642 91.6632
8320.64 160.377 124.39 122.377 94.2201
8323.34 119.725 130.363 80.319 88.7152
8326.05 110.987 126.375 63.4496 84.7031
8328.75 148.412 135.118 110.341 90.1137
8331.45 145.954 128.191 96.5508 94.2041
8334.16 90.2084 119.639 75.7209 95.5389
8336.86 122.754 131.012 114.345 94.8098
8339.56 180.073 134.669 94.3634 113.792
8342.27 101.179 120.47 132.668 58.3204
8344.97 80.1567 82.9083 -52.0702 51.5639
8347.67 67.3889 99.4042 74.094 35.0755
8350.37 150.667 120.532 83.2029 86.9718
8353.07 143.54 144.15 103.618 98.4539
8355.77 138.242 137.429 108.54 100.475
8358.47 130.505 128.556 89.2652 106.361
8361.17 116.919 119.314 121.276 98.3855
8363.87 110.517 134.076 84.6152 97.1841
8366.57 174.791 134.859 85.661 89.8508
8369.27 119.268 140.965 99.2762 93.6745
8371.97 128.836 124.876 96.0864 95.8075
8374.67 126.526 109.816 92.0601 87.9152
8377.37 74.0862 96.3563 75.5993 88.3159
8380.07 88.4571 115.032 97.2883 94.235
8382.76 182.552 136.152 109.817 100.083
8385.46 137.448 157.242 93.1436 106.397
8388.16 151.726 132.705 116.23 92.3358
8390.86 108.94 127.521 67.6339 84.6675
8393.55 121.897 149.89 70.1385 71.1057
8396.25 218.831 188.054 75.5447 95.1671
8398.95 223.434 190.371 139.818 88.0535
8401.64 128.848 148.729 48.7979 97.3167
8404.34 93.9041 109.294 103.334 82.3366
8407.03 105.13 138.65 94.8778 114.037
8409.73 216.916 166.425 143.9 147.305
8412.42 177.229 174.224 203.136 141.441
8415.12 128.527 161.546 77.2876 159.672
8417.81 178.881 142.866 198.592 134.251
8420.51 121.19 161.244 126.875 155.271
8423.2 183.66 129.332 140.346 126.213
8425.89 83.1465 110.315 111.417 98.9314
8428.59 64.1374 61.8491 45.0314 54.3355
8431.28 38.2633 60.9474 6.55847 22.6645
8433.97 80.4416 61.2293 16.4038 25.8863
8436.67 64.9831 98.016 54.6967 66.5041
8439.36 148.623 104.358 128.412 86.1242
8442.05 99.4691 131.231 75.2641 123.021
8444.74 145.599 122.859 165.388 91.4414
8447.43 123.509 134.948 33.6721 107.273
8450.12 135.735 152.527 122.758 78.6924
8452.81 198.338 159.545 79.6467 96.6197
8455.5 144.562 150.683 87.4541 100.249
8458.19 109.151 124.212 133.646 80.2047
8460.88 118.922 135.308 19.5135 84.286
8463.57 177.851 160.636 99.6983 72.5441
8466.26 185.134 159.571 98.4207 85.5791
8468.95 115.729 132.972 58.6184 77.5759
8471.64 98.0524 120.051 75.6887 71.4202
8474.33 146.37 123.612 79.9536 72.3794
8477.02 126.412 129.669 61.4958 60.8857
8479.7 116.225 132.36 41.2076 69.7585
8482.39 154.444 142.182 106.572 92.6854
8485.08 155.875 132.757 130.277 92.9831
8487.77 87.9506 118.73 42.1006 87.886
8490.45 112.365 117.5 91.281 57.0945
8493.14 152.186 143.538 37.9019 73.5142
8495.83 166.063 145.033 91.3597 75.758
8498.51 116.85 139.516 98.0123 82.653
8501.2 135.636 118.647 58.5869 67.1246
8503.88 103.456 134.355 44.7748 60.9407
8506.57 163.974 124.911 79.4605 78.7521
8509.25 107.302 139.181 112.021 105.117
8511.94 146.267 123.988 123.87 113.479
8514.62 118.394 137.995 104.545 106.965
8517.3 149.324 138.32 92.4786 87.5287
8519.99 147.242 144.527 65.5626 76.1408
8522.67 137.016 139.119 70.381 69.3591
8525.35 133.1 137.595 72.1336 65.2017
8528.04 142.67 140.929 53.0904 73.0231
8530.72 147.018 148.535 93.8453 90.4916
8533.4 155.918 132.013 124.539 92.9488
8536.08 93.1029 123.825 60.462 94.5786
8538.76 122.456 118.95 98.7347 75.2581
8541.44 141.291 128.198 66.5775 82.7501
8544.12 120.848 133.439 82.9381 96.85
8546.81 138.179 124.553 141.034 92.8566
8549.49 114.632 118.622 54.5974 84.7013
8552.17 103.054 143.458 58.4723 80.794
8554.84 212.687 152.415 129.312 90.4433
8557.52 141.504 164.665 83.5453 101.413
8560.2 139.804 141.144 91.382 91.5683
8562.88 142.124 136.404 99.7775 98.826
8565.56 127.286 140.522 105.318 95.3732
8568.24 152.155 131.043 81.0237 82.6021
8570.92 113.688 142.715 61.4643 74.1615
8573.59 162.302 143.374 79.9963 70.366
8576.27 154.131 151.096 69.6372 85.6918
8578.95 136.857 146.1 107.442 99.4594
8581.62 147.314 147.949 121.299 113.386
8584.3 159.675 142.637 111.418 99.9384
8586.98 120.922 136.553 67.0976 98.5909
8589.65 129.062 131.899 117.257 87.385
8592.33 145.712 141.209 77.8007 85.7264
8595 148.853 131.66 62.1217 66.1414
8597.68 100.414 144.648 58.502 83.0333
8600.35 184.677 141.012 128.476 84.347
8603.03 137.945 147.226 66.063 100.352
8605.7 119.055 135.125 106.517 88.8971
8608.37 148.374 142.7 94.1112 91.9792
8611.05 160.672 144.61 75.3094 75.1809
8613.72 124.785 142.811 56.1221 76.6216
8616.39 142.976 138.293 98.4333 108.229
8619.07 147.117 141.783 170.133 131.132
8621.74 135.256 143.268 124.83 141.902
8624.41 147.43 134.858 130.742 106.661
8627.08 121.887 124.4 64.4103 83.3328
8629.75 103.883 130.279 54.8458 73.5658
8632.42 165.066 142.334 101.441 105.044
8635.09 158.053 153.665 158.844 112.951
8637.76 137.876 138.687 78.5664 96.2249
8640.43 120.132 140.941 51.2643 87.6904
8643.1 164.816 134.973 133.24 91.5988
8645.77 119.972 127.741 90.2917 97.161
8648.44 98.4365 96.8381 67.951 54.6287
8651.11 72.106 101.53 5.64347 54.5049
8653.78 134.048 116.763 89.9204 62.5191
8656.45 144.135 132.5 91.9935 80.7761
8659.12 119.318 103.443 60.4143 49.7763
8661.78 46.8766 101.076 -3.07896 48.637
8664.45 137.035 89.4443 88.5758 33.46
8667.12 84.4214 125.831 14.8831 36.3925
8669.78 156.037 130.572 5.71879 42.5485
8672.45 151.257 158.156 107.044 88.5333
8675.12 167.175 160.954 152.837 109.108
8677.78 164.431 154.032 67.4424 108.237
8680.45 130.488 123.654 104.431 81.3248
8683.11 76.0424 119.71 72.1009 73.3186
8685.78 152.6 120.702 43.4237 70.1276
8688.44 133.463 133.228 94.8582 67.8151
8691.11 113.622 140.671 65.1634 98.5285
8693.77 174.926 139.936 135.564 90.173
8696.43 131.26 157.094 69.7916 98.6739
8699.1 165.095 156.5 90.6663 89.8266
8701.76 173.145 163.316 109.022 100.558
8704.42 151.708 149.064 101.986 96.1616
8707.09 122.34 144.871 77.4769 98.3126
8709.75 160.565 147.236 115.475 90.2968
8712.41 158.803 166.434 77.9387 99.1182
8715.07 179.934 160.41 103.941 98.1093
8717.73 142.493 150.934 112.448 88.4992
8720.39 130.373 136.51 49.1085 77.779
8723.05 136.664 147.494 71.7805 79.9611
8725.71 175.444 147.254 118.994 77.8198
8728.37 129.656 171.46 42.6846 102.728
8731.03 209.28 152.968 146.505 87.272
8733.69 119.967 161.18 72.6264 98.9208
8736.35 154.293 137.33 77.6309 74.8304
8739.01 137.729 146.476 74.234 69.7951
8741.67 147.405 149.266 57.5204 77.0038
8744.33 162.663 151.06 99.257 88.5861
8746.98 143.111 138.366 108.981 101.491
8749.64 109.323 130.076 96.2339 117.941
8752.3 137.795 126.824 148.608 128.073
8754.95 133.353 164.542 139.377 133.032
8757.61 222.478 160.518 111.113 118.372
8760.27 125.725 155.963 104.626 121.662
8762.92 119.687 98.3359 149.246 41.7805
8765.58 49.5959 103.058 -128.53 -2.02324
8768.23 139.89 93.1677 -26.7849 -34.1054
8770.89 90.017 100.414 52.999 43.1281
8773.54 71.3343 75.4117 103.17 70.091
8776.2 64.8837 98.1077 54.1036 56.5227
8778.85 158.105 102.209 12.2942 -2.70017
8781.5 83.6375 120.073 -74.4983 -11.4655
8784.16 118.475 100.605 27.8077 -12.6878
8786.81 99.7023 120.913 8.62721 24.0997
8789.46 144.561 114.706 35.8643 0.52965
8792.12 99.8558 128.695 -42.9025 -3.16245
8794.77 141.667 134.883 -2.4491 -1.17182
8797.42 163.127 144.407 41.8362 30.4651
8800.07 128.426 142.28 52.0082 62.1763
8802.72 135.288 118.894 92.6846 81.0468
8805.37 92.9688 116.781 98.4477 90.399
8808.02 122.085 128.622 80.0646 86.8361
8810.67 170.812 155.618 81.9959 84.5844
8813.32 173.957 171.581 91.6928 116.241
8815.97 169.972 138.552 175.035 185.768
8818.62 71.7276 137.101 290.577 277.743
8821.27 169.602 179.49 367.617 281.758
8823.92 297.141 241.446 187.081 185.532
8826.57 257.594 220.834 1.89878 3.80057
8829.21 107.768 148.615 -177.578 -106.997
8831.86 80.4828 91.2618 -145.313 -178.928
8834.51 85.5343 118.808 -213.894 -119.379
8837.16 190.408 115.773 1.06831 -69.6854
8839.8 71.3764 111.954 3.76917 15.6178
8842.45 74.0772 94.0682 42.016 39.7209
8845.09 136.751 134.885 73.3775 63.0618
8847.74 193.828 150.502 73.7919 29.9677
8850.39 120.926 156.324 -57.2664 41.3314
8853.03 154.218 132.041 107.469 28.6256
8855.67 120.98 128.718 35.6744 63.2848
8858.32 110.956 134.657 46.7113 78.1164
8860.96 172.036 132.498 151.964 92.2882
8863.61 114.503 152.301 78.1898 67.1193
8866.25 170.364 147.147 -28.7954 11.2251
8868.89 156.575 159.217 -15.719 -17.4565
8871.54 150.714 149.491 -7.85517 13.3441
8874.18 141.185 140.042 63.6065 77.1248
8876.82 128.228 135.512 175.623 154.449
8879.46 137.121 125.412 224.117 176.622
8882.1 110.887 86.9783 130.127 62.9185
8884.74 12.9268 90.0771 -165.489 -101.68
8887.38 146.418 63.7497 -269.679 -190.885
8890.02 31.9043 102.021 -137.487 -125.103
8892.66 127.74 93.5311 31.856 3.47053
8895.3 120.949 134.486 116.043 65.7963
8897.94 154.768 167.908 49.4902 77.9646
8900.58 228.006 195.864 68.3607 47.5095
8903.22 204.819 211.627 24.6776 41.7119
8905.86 202.056 170.604 32.0975 58.9823
8908.5 104.937 135.814 120.172 97.0919
8911.14 100.449 106.05 139.006 163.989
8913.77 112.765 139.249 232.788 128.043
8916.41 204.532 190.661 12.3339 8.52159
8919.05 254.688 221.615 -219.557 -106.731
8921.68 205.625 180.435 -112.969 -146.77
8924.32 80.9915 113.912 -107.784 -47.2713
8926.96 55.1201 81.9696 78.9393 20.0215
8929.59 109.797 107.965 88.9091 74.6891
8932.23 158.977 129.796 56.2188 70.5527
8934.86 120.613 139.167 66.5301 61.2812
8937.5 137.911 141.428 61.0948 57.7516
8940.13 165.758 146.893 45.6298 21.5437
8942.76 137.009 152.444 -42.0936 7.53031
8945.4 154.566 134.005 19.0547 -5.55515
8948.03 110.441 129.372 6.37345 59.721
8950.66 123.11 117.54 153.735 79.4842
8953.29 119.069 116.426 78.3441 58.6493
8955.93 107.097 45.3141 -56.1311 -58.476
8958.56 -90.2242 20.1423 -197.641 -74.404
8961.19 43.5539 15.1027 30.5601 -19.3974
8963.82 91.9785 70.8199 108.889 82.7293
8966.45 76.9273 93.7995 108.739 114.175
8969.08 112.493 93.5361 124.897 100.027
8971.71 91.1885 107.159 66.4444 87.8606
8974.34 117.795 99.6437 72.2404 61.9981
8976.97 89.948 106.068 47.3096 50.4478
8979.6 110.46 113.084 31.7934 31.4738
8982.23 138.843 96.03 15.3184 35.966
8984.86 38.7864 87.5814 60.7861 43.641
8987.49 85.1145 61.3471 54.8185 40.344
8990.11 60.1404 86.7163 5.42761 20.3856
8992.74 114.894 98.6507 0.910713 19.9191
8995.37 120.918 141.86 53.4191 -6.09871
8997.99 189.767 123.616 -72.6259 -10.1152
9000.62 60.163 113.315 -11.1387 -50.2424
9003.25 90.0152 83.8847 -66.9626 11.8019
9005.87 101.476 87.906 113.507 50.4162
9008.5 72.2267 82.7929 104.704 106.902
9011.12 74.6759 88.447 102.494 93.8722
9013.75 118.438 95.0684 74.4183 81.818
9016.37 92.0911 107.114 68.5415 65.0929
9019 110.813 120.172 52.319 48.5227
9021.62 157.61 136.162 24.7077 38.3041
9024.24 140.063 123.752 37.8856 39.7821
9026.87 73.5831 100.511 56.753 44.6922
9029.49 87.8868 89.8571 39.4381 42.6278
9032.11 108.101 109.599 31.6924 56.9798
9034.73 132.808 105.356 99.8089 88.0355
9037.35 75.1585 120.037 132.605 81.0837
9039.98 152.145 119.356 10.8371 68.7738
9042.6 130.766 122.065 62.8789 12.1951
9045.22 83.2854 114.237 -37.1309 46.9175
9047.84 128.658 79.5864 115.005 51.6346
9050.46 26.8155 82.8417 77.0301 83.0103
9053.08 93.0511 76.89 56.9962 54.0531
9055.7 110.803 98.2505 28.1331 46.6296
9058.31 90.8971 99.0085 54.7596 48.3045
9060.93 95.3249 108.477 62.0207 64.7936
9063.55 139.209 124.764 77.6005 63.6154
9066.17 139.76 128.483 51.225 59.0935
9068.79 106.482 109.914 48.4551 47.608
9071.4 83.5006 87.661 43.1439 36.3247
9074.02 73.0007 76.566 17.375 27.0366
9076.64 73.1966 48.7325 20.5911 12.6553
