wavelength spec_sum spec_optimal
3534.87 -3.68243 1.78742
3537.79 4.20647 -0.24356
3540.72 -3.51811 2.55275
3543.65 4.30034 2.41503
3546.57 -3.15108 10.2525
3549.5 3.06479 0.303155
3552.42 6.29974 9.10377
3555.35 -9.2909 1.50422
3558.28 3.99447 5.65707
3561.2 -1.45552 7.2226
3564.13 -2.00913 5.27178
3567.05 1.29068 17.3072
3569.98 2.5689 9.57816
3572.91 4.55819 6.3373
3575.83 4.23732 7.04509
3578.76 -5.27449 1.13518
3581.68 4.44963 4.61343
3584.61 -0.00331811 6.39345
3587.53 1.74993 6.202
3590.46 -1.88168 4.7732
3593.38 6.9522 3.17623
3596.31 10.9817 9.21849
3599.24 -2.04965 -3.95392
3602.16 0.403206 3.37734
3605.09 5.00857 9.21721
3608.01 1.93865 4.66599
3610.94 4.55052 4.76073
3613.86 4.12466 -6.71941
3616.79 3.54411 7.79984
3619.71 -4.85816 1.93358
3622.64 -3.76068 -0.176746
3625.56 7.5624 -0.0931324
3628.48 7.44452 -4.73315
3631.41 9.82926 11.3173
3634.33 5.06365 10.3277
3637.26 -4.38977 6.09151
3640.18 3.4552 5.40598
3643.11 8.32336 -0.617361
3646.03 3.73255 2.06492
3648.96 4.6912 1.74554
3651.88 7.73019 -5.36112
3654.8 5.625 2.41563
3657.73 1.48343 -0.348266
3660.65 0.630155 5.47664
3663.58 -4.31151 -2.4312
3666.5 7.13208 10.3311
3669.42 -6.3036 -4.51032
3672.35 6.67116 8.81164
3675.27 -2.51056 -2.30562
3678.2 6.29364 5.67502
3681.12 -2.75517 -4.24738
3684.04 5.69008 5.63086
3686.97 6.01881 9.18565
3689.89 8.1105 8.06808
3692.81 6.50117 2.46888
3695.74 6.41331 2.77728
3698.66 2.1543 6.58628
3701.58 8.13007 0.518066
3704.51 -0.677012 -5.6789
3707.43 4.84477 2.37789
3710.35 -0.0663195 3.89273
3713.28 -7.30709 -4.8728
3716.2 -1.19431 -6.74742
3719.12 5.26347 -0.459159
3722.05 -2.97345 2.94994
3724.97 -1.63758 -4.93975
3727.89 -0.656916 6.04909
3730.81 -0.793964 2.28948
3733.74 -0.694895 1.53081
3736.66 -0.728211 7.51778
3739.58 0.355476 2.13726
3742.5 -2.53144 7.00402
3745.43 5.2428 6.49603
3748.35 1.46777 7.76734
3751.27 -1.34919 2.87152
3754.19 0.313986 6.89152
3757.12 3.0665 3.34829
3760.04 0.0622118 6.2961
3762.96 -5.09293 -1.63857
3765.88 2.49075 3.68267
3768.8 -0.537935 5.14537
3771.73 5.81557 4.7771
3774.65 9.21648 10.5752
3777.57 6.76961 10.4963
3780.49 4.75876 6.06131
3783.41 5.72413 6.36975
3786.33 1.73712 3.65794
3789.26 1.11036 5.17117
3792.18 0.886742 4.02818
3795.1 3.19201 3.19066
3798.02 -2.28672 3.05566
3800.94 7.57959 9.1166
3803.86 -2.77624 6.08265
3806.78 1.85837 4.92058
3809.71 3.78679 11.6166
3812.63 3.95887 7.11114
3815.55 1.94878 2.00427
3818.47 3.86376 10.6818
3821.39 -1.77799 2.68029
3824.31 4.28054 8.40154
3827.23 -0.135685 6.27361
3830.15 -0.00654624 2.19028
3833.07 4.9886 5.78292
3835.99 -3.62042 2.07941
3838.92 3.50001 7.48706
3841.84 1.75947 5.79648
3844.76 -0.754289 5.14639
3847.68 3.77851 6.07686
3850.6 4.51992 4.15666
3853.52 3.94342 6.60776
3856.44 3.73065 7.68776
3859.36 -3.08804 -3.14087
3862.28 -1.46566 1.01617
3865.2 -1.46635 1.57288
3868.12 2.88637 5.48
3871.04 -1.07564 1.75323
3873.96 1.48687 3.29728
3876.88 -1.43818 3.88232
3879.8 1.2674 4.51273
3882.72 2.48053 7.60202
3885.64 -0.294022 0.20299
3888.56 -1.21947 -0.208661
3891.48 6.71321 4.05732
3894.4 -0.435138 -1.21091
3897.32 3.9299 5.44744
3900.24 -1.59575 -1.109
3903.15 1.49746 3.67856
3906.07 1.28294 3.44979
3908.99 0.638797 4.31813
3911.91 5.11189 1.41429
3914.83 6.08079 1.51891
3917.75 8.25827 3.50919
3920.67 1.37531 -2.72605
3923.59 2.32438 3.51405
3926.51 1.0746 -3.44676
3929.43 2.29062 -2.62837
3932.35 5.6196 1.62628
3935.26 -0.31876 -0.503899
3938.18 2.24735 -0.0723937
3941.1 -3.63264 -5.58281
3944.02 8.21546 4.10254
3946.94 1.09819 1.16453
3949.86 -2.20898 0.169548
3952.78 -0.375722 -1.26691
3955.69 5.15373 0.286081
3958.61 3.3996 -0.220887
3961.53 2.66953 -0.32978
3964.45 4.0815 0.697188
3967.37 -0.933285 1.48857
3970.28 6.82324 2.64835
3973.2 5.44749 0.726895
3976.12 5.94443 2.22521
3979.04 5.79675 0.763011
3981.96 0.538603 -2.32205
3984.87 9.31932 5.30284
3987.79 5.72757 2.97292
3990.71 2.14871 1.18956
3993.63 2.75137 2.09278
3996.54 2.43499 1.58915
3999.46 6.90479 4.20389
4002.38 7.19178 2.36812
4005.3 0.280473 -0.00722894
4008.21 6.09767 1.21407
4011.13 2.63373 5.89079
4014.05 3.5992 3.49378
4016.97 4.25004 1.82489
4019.88 0.0347538 -2.06556
4022.8 10.1042 6.38463
4025.72 5.89372 7.26839
4028.63 5.36538 4.59282
4031.55 2.94052 4.18236
4034.47 3.66665 0.257787
4037.38 1.22799 1.80614
4040.3 6.30088 6.58102
4043.22 0.735753 1.24079
4046.13 -0.532252 2.97291
4049.05 4.28296 5.69337
4051.97 3.58799 5.60114
4054.88 9.28998 7.36324
4057.8 4.92168 3.79671
4060.72 5.15186 4.15299
4063.63 2.22795 1.77598
4066.55 9.76389 6.36047
4069.46 4.49543 3.19395
4072.38 5.62241 9.5494
4075.3 5.56356 5.90195
4078.21 5.1857 3.94805
4081.13 6.24285 5.85388
4084.04 3.13261 2.07408
4086.96 5.57826 8.7834
4089.88 8.3621 6.07858
4092.79 4.80692 7.29569
4095.71 6.09357 3.38543
4098.62 5.39211 7.74368
4101.54 2.64997 4.38188
4104.45 5.25926 5.10402
4107.37 5.12066 3.62733
4110.28 3.42463 -1.05577
4113.2 -0.618926 0.736932
4116.11 0.818701 3.85676
4119.03 2.19374 4.79564
4121.94 8.17372 7.62497
4124.86 7.93706 6.67772
4127.77 7.92363 5.15679
4130.69 4.81022 3.43626
4133.6 4.9374 5.79515
4136.52 4.37224 3.91497
4139.43 4.74191 7.60861
4142.35 5.92743 5.48262
4145.26 4.04733 4.5918
4148.18 1.5246 3.98352
4151.09 0.420132 3.27415
4154.01 7.02012 7.22741
4156.92 5.87416 7.27019
4159.83 7.4483 3.86299
4162.75 6.5116 5.43395
4165.66 2.91043 5.31358
4168.58 4.50415 4.94782
4171.49 7.03392 4.25457
4174.41 5.32607 4.8927
4177.32 3.69882 4.54037
4180.23 6.78511 10.7554
4183.15 4.09971 3.34452
4186.06 0.8038 4.59783
4188.97 3.21275 1.35122
4191.89 2.63685 3.87351
4194.8 1.38986 0.727129
4197.72 4.20402 4.98377
4200.63 2.21115 0.0187824
4203.54 2.22487 3.98908
4206.46 3.6403 6.44146
4209.37 4.37251 5.96722
4212.28 6.62043 4.94088
4215.19 5.10201 4.40898
4218.11 5.48836 2.32847
4221.02 6.94799 4.03533
4223.93 5.08873 3.56101
4226.85 3.12904 4.9259
4229.76 6.57107 3.10046
4232.67 4.69506 4.70299
4235.59 3.07969 2.87137
4238.5 7.18859 6.03511
4241.41 6.4774 4.21056
4244.32 3.43393 3.57791
4247.24 4.41431 4.62777
4250.15 3.33653 2.93833
4253.06 1.42264 1.22044
4255.97 -0.400189 0.443846
4258.88 9.64457 7.40922
4261.8 4.6789 5.53771
4264.71 4.27268 6.14234
4267.62 6.77063 6.92242
4270.53 4.91311 3.62497
4273.45 5.91813 6.09657
4276.36 8.28686 6.65194
4279.27 3.77509 1.32026
4282.18 5.7237 4.39821
4285.09 1.8374 5.31031
4288 -0.291709 5.15457
4290.92 3.89418 4.53005
4293.83 1.91428 -0.57558
4296.74 9.34259 7.24899
4299.65 6.18831 5.63859
4302.56 3.37293 0.927665
4305.47 1.96152 1.11665
4308.38 5.97913 4.75055
4311.29 4.29267 4.54311
4314.21 6.28897 3.35643
4317.12 6.04004 3.09456
4320.03 9.70178 5.14486
4322.94 7.10748 6.83284
4325.85 5.86147 1.2869
4328.76 7.94407 6.88316
4331.67 8.06688 5.25518
4334.58 5.53289 5.54892
4337.49 6.9135 4.82284
4340.4 8.37201 8.40963
4343.31 9.38683 7.2677
4346.22 4.65537 5.80286
4349.13 6.5399 3.43684
4352.04 5.90938 3.31323
4354.95 5.95438 5.96229
4357.86 7.98751 5.74281
4360.77 8.88468 6.91868
4363.68 8.94963 7.57099
4366.59 7.03322 6.12434
4369.5 9.20778 8.52451
4372.41 7.06107 4.74329
4375.32 7.30963 6.20304
4378.23 7.77072 4.30272
4381.14 5.03959 4.66607
4384.05 8.88501 5.6797
4386.96 7.42433 5.72716
4389.87 7.2466 5.61715
4392.78 9.58786 7.17304
4395.69 8.56731 7.9623
4398.6 9.68045 7.69533
4401.51 7.87243 3.8716
4404.42 4.523 4.22739
4407.33 6.33449 6.286
4410.24 7.745 6.11056
4413.15 10.1616 6.73965
4416.05 7.77007 7.25071
4418.96 8.04108 5.31516
4421.87 4.98054 4.45782
4424.78 7.50916 5.26544
4427.69 7.32381 7.85339
4430.6 9.68241 7.08442
4433.51 7.51565 5.35712
4436.42 9.05172 7.85219
4439.32 7.84313 4.31342
4442.23 9.19667 7.45211
4445.14 7.06762 7.68177
4448.05 9.12531 7.10065
4450.96 9.19951 7.30656
4453.87 6.79298 5.88688
4456.77 6.21888 5.20521
4459.68 5.72781 5.16302
4462.59 3.97644 4.13169
4465.5 10.2798 8.50018
4468.4 8.34666 8.52786
4471.31 8.87305 7.6366
4474.22 10.9703 9.31321
4477.13 10.998 8.49961
4480.04 6.8134 6.13417
4482.94 11.7492 10.1971
4485.85 10.5328 9.35853
4488.76 9.43405 7.6081
4491.66 9.97204 9.38054
4494.57 8.59891 8.47927
4497.48 5.76962 5.6112
4500.39 12.3943 11.1108
4503.29 11.5172 10.0402
4506.2 9.66772 8.19504
4509.11 14.1091 10.7953
4512.01 10.8276 8.89515
4514.92 8.32421 7.93615
4517.83 8.65711 8.86807
4520.73 10.3551 8.81162
4523.64 11.4315 10.3466
4526.55 9.86073 9.3789
4529.45 11.8564 5.13307
4532.36 6.6201 6.85984
4535.27 10.9963 10.4718
4538.17 8.77103 6.24892
4541.08 10.7012 8.98042
4543.98 9.85553 9.23038
4546.89 7.88958 8.18937
4549.8 13.2866 9.38823
4552.7 9.22245 8.00132
4555.61 11.8693 9.24393
4558.51 6.76675 7.13383
4561.42 9.82934 9.3761
4564.33 9.68594 8.59872
4567.23 10.4284 9.94103
4570.14 10.6885 6.84245
4573.04 11.1888 7.77947
4575.95 10.981 7.57289
4578.85 8.68802 8.56102
4581.76 10.4174 6.69793
4584.66 7.82261 8.69704
4587.57 12.6942 8.53724
4590.47 12.3664 10.7061
4593.38 11.1379 9.1171
4596.28 10.5299 8.73945
4599.19 11.3933 11.3154
4602.09 13.3767 8.01046
4605 11.04 8.82774
4607.9 9.98976 6.8174
4610.81 10.04 7.37984
4613.71 11.4523 9.91739
4616.62 9.70238 9.83179
4619.52 13.4413 10.3268
4622.42 11.2354 9.75817
4625.33 10.0961 7.80271
4628.23 13.4006 11.5832
4631.14 7.5834 5.3469
4634.04 7.05367 7.04975
4636.94 12.0599 10.1071
4639.85 10.1476 8.26262
4642.75 7.88719 6.03397
4645.66 10.6219 9.44586
4648.56 10.3575 9.25901
4651.46 7.64033 8.7681
4654.37 8.93682 10.5033
4657.27 11.3381 7.29906
4660.17 8.73242 7.47779
4663.08 9.94541 9.69234
4665.98 10.3206 10.4487
4668.88 10.8848 6.94399
4671.79 9.57571 7.2684
4674.69 8.94264 8.12096
4677.59 9.59282 7.01341
4680.5 9.15312 6.38688
4683.4 12.9206 11.3158
4686.3 10.9372 9.24186
4689.21 8.19997 8.20962
4692.11 8.13237 8.8213
4695.01 9.99344 9.38273
4697.91 6.26214 7.83304
4700.82 9.04962 8.74779
4703.72 7.75388 6.72249
4706.62 9.16001 6.36647
4709.52 11.0565 11.3894
4712.42 10.5083 9.98928
4715.33 11.5528 7.05115
4718.23 12.1917 10.9909
4721.13 11.0371 9.79273
4724.03 11.826 10.7158
4726.93 7.11024 5.63479
4729.84 9.95638 8.7144
4732.74 12.711 9.17842
4735.64 11.504 9.41582
4738.54 11.9815 9.82822
4741.44 10.4513 6.85078
4744.34 10.8494 8.80297
4747.25 13.4851 8.50941
4750.15 8.23699 7.49072
4753.05 11.4981 9.67199
4755.95 10.8386 8.84696
4758.85 6.82121 6.27703
4761.75 7.87471 7.44993
4764.65 12.6318 11.8073
4767.55 9.17059 8.34604
4770.45 13.0547 9.83578
4773.36 10.3442 11.2735
4776.26 9.6643 8.49095
4779.16 9.87925 8.17833
4782.06 7.43273 8.25507
4784.96 5.74397 6.61954
4787.86 10.8589 9.06961
4790.76 9.56785 8.62833
4793.66 9.65704 8.55964
4796.56 12.9951 11.5935
4799.46 6.73644 6.28844
4802.36 10.1568 8.57828
4805.26 7.7211 7.64768
4808.16 10.4397 11.13
4811.06 10.3396 7.8082
4813.96 7.90755 7.74537
4816.86 10.5365 8.41153
4819.76 10.532 8.10447
4822.66 8.308 7.87348
4825.56 8.19849 6.78005
4828.46 11.1086 8.9575
4831.36 11.7095 9.33999
4834.26 6.79263 5.76122
4837.15 12.4651 8.57185
4840.05 7.32208 5.88599
4842.95 9.46217 7.34541
4845.85 9.43496 9.35865
4848.75 9.1957 9.17336
4851.65 9.11842 7.06055
4854.55 11.4146 11.2406
4857.45 11.7291 11.0359
4860.35 9.29613 8.31586
4863.24 8.34744 7.14533
4866.14 9.40812 8.20622
4869.04 10.304 8.59525
4871.94 9.03989 9.73457
4874.84 8.01784 7.02004
4877.74 8.61664 7.68269
4880.63 11.1083 9.13569
4883.53 11.7712 9.66733
4886.43 12.2023 11.469
4889.33 8.84679 7.57688
4892.23 8.61872 6.86527
4895.12 11.5955 11.2612
4898.02 12.3862 12.8049
4900.92 10.0694 8.53411
4903.82 8.02462 7.93855
4906.71 13.4964 12.9693
4909.61 9.72914 10.6406
4912.51 10.72 9.63141
4915.41 8.87156 7.36026
4918.3 8.78941 8.85776
4921.2 9.6104 9.97136
4924.1 9.08526 9.20332
4926.99 10.7422 9.56039
4929.89 9.9365 9.25295
4932.79 11.3322 11.0949
4935.68 9.51155 8.73505
4938.58 12.6489 10.3005
4941.48 10.6781 9.02057
4944.37 8.31531 7.04179
4947.27 11.8681 11.4348
4950.17 8.66427 9.50411
4953.06 11.1766 9.61043
4955.96 10.4274 10.37
4958.86 10.3558 9.58142
4961.75 10.8584 11.3987
4964.65 8.74976 7.51007
4967.54 11.2793 9.4419
4970.44 11.4024 10.8927
4973.34 10.5164 9.49159
4976.23 8.9306 9.64421
4979.13 7.51364 9.99095
4982.02 8.32824 7.47788
4984.92 9.63971 8.34703
4987.81 9.37263 10.8215
4990.71 10.2038 9.10868
4993.6 7.26617 7.17867
4996.5 9.62625 8.44024
4999.39 8.75147 7.97991
5002.29 6.69572 6.39644
5005.18 10.4374 9.22941
5008.08 9.00896 8.12903
5010.97 11.1386 9.68236
5013.87 9.4658 8.49903
5016.76 10.5154 9.5184
5019.66 12.7208 9.53771
5022.55 13.1678 10.3924
5025.45 11.5508 9.35155
5028.34 12.8576 9.18356
5031.24 9.13658 7.80302
5034.13 9.1533 8.62895
5037.02 9.21088 6.34895
5039.92 10.8103 10.8542
5042.81 10.3064 9.53831
5045.71 11.7709 10.6605
5048.6 8.27661 7.10019
5051.49 8.90306 8.14269
5054.39 7.83178 6.80452
5057.28 12.0907 13.1086
5060.17 9.84091 8.9181
5063.07 8.83006 7.89209
5065.96 12.2253 12.1938
5068.85 8.26211 8.44147
5071.75 7.78224 8.50446
5074.64 8.49871 7.12438
5077.53 7.46021 7.92075
5080.43 7.37143 7.3141
5083.32 7.9486 5.83691
5086.21 9.08509 7.74805
5089.1 8.61816 6.70316
5092 7.527 8.91143
5094.89 9.28177 7.88141
5097.78 10.7261 8.63886
5100.67 10.4115 8.07212
5103.57 10.328 7.3254
5106.46 8.3688 7.23137
5109.35 8.72583 8.76341
5112.24 8.31722 7.48921
5115.13 7.50369 6.8662
5118.03 5.24076 5.83032
5120.92 10.8229 7.43765
5123.81 8.92412 7.86974
5126.7 6.38437 7.54484
5129.59 8.26405 8.42796
5132.48 7.27574 6.35646
5135.38 10.733 8.84633
5138.27 8.47832 6.60629
5141.16 8.42877 5.36356
5144.05 9.47546 6.56918
5146.94 7.57256 7.38979
5149.83 9.196 6.55971
5152.72 8.77482 7.40345
5155.61 11.9837 7.64758
5158.5 6.56957 5.30765
5161.4 9.0449 7.74124
5164.29 5.11204 4.09335
5167.18 5.14812 5.65332
5170.07 2.799 3.11927
5172.96 4.21234 2.86596
5175.85 3.9136 5.34958
5178.74 6.7693 7.46629
5181.63 8.07199 5.91274
5184.52 6.63611 5.05886
5187.41 9.31149 7.41722
5190.3 8.86518 8.47891
5193.19 10.2274 9.9997
5196.08 8.61486 9.16962
5198.97 8.9381 8.37221
5201.86 8.70967 7.60862
5204.75 6.36611 6.47471
5207.64 4.51611 3.40153
5210.52 8.77275 8.11246
5213.41 10.4995 11.4628
5216.3 8.88021 10.1407
5219.19 14.1917 12.074
5222.08 8.19414 8.76323
5224.97 10.1717 9.35352
5227.86 10.5848 9.48655
5230.75 10.9507 10.8751
5233.64 11.4315 9.11568
5236.52 9.94252 8.00276
5239.41 14.0549 11.2838
5242.3 10.8969 11.0936
5245.19 13.2501 10.2429
5248.08 11.8109 10.3914
5250.97 10.4697 9.56478
5253.85 9.13473 8.33616
5256.74 11.9757 9.03848
5259.63 11.0461 8.89054
5262.52 8.9161 9.60678
5265.41 7.25438 6.97928
5268.29 12.4052 11.2404
5271.18 6.80268 8.70705
5274.07 10.6569 12.7758
5276.96 10.4455 9.78962
5279.84 10.9528 11.6342
5282.73 11.785 10.9119
5285.62 12.7279 12.0432
5288.5 6.8682 9.41454
5291.39 9.9048 8.54616
5294.28 12.1567 12.837
5297.17 10.3363 9.77304
5300.05 13.7982 12.2078
5302.94 10.7904 10.7016
5305.83 13.6086 12.4616
5308.71 11.0902 13.0102
5311.6 12.6302 13.9906
5314.48 11.7552 12.8134
5317.37 9.83177 13.5161
5320.26 11.4291 11.95
5323.14 8.544 10.2233
5326.03 10.4184 11.4584
5328.91 12.5747 12.5953
5331.8 12.9455 12.2763
5334.69 8.93134 9.52189
5337.57 11.0705 12.7462
5340.46 10.956 11.3029
5343.34 10.6885 11.2578
5346.23 9.71249 9.48404
5349.11 12.9774 12.5766
5352 12.5016 10.9357
5354.88 12.2871 13.3582
5357.77 12.7075 13.3098
5360.65 13.1745 12.6839
5363.54 12.4556 13.6102
5366.42 13.7147 12.5358
5369.31 13.8167 14.4344
5372.19 10.3102 11.0704
5375.08 10.7983 10.9091
5377.96 11.989 12.7958
5380.84 9.65093 11.0932
5383.73 10.583 13.1673
5386.61 11.7574 10.5089
5389.5 9.44472 11.6316
5392.38 13.0945 14.0679
5395.26 9.90378 12.1696
5398.15 13.1435 15.41
5401.03 8.71468 9.95435
5403.92 11.6043 10.9279
5406.8 11.4234 13.5672
5409.68 9.89713 12.8395
5412.57 9.65393 11.0858
5415.45 13.4325 14.4786
5418.33 15.5111 17.9856
5421.22 13.8555 15.6297
5424.1 12.2173 13.5386
5426.98 10.1007 11.432
5429.86 10.9109 13.0935
5432.75 14.2277 12.3573
5435.63 10.5035 13.3451
5438.51 12.7468 14.1425
5441.39 11.8996 12.5345
5444.28 11.7249 12.5374
5447.16 11.1607 13.413
5450.04 11.9956 13.9312
5452.92 12.733 14.8748
5455.8 13.721 15.72
5458.69 10.1929 10.9198
5461.57 13.8294 14.3136
5464.45 12.9027 14.9133
5467.33 9.71211 10.7597
5470.21 12.8073 13.9509
5473.09 12.986 14.7263
5475.98 10.358 12.6166
5478.86 14.3028 16.4334
5481.74 14.7747 15.3286
5484.62 13.2435 14.6138
5487.5 13.2538 14.5669
5490.38 13.002 14.5474
5493.26 12.8642 14.4512
5496.14 12.1374 14.8498
5499.02 13.5052 15.5566
5501.9 12.8537 13.5025
5504.78 12.4934 15.1451
5507.66 9.55969 14.3645
5510.54 10.3039 13.5881
5513.42 13.4801 13.5327
5516.3 12.2797 13.2962
5519.18 11.3143 13.3761
5522.06 11.3528 13.7572
5524.94 8.81964 10.5013
5527.82 13.2582 13.7335
5530.7 13.7428 16.5763
5533.58 13.8737 16.4551
5536.46 12.8812 14.2979
5539.34 10.9571 14.3947
5542.22 11.8523 14.2083
5545.1 16.7124 17.3955
5547.98 14.4881 16.3396
5550.86 13.2057 14.7491
5553.74 13.4581 14.8214
5556.61 11.5171 12.9378
5559.49 10.9352 13.3763
5562.37 12.8311 15.9532
5565.25 11.5795 14.6462
5568.13 3.54165 13.695
5571.01 17.4397 16.1042
5573.88 12.5422 6.35097
5576.76 6.83201 2.60824
5579.64 7.54396 4.67133
5582.52 7.42211 6.50308
5585.4 10.5797 8.8595
5588.27 11.0449 11.4865
5591.15 9.00039 11.5459
5594.03 9.71859 14.948
5596.91 10.7808 14.4013
5599.78 9.61574 12.8614
5602.66 7.36214 15.4623
5605.54 13.6531 15.0508
5608.41 15.8537 16.4276
5611.29 12.2529 12.5419
5614.17 12.9645 14.001
5617.04 13.9159 14.3786
5619.92 12.4168 13.8931
5622.8 11.7684 14.2064
5625.67 13.7312 13.0467
5628.55 12.2657 13.6127
5631.43 10.8259 13.5455
5634.3 13.4262 16.8794
5637.18 6.44529 15.1044
5640.05 12.283 15.0572
5642.93 14.836 15.4637
5645.81 13.8409 15.0212
5648.68 7.90773 16.1824
5651.56 11.4191 13.2832
5654.43 4.52855 10.1602
5657.31 10.5593 15.9944
5660.18 14.6477 17.0664
5663.06 11.4654 12.4022
5665.93 12.2399 15.2914
5668.81 11.5014 14.6012
5671.68 7.99788 15.173
5674.56 11.1283 13.7908
5677.43 11.7967 13.0879
5680.31 6.37019 13.6145
5683.18 11.9078 18.5946
5686.06 7.55888 16.6815
5688.93 13.984 16.9128
5691.8 12.7746 14.271
5694.68 17.6287 20.0418
5697.55 5.7917 11.6666
5700.42 15.6598 16.9747
5703.3 3.33372 11.6904
5706.17 15.0134 15.5035
5709.05 8.18381 14.1943
5711.92 6.07081 11.9869
5714.79 7.40635 13.7342
5717.67 11.2514 14.4403
5720.54 8.27196 14.8898
5723.41 8.30514 15.6853
5726.28 10.1889 12.9346
5729.16 11.543 12.328
5732.03 11.2597 13.4795
5734.9 12.8993 12.9157
5737.77 7.40229 14.2565
5740.65 8.95782 14.5496
5743.52 12.9451 16.6895
5746.39 12.4795 15.4133
5749.26 13.7855 17.9511
5752.14 13.1852 16.9827
5755.01 11.4607 12.7302
5757.88 5.88538 15.2572
5760.75 12.3693 13.8733
5763.62 12.8075 14.8497
5766.49 14.0646 16.6591
5769.37 12.6444 15.078
5772.24 14.3315 15.6726
5775.11 11.922 16.1025
5777.98 10.4407 13.4664
5780.85 10.3734 12.5157
5783.72 11.3357 13.5866
5786.59 13.0608 14.2756
5789.46 14.4143 14.5955
5792.33 10.9565 11.9501
5795.2 13.2608 19.3994
5798.07 14.9487 18.1078
5800.94 13.0731 14.5053
5803.81 12.1901 17.9158
5806.68 9.889 12.3206
5809.55 10.7056 13.2121
5812.42 14.9561 16.2188
5815.29 15.7876 18.6188
5818.16 14.3616 16.1622
5821.03 15.6017 17.3251
5823.9 13.1782 14.5403
5826.77 15.6163 17.9916
5829.64 8.76222 15.7156
5832.51 13.8051 14.2389
5835.38 11.9333 14.7261
5838.25 13.2535 16.4347
5841.11 14.8023 16.7386
5843.98 12.6692 13.9194
5846.85 7.69776 14.1646
5849.72 12.3493 12.7632
5852.59 7.75828 15.129
5855.46 13.4568 15.6779
5858.32 14.0497 17.8327
5861.19 11.2106 12.6041
5864.06 4.49135 15.4367
5866.93 12.8987 15.7867
5869.79 12.8247 11.5002
5872.66 13.644 13.7097
5875.53 12.0453 14.3512
5878.4 11.6938 15.9031
5881.26 3.78749 13.5183
5884.13 8.36332 8.56243
5887 -3.46612 10.4691
5889.86 5.17878 4.25053
5892.73 7.68624 9.31907
5895.6 12.4984 12.4017
5898.46 -3.67273 11.1024
5901.33 8.68424 14.14
5904.2 5.89139 17.4136
5907.06 12.1868 14.6203
5909.93 13.4034 18.0018
5912.8 12.6274 15.9387
5915.66 7.84818 16.9166
5918.53 8.38772 9.62789
5921.39 16.9634 19.391
5924.26 6.52958 16.5116
5927.12 12.6331 14.3089
5929.99 15.4698 16.3829
5932.85 13.4397 14.4065
5935.72 11.4448 13.7398
5938.58 6.01078 15.1638
5941.45 14.1796 16.0788
5944.31 15.1949 17.8998
5947.18 5.48654 15.1547
5950.04 6.41796 14.7159
5952.91 12.8891 15.6246
5955.77 8.68269 16.8845
5958.64 13.4862 14.9253
5961.5 13.2463 15.4697
5964.36 17.0214 18.7697
5967.23 12.621 14.9247
5970.09 9.63571 18.7363
5972.95 11.2379 13.6307
5975.82 11.1523 13.6722
5978.68 12.3268 16.2481
5981.54 9.32832 16.3005
5984.41 17.1449 16.2486
5987.27 8.92457 17.8741
5990.13 6.03129 14.4885
5993 15.1796 14.5722
5995.86 11.1346 17.9874
5998.72 12.1668 14.9723
6001.58 14.4599 16.4684
6004.45 14.6319 16.5893
6007.31 16.6683 16.8005
6010.17 12.5327 14.5767
6013.03 11.6011 12.8933
6015.89 12.4187 15.7812
6018.76 13.4419 16.9267
6021.62 7.19123 12.146
6024.48 10.2685 11.982
6027.34 14.5573 16.4649
6030.2 13.6011 15.0472
6033.06 8.82649 14.0197
6035.92 12.3282 14.2942
6038.79 14.698 15.3009
6041.65 13.1163 15.0689
6044.51 6.93646 13.944
6047.37 12.6657 17.1284
6050.23 11.4594 15.2079
6053.09 13.7513 16.1442
6055.95 14.2844 19.2022
6058.81 13.2514 16.0737
6061.67 12.376 14.2612
6064.53 14.3818 16.9412
6067.39 12.3851 15.592
6070.25 14.601 16.0905
6073.11 13.6988 17.6165
6075.97 14.377 17.716
6078.83 14.6331 17.4234
6081.69 9.47553 14.2643
6084.54 13.5332 15.9103
6087.4 7.38411 14.5635
6090.26 8.52975 16.9239
6093.12 9.84604 15.8586
6095.98 3.43989 13.6172
6098.84 15.4688 16.1035
6101.7 11.9171 14.0943
6104.55 14.9184 16.7393
6107.41 12.6297 13.8582
6110.27 10.1795 13.0458
6113.13 6.80974 11.4093
6115.99 13.0524 14.2169
6118.84 15.0097 16.3618
6121.7 11.3485 13.1809
6124.56 12.7568 13.7204
6127.42 14.9934 16.4854
6130.27 11.6056 13.1473
6133.13 9.13939 14.7526
6135.99 12.6796 13.3238
6138.84 11.525 14.672
6141.7 12.8301 15.6764
6144.56 12.7934 16.1851
6147.41 11.2322 13.0384
6150.27 13.9876 15.8995
6153.13 12.3863 14.3412
6155.98 10.2114 13.3942
6158.84 9.76616 11.6111
6161.69 10.2888 12.7667
6164.55 12.6227 15.2749
6167.4 12.0662 13.8531
6170.26 6.69029 13.1955
6173.12 12.4921 14.5923
6175.97 13.4696 14.0681
6178.83 13.3877 15.3522
6181.68 14.601 16.3847
6184.54 14.5384 15.1452
6187.39 7.19166 12.8495
6190.24 15.0341 17.3108
6193.1 12.1688 15.8325
6195.95 10.7011 16.6331
6198.81 15.8317 18.1425
6201.66 12.6392 13.3901
6204.51 14.0566 14.5268
6207.37 13.8562 14.321
6210.22 4.51578 11.6788
6213.08 12.3697 13.884
6215.93 11.8933 14.3449
6218.78 5.00915 12.5215
6221.64 12.0079 15.0188
6224.49 13.5046 15.7143
6227.34 8.20765 10.5056
6230.19 11.1523 12.0605
6233.05 4.55718 12.6239
6235.9 12.8524 12.9255
6238.75 14.7681 15.7721
6241.6 12.4863 14.5756
6244.46 6.38435 15.7337
6247.31 14.7082 16.4869
6250.16 13.2381 17.5111
6253.01 10.4697 13.4694
6255.86 10.6274 13.3277
6258.72 10.8287 11.7076
6261.57 10.3884 11.5644
6264.42 13.2827 15.1674
6267.27 12.3979 14.4516
6270.12 7.49835 16.0528
6272.97 13.3166 15.2146
6275.82 12.8303 14.7999
6278.67 9.36822 11.7901
6281.52 9.79124 13.0625
6284.37 7.67193 14.3997
6287.22 12.1603 13.0267
6290.07 10.4106 15.6208
6292.92 14.6904 12.1673
6295.77 -23.8898 1.51534
6298.62 13.5925 2.10598
6301.47 9.0167 1.522
6304.32 10.7887 4.82151
6307.17 9.71594 10.284
6310.02 13.6491 15.7343
6312.87 1.2341 15.9893
6315.72 2.54562 16.0233
6318.57 13.1648 16.4247
6321.41 11.2922 16.4528
6324.26 13.5041 17.7752
6327.11 13.3967 14.4466
6329.96 11.9736 14.3857
6332.81 15.0786 18.8276
6335.66 13.6341 14.9972
6338.5 10.9265 14.1851
6341.35 11.9278 14.7659
6344.2 9.53965 17.2301
6347.05 12.6285 13.9853
6349.89 15.4186 18.534
6352.74 13.2736 16.4894
6355.59 16.4628 18.7508
6358.43 16.1717 16.2717
6361.28 12.0893 11.2213
6364.13 13.9818 11.6853
6366.97 10.5521 13.0289
6369.82 16.9534 16.436
6372.67 7.44812 11.6442
6375.51 8.4227 18.4466
6378.36 13.4946 17.3164
6381.21 12.3238 14.2236
6384.05 15.3748 16.7235
6386.9 11.306 14.2191
6389.74 14.9535 16.5413
6392.59 13.9145 15.4765
6395.43 12.3607 16.1127
6398.28 13.4433 15.1569
6401.12 11.8731 15.0016
6403.97 11.3761 18.569
6406.81 12.094 15.294
6409.66 9.92118 12.3744
6412.5 14.9795 15.9252
6415.34 13.3703 17.0712
6418.19 13.564 14.0953
6421.03 14.238 16.0947
6423.88 11.981 14.8941
6426.72 13.2288 16.9545
6429.56 12.0945 15.4141
6432.41 12.8136 17.3727
6435.25 12.1376 17.6466
6438.09 13.7911 15.7969
6440.94 16.4151 17.7701
6443.78 14.6169 17.0416
6446.62 14.2565 15.9264
6449.46 15.1134 18.464
6452.31 13.4094 17.486
6455.15 6.76943 14.7406
6457.99 13.5487 16.5781
6460.83 11.9123 14.9462
6463.67 12.4232 13.2468
6466.52 7.76225 15.8377
6469.36 15.2264 17.7864
6472.2 14.1237 16.3623
6475.04 9.79187 18.2271
6477.88 11.505 15.1333
6480.72 10.7044 13.9973
6483.56 12.7822 16.5986
6486.4 14.2271 17.4329
6489.24 12.4272 17.301
6492.08 11.0727 12.7616
6494.92 9.69554 15.6443
6497.76 4.12934 12.389
6500.6 11.4992 11.1662
6503.44 8.91741 18.7771
6506.28 6.98776 15.3477
6509.12 10.5084 14.1914
6511.96 13.0146 16.5225
6514.8 9.11996 16.2643
6517.64 9.98051 17.2111
6520.48 10.2678 14.249
6523.32 17.3605 19.5214
6526.16 13.1271 17.3738
6529 17.194 18.6513
6531.83 13.9519 16.3433
6534.67 9.08101 16.6906
6537.51 13.9812 18.5024
6540.35 13.1072 16.7022
6543.19 10.6039 19.801
6546.02 15.4031 17.9092
6548.86 8.79238 18.2118
6551.7 15.1308 16.7132
6554.54 14.6111 17.1745
6557.37 12.5797 15.5468
6560.21 5.93733 13.3735
6563.05 16.0973 18.6332
6565.88 12.7654 16.8345
6568.72 11.7426 14.3399
6571.56 14.4732 16.8182
6574.39 12.1377 13.0527
6577.23 11.1954 13.6288
6580.06 16.4916 17.3004
6582.9 12.1726 16.2198
6585.74 8.49478 14.1665
6588.57 13.8306 16.8347
6591.41 6.44156 15.1301
6594.24 15.5949 17.9712
6597.08 12.054 15.564
6599.91 12.0432 14.1165
6602.75 16.068 17.259
6605.58 11.797 14.7778
6608.42 13.0899 15.787
6611.25 13.8309 17.1617
6614.08 12.5967 15.7276
6616.92 15.079 16.7262
6619.75 9.13392 16.5586
6622.59 12.7643 15.0168
6625.42 13.8921 16.4636
6628.25 16.6195 20.2722
6631.09 14.5287 14.855
6633.92 11.2633 14.1573
6636.75 13.5954 14.2557
6639.58 14.1673 13.4133
6642.42 13.4076 16.1579
6645.25 10.642 13.7687
6648.08 5.35221 13.0543
6650.91 13.6151 15.4552
6653.75 14.3631 17.3913
6656.58 11.8853 14.5432
6659.41 14.8892 16.1803
6662.24 13.3333 15.4209
6665.07 18.2942 19.6133
6667.9 12.243 14.0417
6670.73 14.614 15.0231
6673.57 13.9458 14.3136
6676.4 9.95586 16.0053
6679.23 14.0108 16.0166
6682.06 11.3166 13.0273
6684.89 14.1384 15.6284
6687.72 11.0284 14.3596
6690.55 9.79744 16.4234
6693.38 9.86888 15.5472
6696.21 13.0266 13.0523
6699.04 14.2439 15.7774
6701.87 9.30145 13.9896
6704.7 10.3034 12.4242
6707.52 12.9099 14.1466
6710.35 12.2288 14.3228
6713.18 13.5549 15.2109
6716.01 8.5477 14.1339
6718.84 9.79972 15.8384
6721.67 11.3248 16.6951
6724.5 10.6024 14.8877
6727.32 17.0984 15.4589
6730.15 14.7249 15.3285
6732.98 8.91905 15.1785
6735.81 13.0064 15.073
6738.63 15.1507 16.3377
6741.46 10.5673 11.7223
6744.29 11.8306 13.1332
6747.11 14.6794 15.7208
6749.94 7.99013 12.6606
6752.77 14.325 15.7787
6755.59 13.7865 16.1718
6758.42 14.4487 15.2819
6761.25 8.43502 12.2728
6764.07 13.3145 14.0766
6766.9 13.4904 14.7259
6769.72 14.4484 14.5941
6772.55 11.2351 12.2524
6775.37 15.1835 16.2943
6778.2 12.7571 13.4068
6781.02 11.0282 15.8344
6783.85 13.2844 18.0885
6786.67 9.02976 13.8449
6789.5 13.7825 14.2686
6792.32 10.9226 11.2853
6795.15 9.01311 13.062
6797.97 14.4669 16.1708
6800.79 9.47613 13.8938
6803.62 12.5477 14.6813
6806.44 13.4008 13.8665
6809.27 13.7318 14.324
6812.09 14.6955 14.779
6814.91 11.4424 12.5474
6817.73 11.6797 12.6138
6820.56 13.6312 14.779
6823.38 14.8614 17.4181
6826.2 13.2468 13.1733
6829.02 11.3308 11.1321
6831.85 2.78835 13.9549
6834.67 14.0549 11.3812
6837.49 14.2958 13.6244
6840.31 11.0268 14.5817
6843.13 13.7366 15.4762
6845.95 12.7571 12.8078
6848.77 13.1037 12.3244
6851.6 8.88782 10.7586
6854.42 -0.405035 13.5295
6857.24 11.672 12.79
6860.06 2.11908 12.0434
6862.88 13.297 10.7579
6865.7 7.61536 7.88964
6868.52 10.6998 9.82611
6871.34 7.27476 8.78662
6874.16 8.0893 8.79741
6876.98 11.3609 10.3402
6879.8 12.0441 13.3366
6882.61 8.5909 13.8713
6885.43 10.2832 10.4335
6888.25 12.163 12.7065
6891.07 13.4909 12.7052
6893.89 11.5099 12.513
6896.71 10.1594 9.9774
6899.53 10.3465 12.3311
6902.34 9.96079 10.315
6905.16 14.5911 15.5441
6907.98 7.09948 15.1687
6910.8 12.3506 14.1072
6913.61 11.9357 11.3576
6916.43 10.3928 10.2904
6919.25 11.968 9.32213
6922.06 11.0116 10.5983
6924.88 12.4884 11.7685
6927.7 11.6554 13.2163
6930.51 10.3665 12.8772
6933.33 12.5774 12.1661
6936.14 12.8348 12.4983
6938.96 8.95898 13.6444
6941.78 4.67606 10.9163
6944.59 5.71937 14.4043
6947.41 12.0744 12.5144
6950.22 5.99974 13.9641
6953.04 11.3528 9.05539
6955.85 5.99575 11.5092
6958.66 14.7443 14.1915
6961.48 7.55875 11.5117
6964.29 16.8941 16.152
6967.11 13.1195 12.3433
6969.92 12.3076 12.6288
6972.73 14.6748 15.0999
6975.55 13.9632 15.5119
6978.36 11.797 12.784
6981.17 12.6362 12.4881
6983.99 14.3348 15.1429
6986.8 14.4139 13.8267
6989.61 15.2719 15.7828
6992.42 13.6383 13.607
6995.24 11.7503 11.0288
6998.05 12.0475 12.2075
7000.86 15.397 13.3169
7003.67 8.60095 8.2886
7006.48 15.4631 15.1943
7009.29 13.2078 12.7351
7012.11 11.2698 12.5799
7014.92 8.82352 14.0247
7017.73 14.0126 14.1458
7020.54 9.42365 13.9169
7023.35 11.7344 14.9771
7026.16 12.2372 12.04
7028.97 13.8895 13.152
7031.78 15.1169 15.3555
7034.59 13.2815 12.3626
7037.4 16.7246 16.1374
7040.21 12.8911 15.7225
7043.02 14.3202 15.9418
7045.83 12.4509 10.8814
7048.63 13.298 13.3673
7051.44 16.1078 14.746
7054.25 11.3353 12.5253
7057.06 17.0322 15.855
7059.87 13.078 13.6324
7062.68 8.66223 13.0816
7065.48 15.4201 15.3985
7068.29 15.6487 16.084
7071.1 9.63924 10.4666
7073.91 13.314 13.3259
7076.71 15.7295 14.1513
7079.52 13.5438 13.6485
7082.33 9.81304 9.34326
7085.13 7.35043 12.6165
7087.94 13.0798 11.2041
7090.74 13.3348 11.5824
7093.55 13.8052 14.191
7096.36 13.8219 12.9417
7099.16 11.7684 11.0476
7101.97 14.3089 12.9644
7104.77 15.0863 15.215
7107.58 15.9754 15.7846
7110.38 13.8803 12.667
7113.19 9.30417 14.0226
7115.99 12.7993 12.4986
7118.8 14.2745 14.3557
7121.6 12.9676 12.5988
7124.4 13.405 15.8293
7127.21 12.322 12.7659
7130.01 14.9909 14.058
7132.81 9.24163 10.959
7135.62 10.6295 10.5682
7138.42 12.633 13.1451
7141.22 8.27727 13.6336
7144.03 13.519 12.5396
7146.83 7.91865 13.7858
7149.63 11.3332 14.2892
7152.43 12.5755 12.6979
7155.23 13.4911 12.5376
7158.04 6.12899 10.8218
7160.84 10.7538 8.66535
7163.64 14.0564 14.9764
7166.44 15.1105 16.2626
7169.24 15.1675 14.4363
7172.04 13.3698 13.7053
7174.84 13.9689 12.9321
7177.64 15.4486 14.3672
7180.44 11.4943 10.3484
7183.24 6.52694 10.4002
7186.04 9.38298 10.6474
7188.84 11.6961 11.5506
7191.64 9.76503 10.2957
7194.44 13.9226 13.4788
7197.24 11.028 11.5289
7200.04 15.5604 14.6724
7202.84 10.4703 10.4958
7205.63 12.2576 10.768
7208.43 13.2498 13.1855
7211.23 14.0844 13.0624
7214.03 11.8321 12.049
7216.83 13.9261 12.7926
7219.62 13.2116 11.2152
7222.42 13.5073 11.1389
7225.22 13.2 12.7648
7228.01 10.8977 12.5557
7230.81 15.0274 15.0009
7233.61 12.2466 13.2975
7236.4 9.44015 11.1319
7239.2 -4.39301 8.12585
7242 11.8688 12.9746
7244.79 13.3373 11.1243
7247.59 13.9517 14.7422
7250.38 11.0665 9.47864
7253.18 13.9557 13.2278
7255.97 12.6023 11.8588
7258.77 7.7633 12.131
7261.56 12.4757 12.5427
7264.36 7.23266 11.5599
7267.15 12.6506 12.5312
7269.94 13.365 11.792
7272.74 11.1235 9.68722
7275.53 17.8022 16.8659
7278.33 -2.23259 16.4201
7281.12 9.68607 12.5046
7283.91 -3.08751 10.1115
7286.7 15.5659 14.8228
7289.5 1.65941 10.3543
7292.29 12.8713 14.8892
7295.08 6.68075 11.5014
7297.87 15.2311 13.6206
7300.66 9.70842 9.2515
7303.46 16.6463 17.034
7306.25 9.2955 11.1272
7309.04 14.8901 15.649
7311.83 13.9431 14.162
7314.62 17.0128 17.1888
7317.41 16.3809 12.4537
7320.2 2.36626 16.0016
7322.99 11.409 11.6152
7325.78 18.2014 15.8572
7328.57 14.6963 12.3949
7331.36 11.6076 12.8502
7334.15 4.16196 12.7063
7336.94 17.3946 13.4369
7339.73 16.0125 10.2867
7342.52 -6.98101 14.8261
7345.31 11.5841 12.7981
7348.09 5.24925 12.8176
7350.88 10.6602 13.2192
7353.67 12.2318 12.9393
7356.46 14.7313 15.735
7359.25 10.2002 12.2901
7362.03 16.4012 14.5212
7364.82 11.7397 10.5236
7367.61 10.8163 10.0476
7370.39 -1.18106 12.7336
7373.18 9.66763 14.1082
7375.97 8.76284 12.6785
7378.75 14.6222 14.9696
7381.54 14.6141 12.4359
7384.32 14.5311 13.5199
7387.11 15.5094 12.5023
7389.9 3.74312 9.17902
7392.68 4.7838 12.8265
7395.47 8.45223 11.0477
7398.25 3.57079 10.7068
7401.03 14.3929 13.8122
7403.82 10.7262 12.8526
7406.6 7.44408 12.0129
7409.39 5.11061 11.7554
7412.17 13.4086 14.391
7414.95 9.26673 9.53561
7417.74 14.4986 15.5131
7420.52 14.2599 13.4565
7423.3 9.28495 12.9422
7426.09 14.8893 13.6814
7428.87 14.9662 12.7323
7431.65 15.4374 12.602
7434.43 15.8516 16.3423
7437.21 13.3196 12.8951
7440 12.3241 13.2211
7442.78 16.1642 16.0021
7445.56 11.927 11.5003
7448.34 14.0095 12.8685
7451.12 16.514 14.1481
7453.9 17.0673 15.0641
7456.68 15.8476 14.8873
7459.46 17.4741 13.1231
7462.24 16.1265 13.9138
7465.02 15.6949 14.813
7467.8 12.6239 14.4335
7470.58 15.5454 12.7065
7473.36 16.3867 17.7338
7476.14 0.25375 11.6509
7478.92 18.5021 11.3964
7481.69 14.3031 14.7908
7484.47 17.3111 14.4314
7487.25 12.3719 12.496
7490.03 16.1687 15.7707
7492.81 15.8926 12.6029
7495.58 13.9551 15.0926
7498.36 16.8326 12.8681
7501.14 18.2376 17.0931
7503.91 15.9042 14.5823
7506.69 11.3024 11.7689
7509.47 14.8897 13.1293
7512.24 12.8836 12.1188
7515.02 15.2251 13.1879
7517.79 12.9788 12.8649
7520.57 2.9475 15.8355
7523.34 15.9031 14.7644
7526.12 9.46636 10.9665
7528.89 11.2419 13.276
7531.67 12.0395 11.3686
7534.44 12.643 10.9424
7537.22 13.4237 11.3339
7539.99 11.8814 12.0683
7542.76 16.0218 12.7015
7545.54 14.8389 12.6903
7548.31 12.4201 11.284
7551.08 10.7322 13.7682
7553.86 11.254 12.006
7556.63 5.00166 12.0937
7559.4 6.67128 11.3931
7562.17 12.9035 15.696
7564.95 16.8584 12.8398
7567.72 13.622 13.0223
7570.49 19.4427 12.3163
7573.26 14.8953 11.5243
7576.03 11.8145 11.5041
7578.8 12.6822 12.9381
7581.57 9.66123 8.59896
7584.34 14.7697 10.7968
7587.11 14.8014 12.6048
7589.88 11.025 10.3675
7592.65 7.92211 5.17968
7595.42 4.36378 3.90197
7598.19 -0.00695726 4.77999
7600.96 0.168908 4.49208
7603.73 5.28482 5.69493
7606.5 2.00899 0.684489
7609.26 5.55118 5.75143
7612.03 7.56613 7.29895
7614.8 9.17109 8.82672
7617.57 8.25805 6.7783
7620.34 7.33157 7.55985
7623.1 7.87142 4.19342
7625.87 5.10329 6.88677
7628.64 2.99591 9.10047
7631.4 9.72357 8.21461
7634.17 8.12886 6.87512
7636.94 7.96565 6.62472
7639.7 8.66166 7.93346
7642.47 8.8728 7.94593
7645.23 9.93601 9.21668
7648 8.3143 8.0301
7650.76 8.618 8.21703
7653.53 10.4262 9.01361
7656.29 9.38614 9.02718
7659.06 6.37702 10.8613
7661.82 4.85949 7.10049
7664.58 11.2188 8.09697
7667.35 10.9305 11.2698
7670.11 11.193 9.5907
7672.87 11.7168 10.3475
7675.64 10.9906 13.1295
7678.4 9.11893 9.31221
7681.16 10.4736 12.9909
7683.92 8.37358 8.72486
7686.69 11.6352 10.5658
7689.45 11.5742 12.7278
7692.21 11.225 8.87784
7694.97 15.0237 10.6922
7697.73 12.8534 8.89542
7700.49 9.53909 9.12564
7703.25 9.69807 12.9092
7706.01 11.2246 5.30791
7708.77 16.3132 11.1192
7711.53 10.7017 8.71106
7714.29 -19.4639 6.53963
7717.05 6.29612 2.73409
7719.81 -11.3657 12.5958
7722.57 13.1757 16.0803
7725.33 14.665 11.2055
7728.09 14.4783 11.3478
7730.84 5.17399 11.3822
7733.6 9.42007 8.40481
7736.36 13.2159 12.1016
7739.12 13.3884 10.4308
7741.87 10.9733 11.9818
7744.63 16.3753 10.3336
7747.39 19.1567 11.7893
7750.15 19.5524 6.80821
7752.9 13.5999 10.7263
7755.66 10.6141 12.7722
7758.41 -6.19005 12.6582
7761.17 13.3902 9.54685
7763.92 12.0017 11.8655
7766.68 4.36247 12.3746
7769.43 12.5622 13.0902
7772.19 7.05643 12.4494
7774.94 5.58085 13.5671
7777.7 14.1873 12.6324
7780.45 14.0527 13.7895
7783.21 11.0737 13.6512
7785.96 13.0867 13.159
7788.71 14.5538 8.89468
7791.46 12.1615 6.26197
7794.22 20.6314 10.2261
7796.97 14.168 11.3652
7799.72 12.21 10.2879
7802.47 1.86191 12.0821
7805.23 11.0218 9.35629
7807.98 13.7335 10.1567
7810.73 12.7113 12.36
7813.48 -1.29786 7.50375
7816.23 22.5578 12.4186
7818.98 -1.32787 10.8948
7821.73 19.8593 14.8098
7824.48 13.046 12.6535
7827.23 -2.2278 10.2738
7829.98 4.45913 9.30328
7832.73 13.5604 15.0733
7835.48 15.4486 12.6873
7838.23 18.5605 12.5002
7840.98 17.0084 13.296
7843.72 11.6567 14.2223
7846.47 11.3722 11.0364
7849.22 15.126 9.75906
7851.97 9.39092 0.184785
7854.72 14.4643 12.3232
7857.46 6.95101 3.89874
7860.21 15.8196 14.3159
7862.96 9.71007 11.8597
7865.7 13.3852 11.2009
7868.45 -9.23502 5.04517
7871.19 7.53468 2.64863
7873.94 15.9436 15.6677
7876.69 1.96512 7.09347
7879.43 -1.17126 10.0133
7882.18 0.729164 11.9003
7884.92 15.3197 13.9154
7887.66 -7.87983 10.4697
7890.41 -7.778 11.1998
7893.15 10.5499 11.36
7895.9 14.9115 12.5595
7898.64 6.26769 12.1655
7901.38 11.7638 12.3931
7904.13 12.5078 13.4706
7906.87 3.11037 11.1551
7909.61 20.5889 3.82317
7912.35 13.1865 10.2758
7915.09 -30.2325 5.19326
7917.84 14.5367 15.6245
7920.58 7.91303 4.71594
7923.32 6.74763 6.73756
7926.06 12.9009 13.4527
7928.8 8.78995 8.85293
7931.54 3.31359 12.264
7934.28 3.83098 10.6674
7937.02 2.23997 12.1123
7939.76 13.8233 10.164
7942.5 16.1819 11.1146
7945.24 12.3923 6.00578
7947.98 11.6293 7.8884
7950.72 13.4719 10.6535
7953.45 12.4821 11.8418
7956.19 8.70967 12.3444
7958.93 12.6288 7.01893
7961.67 12.4614 10.7583
7964.4 18.8281 14.3112
7967.14 -11.821 9.41174
7969.88 6.16674 8.88636
7972.61 7.00413 9.79339
7975.35 11.9269 7.59637
7978.09 11.1481 9.63326
7980.82 13.6595 12.2705
7983.56 8.92897 11.5224
7986.29 9.42543 10.704
7989.03 -4.56836 7.82135
7991.76 13.4893 5.92938
7994.5 10.763 9.23348
7997.23 10.9412 12.1689
7999.97 11.9838 12.5522
8002.7 9.28214 8.29789
8005.43 10.3191 8.29845
8008.17 11.6496 14.998
8010.9 14.7374 13.3776
8013.63 14.3756 10.9469
8016.36 9.98317 8.28619
8019.1 10.9408 6.78598
8021.83 -5.19157 8.35003
8024.56 13.0253 4.95095
8027.29 10.1596 14.4862
8030.02 10.583 12.8096
8032.75 10.6425 11.4955
8035.48 7.35219 15.1525
8038.21 15.2687 12.8176
8040.94 12.3842 9.84837
8043.67 13.0145 11.5118
8046.4 15.3913 11.8291
8049.13 13.3392 7.4996
8051.86 12.0503 11.7128
8054.59 10.463 8.88909
8057.32 12.8184 7.72116
8060.04 15.8563 10.545
8062.77 12.683 9.79418
8065.5 14.8387 11.3154
8068.23 16.6233 14.3091
8070.95 5.58409 8.71528
8073.68 14.5575 12.4023
8076.41 13.4196 11.4462
8079.13 14.0836 10.7134
8081.86 16.3055 12.9968
8084.59 8.42087 9.79007
8087.31 14.0384 11.6442
8090.04 13.0749 10.8612
8092.76 8.51679 12.6473
8095.49 8.44764 12.6004
8098.21 8.11142 6.97986
8100.93 15.1657 9.07046
8103.66 6.78596 11.6175
8106.38 14.3063 12.5689
8109.11 14.1934 11.4936
8111.83 15.7267 10.1558
8114.55 14.8792 13.1885
8117.27 13.0214 11.896
8120 13.2108 8.61485
8122.72 15.2356 10.938
8125.44 7.96186 9.26853
8128.16 11.8951 10.6378
8130.88 12.1889 10.8201
8133.6 9.69799 8.57983
8136.32 14.9449 11.5823
8139.04 8.63183 5.91693
8141.76 12.3244 10.0048
8144.48 10.8085 11.2362
8147.2 15.2719 9.18287
8149.92 14.1992 13.4078
8152.64 12.1352 10.9937
8155.36 11.1218 9.50181
8158.08 8.9732 9.59622
8160.8 6.79264 8.24471
8163.51 13.4121 8.56036
8166.23 11.874 6.57509
8168.95 13.4417 11.5964
8171.66 12.3371 8.58428
8174.38 13.2409 10.837
8177.1 11.9164 9.09123
8179.81 10.0585 8.91808
8182.53 10.9906 8.63776
8185.25 14.4566 9.32605
8187.96 17.4704 8.94137
8190.68 9.98147 6.60407
8193.39 9.23155 7.43907
8196.1 8.9206 6.59257
8198.82 11.945 11.7165
8201.53 12.5255 9.0291
8204.25 15.0874 10.2944
8206.96 17.7318 8.93553
8209.67 17.5748 13.3289
8212.39 13.3415 13.245
8215.1 15.6783 10.5368
8217.81 9.43459 6.92045
8220.52 9.27735 9.59222
8223.23 13.0124 10.7667
8225.95 15.1283 9.35729
8228.66 9.55098 7.02859
8231.37 12.1504 10.9378
8234.08 9.15747 7.63494
8236.79 13.2996 9.60737
8239.5 16.1987 9.99852
8242.21 14.3164 10.3106
8244.92 13.3656 9.71129
8247.63 5.60098 6.74279
8250.33 14.247 10.5362
8253.04 12.3002 7.27656
8255.75 12.8463 10.2316
8258.46 13.3818 11.8961
8261.17 7.97489 7.93151
8263.87 9.84608 7.63279
8266.58 16.0429 12.499
8269.29 10.7999 7.55412
8271.99 13.8071 11.807
8274.7 5.64061 9.68566
8277.41 7.32801 6.86647
8280.11 13.6885 12.1453
8282.82 -9.27697 10.8816
8285.52 -13.819 6.75789
8288.23 10.2614 8.6948
8290.93 13.0707 13.4521
8293.64 11.2965 4.31244
8296.34 8.42749 9.628
8299.04 19.0818 14.1111
8301.75 14.5982 9.81486
8304.45 8.92755 13.6498
8307.15 6.85206 6.78439
8309.86 8.5935 3.1728
8312.56 10.7729 7.22123
8315.26 5.23765 6.29923
8317.96 8.39883 7.05196
8320.66 14.9807 10.7363
8323.36 6.93677 7.07545
8326.06 7.73098 5.57294
8328.76 13.3688 9.74007
8331.46 12.1921 8.53582
8334.16 7.64277 6.73623
8336.86 1.72835 10.1693
8339.56 23.839 8.35835
8342.26 16.7345 11.749
8344.96 8.55551 -4.66521
8347.66 -51.6646 6.73557
8350.36 -25.5674 7.38838
8353.05 7.60495 9.31169
8355.75 9.93019 9.75195
8358.45 9.37858 7.99218
8361.15 1.60634 10.9165
8363.84 12.8131 7.59859
8366.54 14.0388 7.70085
8369.23 12.3338 8.95359
8371.93 9.96388 8.67932
8374.63 9.64699 8.31188
8377.32 7.20185 6.81783
8380.02 10.0226 8.82916
8382.71 16.3341 9.89067
8385.4 13.7424 8.47422
8388.1 6.36871 10.5032
8390.79 10.7667 6.06794
8393.48 12.0712 6.353
8396.18 25.2023 6.75818
8398.87 21.8825 12.5952
8401.56 8.33033 4.32637
8404.25 4.21291 9.3612
8406.95 -5.06452 8.56503
8409.64 20.5722 12.9413
8412.33 16.6795 18.3453
8415.02 12.386 6.964
8417.71 15.4178 17.9191
8420.4 10.4363 11.4327
8423.09 18.9124 12.5934
8425.78 11.517 10.0233
8428.47 6.80839 4.06475
8431.16 0.127825 0.588749
8433.85 2.07334 1.36073
8436.54 2.84573 4.84376
8439.22 13.6368 11.5268
8441.91 8.22725 6.74056
8444.6 14.5347 14.9323
8447.29 12.1882 3.04515
8449.97 -4.3004 11.0916
8452.66 0.0819869 7.10686
8455.35 2.53451 7.8952
8458.03 9.62166 12.0435
8460.72 14.1951 1.78739
8463.4 19.0625 9.01159
8466.09 18.8654 8.79796
8468.77 7.04769 5.31248
8471.46 6.02457 6.83223
8474.14 13.4346 7.24153
8476.82 10.893 5.57636
8479.51 10.8522 3.66572
8482.19 13.912 9.65938
8484.87 13.3608 11.8256
8487.56 8.10245 3.81301
8490.24 11.0012 8.2937
8492.92 16.4295 3.40408
8495.6 16.6632 8.31962
8498.28 3.73737 8.91245
8500.96 -4.65227 5.29292
8503.65 8.57071 4.07237
8506.33 15.0382 7.19933
8509.01 8.3875 10.1902
8511.69 12.8532 11.2713
8514.36 10.3377 9.46443
8517.04 13.787 8.38163
8519.72 13.6484 5.93791
8522.4 11.176 6.34294
8525.08 11.397 6.51115
8527.76 13.0235 4.74316
8530.43 13.876 8.44121
8533.11 16.3644 11.2021
8535.79 2.79151 5.49653
8538.47 11.7147 8.88624
8541.14 12.6016 5.88825
8543.82 10.4714 7.45021
8546.49 13.5708 12.6039
8549.17 12.6622 4.8359
8551.84 9.46865 5.23214
8554.52 18.758 11.4893
8557.19 12.3175 7.4247
8559.87 9.56153 8.11106
8562.54 10.3263 8.84451
8565.21 11.9447 9.33713
8567.89 12.9427 7.17269
8570.56 9.39427 5.42955
8573.23 13.4701 7.01743
8575.9 14.1555 6.11886
8578.58 14.1405 9.48981
8581.25 12.0247 10.7019
8583.92 14.6843 9.82165
8586.59 11.1948 5.89981
8589.26 13.8018 10.3712
8591.93 13.2143 6.85199
8594.6 11.2949 5.46068
8597.27 7.49816 5.13568
8599.94 11.131 11.295
8602.61 9.87185 5.79133
8605.28 11.4651 9.42462
8607.94 12.9208 8.32373
8610.61 13.7279 6.61734
8613.28 6.06836 4.93448
8615.95 14.1497 8.68736
8618.61 13.4437 15.1091
8621.28 10.9131 11.0538
8623.95 12.0838 11.5907
8626.61 13.58 5.67911
8629.28 7.14902 4.83973
8631.94 2.76773 8.97771
8634.61 13.5062 14.1486
8637.27 11.8309 6.95432
8639.94 10.7923 4.54753
8642.6 17.6686 11.8325
8645.27 9.59827 8.05829
8647.93 7.75914 6.01197
8650.59 3.77686 0.40173
8653.25 11.9902 8.00864
8655.92 10.1527 8.14719
8658.58 10.0472 5.35303
8661.24 1.29462 -0.339823
8663.9 -0.384136 7.87833
8666.56 5.63105 1.24489
8669.22 13.6198 0.4487
8671.88 5.55403 9.54975
8674.54 15.2944 13.6681
8677.2 8.28585 5.97249
8679.86 4.32375 9.33792
8682.52 -0.471283 6.44795
8685.18 14.8889 3.82173
8687.84 13.766 8.46971
8690.5 12.3831 5.80692
8693.15 16.5144 12.0962
8695.81 12.7976 6.2036
8698.47 8.67299 8.06778
8701.13 15.747 9.6952
8703.78 13.5931 9.08298
8706.44 4.38481 6.8928
8709.09 13.0813 10.3051
8711.75 10.414 6.93655
8714.4 15.3852 9.24619
8717.06 11.8238 10.0227
8719.71 11.3032 4.29691
8722.37 12.8648 6.40638
8725.02 13.9611 10.533
8727.67 8.66634 3.71685
8730.33 18.8894 13.0247
8732.98 10.494 6.46735
8735.63 10.9065 6.87023
8738.28 11.8255 6.55974
8740.94 13.5632 5.08209
8743.59 13.0999 8.80384
8746.24 10.5468 9.65384
8748.89 9.75663 8.52048
8751.54 7.03233 13.1645
8754.19 -2.23437 12.2905
8756.84 19.1169 9.77639
8759.49 12.9225 9.19589
8762.14 13.2689 13.1569
8764.78 -1.13644 -11.5076
8767.43 -38.6129 -2.45573
8770.08 6.87182 4.58996
8772.73 1.3879 8.9556
8775.38 5.56844 4.75266
8778.02 -25.3638 1.00116
8780.67 -31.2354 -6.63031
8783.31 -11.6162 2.36547
8785.96 -4.47677 0.658429
8788.61 15.84 3.0676
8791.25 7.73353 -3.77073
8793.9 10.5606 -0.291647
8796.54 14.5203 3.59663
8799.18 11.3444 4.51918
8801.83 11.9311 8.07456
8804.47 3.86602 8.56093
8807.11 10.8167 6.95422
8809.76 16.6023 7.07976
8812.4 16.5948 7.91733
8815.04 16.1591 15.1989
8817.68 -3.2825 25.3166
8820.32 -10.985 31.9143
8822.97 31.6796 16.2326
8825.61 27.8233 0.064197
8828.25 20.2219 -15.5999
8830.89 1.58213 -12.8804
8833.53 3.95287 -18.8778
8836.16 16.3565 0.00122554
8838.8 -18.9996 0.369905
8841.44 5.32516 3.6572
8844.08 13.4497 6.43083
8846.72 18.3436 6.49845
8849.36 8.13068 -5.2318
8851.99 14.1188 9.63644
8854.63 8.09894 3.17008
8857.27 7.54216 4.16207
8859.9 17.6687 13.7585
8862.54 9.43283 7.07329
8865.17 13.8594 -2.68552
8867.81 16.0012 -1.48567
8870.44 14.0673 -0.774391
8873.08 12.1316 5.79297
8875.71 11.2727 16.3387
8878.34 -3.99803 20.9087
8880.98 -29.5177 12.2412
8883.61 -64.3887 -15.6392
8886.24 18.8565 -25.8388
8888.87 -42.084 -13.0992
8891.51 9.38356 3.00191
8894.14 9.96342 11.0351
8896.77 0.952249 4.60931
8899.4 24.8949 6.4226
8902.03 -9.79661 2.24491
8904.66 21.6269 2.98534
8907.29 10.9091 11.4689
8909.92 -3.37245 13.1176
8912.55 8.19959 22.0765
8915.17 -25.098 0.991548
8917.8 -48.0032 -20.9285
8920.43 -45.1322 -10.606
8923.06 9.25036 -10.0917
8925.68 2.23466 7.30689
8928.31 9.91259 8.11017
8930.94 14.8746 5.06174
8933.56 5.5338 5.99682
8936.19 13.6867 5.45944
8938.81 14.9297 4.07118
8941.44 11.901 -3.87075
8944.06 13.3332 1.63214
8946.69 8.18393 0.506239
8949.31 11.4066 13.4872
8951.94 11.1269 6.76078
8954.56 13.6935 -4.94358
8957.18 -9.8011 -17.4348
8959.8 5.8733 2.7463
8962.42 8.37239 9.43746
8965.05 7.07093 9.47746
8967.67 11.5422 10.8646
8970.29 7.52674 5.75674
8972.91 5.16764 6.28285
8975.53 8.44146 4.15163
8978.15 8.51945 2.74399
8980.77 12.3305 1.24741
8983.39 3.57554 5.44383
8986.01 -5.83632 4.88506
8988.62 5.6866 0.380073
8991.24 9.78764 -0.00704769
8993.86 13.4648 4.85752
8996.48 19.8855 -6.90796
8999.09 5.34086 -1.1019
9001.71 7.54612 -6.39859
9004.33 3.53732 10.8375
9006.94 5.71264 10.0692
9009.56 7.37318 9.94289
9012.17 13.0362 7.22801
9014.79 8.69173 6.7428
9017.4 11.5969 5.09487
9020.01 17.2053 2.34635
9022.63 15.489 3.66711
9025.24 7.87525 5.65886
9027.85 10.8774 3.91909
9030.47 13.0111 3.05664
9033.08 18.1716 9.83776
9035.69 9.70903 13.1528
9038.3 14.953 1.01562
9040.91 12.9363 6.02431
9043.52 7.59681 -3.65608
9046.13 14.6229 10.8491
9048.74 1.67741 7.19571
9051.35 7.12622 5.30775
9053.96 9.99531 2.51033
9056.57 10.4797 5.09646
9059.18 10.6573 5.90161
9061.78 13.8618 7.53297
9064.39 15.8324 5.1365
9067 13.5861 5.15154
