wavelength spectrum_sum 3smoothed_sum spectrum_optimal 3smoothed_optimal
3514.63 -6.97146 -2.16987 -3.60974 2.2242
3517.56 0.461838 -0.16122 10.2823 2.81599
3520.48 6.02596 3.6151 1.77536 5.68427
3523.41 4.35749 2.28181 4.9951 0.788586
3526.33 -3.53803 3.63218 -4.4047 3.20123
3529.26 10.0771 3.27588 9.01329 -0.22089
3532.18 3.28859 0.706172 -5.27125 2.60643
3535.11 -11.2472 0.768429 4.07727 -0.557641
3538.03 10.2639 -1.53577 -0.478941 3.23652
3540.96 -3.624 7.17154 6.11122 3.83525
3543.88 14.8748 1.55979 5.87347 12.3494
3546.81 -6.57141 1.48029 25.0634 10.5668
3549.73 -3.8625 0.477128 0.763589 16.1403
3552.66 11.8653 -2.17799 22.5938 9.04031
3555.58 -14.5368 0.0941384 3.76352 13.5901
3558.51 2.95388 -2.78063 14.4131 12.2525
3561.43 3.24099 1.32114 18.581 15.502
3564.36 -2.23145 0.690124 13.512 25.5763
3567.28 1.06083 1.06884 44.636 27.6629
3570.21 4.37713 6.52409 24.8406 28.6825
3573.13 14.1343 10.0717 16.571 19.9968
3576.06 11.7037 1.3384 18.5787 12.7383
3578.98 -21.8227 -0.695452 3.06531 11.3454
3581.91 8.03273 -5.64762 12.3922 10.8944
3584.83 -3.15286 3.60323 17.2256 15.4834
3587.76 5.92982 0.653215 16.8322 15.717
3590.68 -0.817319 3.90237 13.0932 12.9226
3593.61 6.59462 8.79456 8.84228 15.9288
3596.53 20.6064 8.90671 25.8511 7.84652
3599.45 -0.480863 9.14899 -11.1538 8.12845
3602.38 7.32146 3.50883 9.68806 8.39515
3605.3 3.68588 4.26699 26.6512 16.6667
3608.23 1.79362 8.615 13.6608 18.1104
3611.15 20.3655 12.3749 14.0193 2.49934
3614.07 14.9657 14.5763 -20.1821 5.78367
3617 8.39761 4.35388 23.5138 3.0641
3619.92 -10.3017 -5.26646 5.86059 9.64006
3622.85 -13.8953 -3.37087 -0.454236 1.67863
3625.77 14.0844 1.8105 -0.37046 -5.23927
3628.69 5.24242 13.2264 -14.8931 6.95699
3631.62 20.3524 17.1932 36.1345 18.1888
3634.54 25.9848 13.4113 33.3249 29.8253
3637.46 -6.10334 12.6442 20.0165 23.769
3640.39 18.0512 9.8231 17.9658 11.9522
3643.31 17.5214 17.3661 -2.12572 7.62972
3646.23 16.5258 14.5031 7.04912 3.63421
3649.16 9.46195 12.9265 5.97922 -1.86
3652.08 12.7916 9.97606 -18.6083 -1.42402
3655 7.67459 11.1036 8.35707 -3.77643
3657.93 12.8445 8.81577 -1.07803 9.01748
3660.85 5.92819 5.75293 19.7734 3.26674
3663.77 -1.51392 10.1186 -8.89515 16.3111
3666.7 25.9416 2.0827 38.0551 4.14108
3669.62 -18.1796 10.8263 -16.7366 18.1146
3672.54 24.7168 -0.8666 33.0254 2.53436
3675.47 -9.13705 14.5812 -8.6857 15.3693
3678.39 28.1639 4.40866 21.7681 -1.12967
3681.31 -5.80086 14.9332 -16.4715 9.08573
3684.23 22.4365 11.697 21.9605 13.9223
3687.16 18.4555 24.3835 36.2779 30.1554
3690.08 32.2585 27.934 32.2278 26.1621
3693 33.0882 24.432 9.98068 17.889
3695.92 7.94922 17.5484 11.4585 16.197
3698.85 11.6077 9.7335 27.1517 13.5924
3701.77 9.64359 3.25845 2.16705 1.88086
3704.69 -11.4759 1.67255 -23.6761 -3.83331
3707.61 6.84997 3.26356 10.0092 0.996571
3710.54 14.4166 -0.0606012 16.6567 1.88386
3713.46 -21.4484 -2.05932 -21.0143 -11.2788
3716.38 0.853805 0.644124 -29.4788 -17.5261
3719.3 22.527 6.34334 -2.08524 -6.13141
3722.23 -4.35077 3.98036 13.1698 -3.66326
3725.15 -6.23515 -3.1337 -22.0744 6.12783
3728.07 1.18481 1.20944 27.288 5.19576
3730.99 8.67867 7.04402 10.3736 14.9408
3733.91 11.2686 6.67393 7.16071 17.4446
3736.83 0.0745264 6.44243 34.7996 17.3434
3739.76 7.98418 -0.0712592 10.07 25.9833
3742.68 -8.27248 4.42649 33.0804 24.677
3745.6 13.5678 3.36974 30.8807 33.7129
3748.52 4.81395 7.20196 37.1777 27.3168
3751.44 3.22418 4.90118 13.8921 28.1949
3754.36 6.6654 8.89935 33.5148 21.331
3757.29 16.8085 9.10544 16.5861 27.0724
3760.21 3.84245 -1.63736 31.1163 13.144
3763.13 -25.563 0.837252 -8.27033 13.7835
3766.05 24.2323 -0.542416 18.5045 12.0621
3768.97 -0.296551 15.9646 25.9522 22.9768
3771.89 23.958 23.8655 24.4737 34.9941
3774.81 47.935 40.0161 54.5565 44.4778
3777.73 48.1553 33.7034 54.4032 46.906
3780.65 5.02 25.6005 31.7583 39.9325
3783.58 23.6263 10.0214 33.6359 28.3044
3786.5 1.41798 6.92554 19.519 27.0254
3789.42 -4.26763 5.17545 27.9214 23.1036
3792.34 18.376 11.9986 21.8705 22.4279
3795.26 21.8875 14.8218 17.4918 18.7055
3798.18 4.2018 17.5352 16.7542 28.3347
3801.1 26.5163 10.2371 50.7583 33.8911
3804.02 -0.00663979 10.627 34.1608 37.6248
3806.94 5.37124 8.0869 27.9554 42.8779
3809.86 18.8961 19.5552 66.5176 45.2196
3812.78 34.3983 15.476 41.1858 39.8503
3815.7 -6.86656 20.4079 11.8475 38.6785
3818.62 33.6919 6.80193 63.0024 30.2992
3821.54 -6.41953 14.4098 16.0477 43.2037
3824.46 15.957 4.20568 50.561 34.9417
3827.38 3.0796 2.30773 38.2163 34.1738
3830.3 -12.1134 7.72582 13.744 29.3428
3833.22 32.2112 1.90117 36.0682 20.9762
3836.14 -14.3943 13.0283 13.1163 32.2117
3839.06 21.2679 4.55931 47.4507 32.5408
3841.98 6.80439 7.24033 37.0555 39.2193
3844.9 -6.35131 7.50022 33.1516 36.5822
3847.82 22.0476 16.4129 39.5394 33.3247
3850.74 33.5424 23.1201 27.2829 36.8054
3853.66 13.7702 26.4386 43.5939 40.7627
3856.58 32.0032 10.6353 51.4112 24.6663
3859.5 -13.8676 4.24414 -21.0062 12.4248
3862.42 -5.40316 -12.4644 6.86925 -1.13734
3865.34 -18.1226 -1.21629 10.7249 18.5547
3868.26 19.8769 -4.78574 38.07 20.3738
3871.18 -16.1115 3.13134 12.3263 24.5799
3874.1 5.62866 -3.71647 23.3433 20.9936
3877.02 -0.666581 6.18656 27.3111 27.6118
3879.94 13.5976 12.3191 32.181 38.0233
3882.86 24.0264 16.7761 54.5776 29.4026
3885.78 12.7043 15.9822 1.4492 18.1599
3888.69 11.2161 17.1291 -1.5471 9.81657
3891.61 27.4668 11.202 29.5476 6.36757
3894.53 -5.07685 18.6985 -8.8978 20.2878
3897.45 33.7054 8.75464 40.2135 7.70446
3900.37 -2.3646 17.2508 -8.20231 19.8496
3903.29 20.4118 9.62097 27.5377 15.1284
3906.21 10.8157 15.7664 26.0499 28.736
3909.13 16.0717 24.0951 32.6204 23.1661
3912.04 45.3978 31.4724 10.8281 18.3374
3914.96 32.9476 43.3355 11.5638 16.4203
3917.88 51.6612 32.0408 26.8691 5.84538
3920.8 11.5136 23.9885 -20.8968 11.0173
3923.72 8.79066 3.83398 27.0795 -6.84679
3926.64 -8.80229 4.34544 -26.7231 -6.73611
3929.55 13.0479 12.4443 -20.5647 -11.5323
3932.47 33.0872 13.8116 12.6909 -3.97089
3935.39 -4.70027 14.3582 -4.03888 2.66754
3938.31 14.6876 -2.03573 -0.649414 -16.3735
3941.23 -16.0945 21.0603 -44.4322 -4.12876
3944.15 64.588 21.9801 32.6954 -0.781074
3947.06 17.4468 19.762 9.39365 14.4816
3949.98 -22.7487 0.667764 1.35573 0.154828
3952.9 7.30516 5.05319 -10.2849 -2.16056
3955.82 30.6031 13.5971 2.4475 -3.23692
3958.73 2.88316 18.7023 -1.87336 -0.679468
3961.65 22.6206 13.0856 -2.61255 0.400507
3964.57 13.7531 12.3718 5.68743 5.09154
3967.49 0.741636 22.0947 12.1997 13.3605
3970.4 51.7894 28.1587 22.1944 13.5038
3973.32 31.9451 43.8016 6.11737 15.6238
3976.24 47.6702 41.1543 18.5598 10.3338
3979.16 43.8476 28.6322 6.32433 1.78217
3982.07 -5.62118 26.7421 -19.5376 10.6458
3984.99 42 33.1396 45.1508 17.0034
3987.91 63.0399 48.6737 25.397 26.9227
3990.83 40.9812 42.5009 10.2203 17.9477
3993.74 23.4815 26.4882 18.2259 14.1071
3996.66 15.0019 29.5974 13.875 22.9382
3999.58 50.3088 36.0883 36.7137 23.7689
4002.49 42.9543 33.4699 20.718 19.0831
4005.41 7.14654 34.0202 -0.182407 10.4527
4008.33 51.9597 27.0465 10.8225 21.0251
4011.24 22.0331 41.7478 52.4354 31.4922
4014.16 51.2504 37.6163 31.2188 33.3792
4017.08 39.5653 31.5691 16.4835 9.66078
4019.99 3.89168 41.1461 -18.72 18.6143
4022.91 79.9814 42.4395 58.0793 35.2885
4025.83 43.4454 57.4353 66.5062 55.5885
4028.74 48.8791 45.8748 42.18 49.2178
4031.66 45.3 38.3566 38.9671 27.8574
4034.58 20.8907 28.0857 2.42505 19.3908
4037.49 18.0662 31.0346 16.7802 27.1507
4040.41 54.1468 27.8104 62.2467 30.2993
4043.32 11.2182 19.7419 11.8709 34.1119
4046.24 -6.13933 19.8017 28.218 31.5101
4049.16 54.3261 31.9067 54.4414 45.6223
4052.07 47.5332 61.4038 54.2073 60.026
4054.99 82.352 63.0147 71.4292 54.2278
4057.9 59.1588 67.0254 37.0467 49.6865
4060.82 59.5655 48.7842 40.5835 31.7091
4063.74 27.6283 49.2931 17.497 40.3352
4066.65 60.6856 50.3605 62.9253 37.3383
4069.57 62.7678 67.1257 31.5928 63.2368
4072.48 77.9238 66.0655 95.1924 61.9566
4075.4 57.5049 57.2039 59.0847 64.6802
4078.31 36.1829 48.0436 39.7635 52.712
4081.23 50.4429 40.4173 59.2877 40.0444
4084.14 34.626 43.0134 21.0819 56.6842
4087.06 43.9714 49.4443 89.6829 57.7791
4089.97 69.7355 55.6768 62.5726 75.747
4092.89 53.3234 65.2543 74.9854 57.5633
4095.8 72.704 66.8326 35.1318 63.496
4098.72 74.4704 59.8976 80.3709 53.7289
4101.63 32.5185 55.7261 45.684 59.8593
4104.55 60.1893 51.2897 53.5228 45.7155
4107.46 61.1613 56.4741 37.9397 26.7704
4110.38 48.0716 44.1044 -11.1514 11.5462
4113.29 23.0803 31.7316 7.85037 12.5433
4116.21 24.0428 29.114 40.9309 33.257
4119.12 40.2188 46.7797 50.9898 57.7367
4122.04 76.0776 62.1742 81.2894 67.9585
4124.95 70.2262 74.5619 71.5962 69.4928
4127.87 77.3818 68.8287 55.5928 54.6445
4130.78 58.8782 63.322 36.7444 51.753
4133.7 53.7059 50.5632 62.9218 47.4384
4136.61 39.1054 53.0135 42.649 62.8861
4139.52 66.2291 52.2753 83.0875 61.9446
4142.44 51.4913 55.6719 60.0973 64.5409
4145.35 49.2953 47.9538 50.438 51.5107
4148.27 43.0747 35.8038 43.9966 43.582
4151.18 15.0415 46.7296 36.3114 53.5351
4154.1 82.0725 54.6204 80.2975 65.9611
4157.01 66.7471 71.7589 81.2745 68.2678
4159.92 66.457 72.3817 43.2313 61.9108
4162.84 83.9409 58.6602 61.2266 54.8587
4165.75 25.5827 50.244 60.118 59.2151
4168.66 41.2085 47.306 56.3008 54.9951
4171.58 75.1269 59.1125 48.5665 53.7423
4174.49 61.0021 61.4435 56.3596 52.4513
4177.41 48.2015 58.3047 52.4279 78.0954
4180.32 65.7104 58.9545 125.499 72.5001
4183.23 62.9516 50.0746 39.5739 73.2034
4186.15 21.562 39.8098 54.5377 36.7828
4189.06 34.916 34.4006 16.2367 38.935
4191.97 46.724 36.7327 46.0305 23.7042
4194.89 28.5581 41.8743 8.84541 38.3376
4197.8 50.3407 42.7368 60.1368 23.015
4200.71 49.3115 44.7505 0.0626277 36.2714
4203.62 34.5993 49.3628 48.6149 42.6505
4206.54 64.1775 53.1882 79.274 67.23
4209.45 60.7876 61.8062 73.8012 71.5007
4212.36 60.4535 63.9721 61.4268 63.5036
4215.28 70.6751 71.1641 55.2828 48.6282
4218.19 82.3637 78.5269 29.175 45.1505
4221.1 82.542 72.5293 50.9938 41.8173
4224.01 52.6822 51.6855 45.2832 52.9957
4226.93 19.8324 41.8713 62.7103 49.1721
4229.84 53.0993 40.1307 39.523 54.2998
4232.75 47.4604 44.9886 60.6662 45.7931
4235.66 34.4062 54.0661 37.1902 58.8233
4238.58 80.3316 58.6367 78.6135 57.038
4241.49 61.1723 64.269 55.3102 60.214
4244.4 51.303 60.6318 46.7182 54.2707
4247.31 69.4201 59.5687 60.7838 48.727
4250.23 57.9832 49.0647 38.679 38.4325
4253.14 19.7909 32.8274 15.8347 20.1309
4256.05 20.708 48.8096 5.87896 40.0074
4258.96 105.93 71.58 98.3085 59.3045
4261.87 88.1023 86.4593 73.7261 84.7158
4264.78 65.3457 77.1327 82.1129 82.846
4267.7 77.9501 66.5828 92.6989 74.421
4270.61 56.4524 68.0789 48.4511 74.3775
4273.52 69.834 75.8081 81.9824 73.2678
4276.43 101.138 76.8134 89.3699 63.0281
4279.34 59.4683 71.4835 17.7322 55.5583
4282.25 53.8442 50.0424 59.5729 49.7089
4285.17 36.8147 35.097 71.8215 67.2634
4288.08 14.6321 35.9696 70.3959 67.9593
4290.99 56.462 31.2281 61.6605 41.3477
4293.9 22.5901 61.277 -8.01338 50.9953
4296.81 104.779 66.5405 99.3386 56.1734
4299.72 72.2525 76.3822 77.195 63.074
4302.63 52.1152 54.5384 12.6884 35.0784
4305.54 39.2475 52.0817 15.3519 31.2007
4308.45 64.8823 52.7527 65.5617 47.9895
4311.37 54.1282 68.5365 63.055 58.4625
4314.28 86.5991 71.6626 46.7707 51.0835
4317.19 74.2607 91.0283 43.4247 54.084
4320.1 112.225 98.8679 72.0566 70.567
4323.01 110.118 98.6797 96.2196 62.1795
4325.92 73.6962 89.5222 18.2624 70.8392
4328.83 84.7526 82.4944 98.0356 63.6825
4331.74 89.0344 85.0409 74.7494 84.0629
4334.65 81.3358 86.2157 79.4037 74.5068
4337.56 88.2769 97.3509 69.3673 90.0784
4340.47 122.44 110.217 121.464 98.6466
4343.38 119.933 111.259 105.108 103.685
4346.29 91.4048 92.1481 84.4833 80.0015
4349.2 65.1066 82.5287 50.4131 61.1979
4352.11 91.0748 85.8298 48.6974 62.2725
4355.02 101.308 91.3746 87.7071 73.8562
4357.93 81.741 99.0448 85.164 91.9426
4360.84 114.085 101.145 102.957 100.466
4363.75 107.609 116.429 113.276 102.786
4366.66 127.592 122.252 92.1267 111.198
4369.57 131.556 121.866 128.19 97.2893
4372.48 106.449 119.647 71.551 98.0385
4375.39 120.936 103.669 94.3743 77.1073
4378.3 83.6225 89.1255 65.3967 77.0675
4381.21 62.8179 89.2399 71.4314 74.5873
4384.12 121.279 95.8285 86.9339 82.001
4387.03 103.388 118.543 87.6376 86.9844
4389.94 130.96 126.321 86.3818 94.8272
4392.85 144.614 131.924 110.462 106.608
4395.75 120.198 127.685 122.979 117.534
4398.66 118.244 113.249 119.16 100.721
4401.57 101.305 97.9259 60.0238 81.6223
4404.48 74.2292 94.1063 65.6834 74.4871
4407.39 106.785 97.4725 97.7541 86.1052
4410.3 111.404 111.259 94.8781 99.1669
4413.21 115.589 119.308 104.868 104.308
4416.12 130.932 117.666 113.178 100.285
4419.03 106.476 112.517 82.8097 88.5404
4421.93 100.141 109.187 69.6333 78.2435
4424.84 120.943 112.653 82.2876 91.6667
4427.75 116.875 120.175 123.079 105.519
4430.66 122.708 123.213 111.19 106.125
4433.57 130.055 123.025 84.1049 106.321
4436.48 116.311 125.582 123.669 91.8387
4439.38 130.382 128.013 67.7422 102.966
4442.29 137.345 135.044 117.487 102.073
4445.2 137.405 132.811 120.99 116.969
4448.11 123.684 129.543 112.429 116.455
4451.02 127.541 118.885 115.947 107.254
4453.92 105.43 108.666 93.3852 97.3172
4456.83 93.0282 91.5023 82.6194 86.0779
4459.74 76.0488 77.6224 82.2291 76.8641
4462.65 63.7903 99.3932 65.7439 94.5944
4465.56 158.34 120.816 135.81 112.744
4468.46 140.318 149.515 136.678 131.803
4471.37 149.886 152.068 122.921 136.567
4474.28 165.999 156.722 150.101 136.778
4477.19 154.28 148.863 137.313 128.837
4480.09 126.311 148.153 99.0961 134.022
4483 163.869 149.535 165.656 139.19
4485.91 158.427 152.053 152.818 147.654
4488.81 133.865 135.926 124.488 143.774
4491.72 115.488 129.967 154.017 139.29
4494.63 140.549 127.552 139.366 128.605
4497.54 126.618 152.798 92.4336 138.531
4500.44 191.226 164.945 183.795 147.661
4503.35 176.99 167.893 166.755 162.345
4506.26 135.462 165.046 136.487 161.268
4509.16 182.687 167.05 180.563 155.266
4512.07 183 170.795 148.748 154.153
4514.98 146.699 158.601 133.148 143.759
4517.88 146.103 151.864 149.382 143.833
4520.79 162.788 167.017 148.97 158.028
4523.7 192.158 170.48 175.732 161.461
4526.6 156.494 166.239 159.68 141.038
4529.51 150.066 142.302 87.7029 121.533
4532.41 120.347 146.905 117.217 128.132
4535.32 170.302 142.531 179.477 134.662
4538.23 136.945 155.52 107.293 147.139
4541.13 159.313 144.232 154.646 140.459
4544.04 136.438 146.538 159.439 151.973
4546.94 143.862 154.958 141.833 154.808
4549.85 184.575 159.272 163.152 148.05
4552.76 149.378 172.516 139.163 154.525
4555.66 183.596 152.292 161.259 141.777
4558.57 123.904 158.083 124.91 150.074
4561.47 166.748 151.584 164.053 146.668
4564.38 164.099 171.565 151.042 163.243
4567.28 183.849 165.268 174.636 148.883
4570.19 147.856 172.82 120.971 144.354
4573.1 186.755 167.549 137.454 130.945
4576 168.034 168.535 134.41 141.378
4578.91 150.815 157.779 152.269 135.262
4581.81 154.49 155.049 119.108 142.197
4584.72 159.842 172.694 155.215 142.388
4587.62 203.75 194.916 152.842 166.762
4590.53 221.157 201.253 192.23 169.671
4593.43 178.853 185.235 163.943 171.348
4596.34 155.694 173.318 157.873 175.487
4599.24 185.407 181.995 204.646 169.337
4602.14 204.885 191.406 145.492 170.214
4605.05 183.925 175.125 160.505 143.469
4607.95 136.566 156.568 124.409 140.02
4610.86 149.214 162.255 135.145 147.222
4613.76 200.986 181.869 182.112 166.069
4616.67 195.405 206.113 180.951 184.645
4619.57 221.949 210.682 190.873 184.127
4622.48 214.692 203.969 180.557 172.115
4625.38 175.266 203.065 144.916 180.512
4628.28 219.235 174.723 216.064 153.594
4631.19 129.666 164.74 99.8025 149.336
4634.09 145.319 157.204 132.14 140.661
4637 196.628 175.289 190.041 159.347
4639.9 183.921 173.028 155.859 153.267
4642.8 138.535 171.507 113.899 149.579
4645.71 192.063 167.908 178.98 156.228
4648.61 173.124 179.797 175.805 173.801
4651.51 174.203 175.824 166.618 180.964
4654.42 180.145 181.851 200.47 168.944
4657.32 191.205 172.774 139.744 161.184
4660.22 146.973 178.351 143.337 156.425
4663.13 196.876 176.271 186.194 176.923
4666.03 184.966 187.041 201.239 173.745
4668.93 179.28 175.9 133.802 158.431
4671.84 163.455 175.235 140.251 143.62
4674.74 182.969 173.131 156.807 144.199
4677.64 172.97 176.356 135.539 138.524
4680.55 173.129 194.786 123.226 159.156
4683.45 238.261 202.703 218.704 173.643
4686.35 196.721 198.22 178.999 185.521
4689.26 159.677 172.158 158.86 169.516
4692.16 160.075 167.691 170.689 170.43
4695.06 183.322 163.18 181.739 168.051
4697.96 146.142 165.728 151.725 167.526
4700.87 167.721 154.163 169.112 150.299
4703.77 148.627 160.639 130.059 140.855
4706.67 165.57 173.139 123.392 158.046
4709.57 205.221 185.63 220.686 179.16
4712.47 186.099 190.545 193.4 183.493
4715.38 180.314 195.004 136.392 180.915
4718.28 218.599 203.216 212.953 179.69
4721.18 210.736 207.39 189.724 203.623
4724.08 192.836 183.575 208.191 169.017
4726.98 147.154 172.266 109.137 162.162
4729.89 176.808 173.292 169.157 152.386
4732.79 195.913 193.542 178.865 177.132
4735.69 207.904 200.875 183.374 184.674
4738.59 198.807 191.061 191.784 169.67
4741.49 166.471 180.337 133.853 166.149
4744.39 175.732 186.32 172.81 157.961
4747.3 216.756 184.552 167.218 162.541
4750.2 161.167 196.159 147.595 168.635
4753.1 210.555 187.359 191.093 171.415
4756 190.356 171.224 175.559 163.814
4758.9 112.76 148.297 124.791 149.615
4761.8 141.774 154.819 148.496 170.1
4764.7 209.922 178.305 237.012 184.522
4767.6 183.217 206.856 168.057 201.347
4770.5 227.428 210.209 198.971 198.597
4773.4 219.981 217.025 228.763 200.233
4776.31 203.667 202.996 172.965 189.673
4779.21 185.339 181.636 167.291 169.826
4782.11 155.903 152.744 169.222 157.578
4785.01 116.991 165.756 136.221 164.25
4787.91 224.375 171.214 187.306 167.439
4790.81 172.277 195.735 178.791 181.343
4793.71 190.552 203.207 177.933 199.56
4796.61 246.793 190.886 241.956 183.789
4799.51 135.314 196.742 131.479 184.452
4802.41 208.118 172.434 179.922 157.286
4805.31 173.869 195.46 160.459 191.48
4808.21 204.393 188.989 234.06 186.275
4811.11 188.705 184.756 164.307 187.111
4814.01 161.169 180.215 162.966 168.16
4816.91 190.772 182.793 177.209 170.238
4819.81 196.437 186.969 170.541 171.035
4822.71 173.698 179.401 165.356 159.344
4825.61 168.066 186.498 142.135 164.944
4828.51 217.73 204.917 187.342 174.855
4831.4 228.955 195.098 195.089 167.43
4834.3 138.61 196.54 119.859 164.234
4837.2 222.055 168.083 177.754 139.753
4840.1 143.583 182.906 121.646 150.191
4843 183.08 168.457 151.174 154.841
4845.9 178.709 181.716 191.702 176.695
4848.8 183.358 183.935 187.209 174.096
4851.7 189.739 194.254 143.375 186.041
4854.6 209.665 204.466 227.539 197.842
4857.5 213.994 194.945 222.611 205.656
4860.39 161.175 173.111 166.817 177.41
4863.29 144.163 166.765 142.802 157.571
4866.19 194.957 170.272 163.095 158.627
4869.09 171.696 184.479 169.984 175.025
4871.99 186.784 169.58 191.997 166.761
4874.89 150.26 167.044 138.301 160.275
4877.78 164.087 166.745 150.526 155.922
4880.68 185.888 173.839 178.94 172.788
4883.58 171.541 192.661 188.898 197.205
4886.48 220.553 183.423 223.776 186.75
4889.38 158.175 172.924 147.577 168.402
4892.27 140.043 165.239 133.853 167.027
4895.17 197.498 199.647 219.652 201.069
4898.07 261.401 219.494 249.701 212.024
4900.97 199.583 211.314 166.718 190.601
4903.87 172.958 205.316 155.384 192.411
4906.76 243.407 205.956 255.131 206.873
4909.66 201.503 208.273 210.104 218.781
4912.56 179.909 181.699 191.109 182.525
4915.45 163.684 173.408 146.362 171.442
4918.35 176.632 179.805 176.854 174.5
4921.25 199.099 184.354 200.283 187.666
4924.15 177.33 195.662 185.86 193.441
4927.04 210.556 192.37 194.181 189.541
4929.94 189.222 213.57 188.582 203.384
4932.84 240.93 205.307 227.388 198.66
4935.73 185.767 226.52 180.011 206.899
4938.63 252.863 211.759 213.299 193.735
4941.53 196.647 204.668 187.896 182.883
4944.42 164.495 197.391 147.455 191.977
4947.32 231.031 203.378 240.579 196.265
4950.22 214.608 218.833 200.76 215.184
4953.11 210.861 218.879 204.212 208.706
4956.01 231.169 219.48 221.146 210.12
4958.91 216.411 221.473 205.003 223.732
4961.8 216.839 202.402 245.049 203.965
4964.7 173.957 204.846 161.842 203.737
4967.59 223.744 211.197 204.32 200.883
4970.49 235.889 226.505 236.486 215.682
4973.39 219.883 219.094 206.238 217.613
4976.28 201.51 203.3 210.115 211.383
4979.18 188.506 192.85 217.797 196.953
4982.07 188.535 191.485 162.947 187.648
4984.97 197.413 198.319 182.201 193.813
4987.86 209.01 207.481 236.293 205.856
4990.76 216.02 193.737 199.074 197.443
4993.65 156.182 191.519 156.962 180.2
4996.55 202.354 183.356 184.564 171.999
4999.44 191.532 180.071 174.471 166.287
5002.34 146.328 176.361 139.825 172.109
5005.23 191.223 179.609 202.032 173.119
5008.13 201.278 201.256 177.5 197.155
5011.02 211.267 202.34 211.934 191.785
5013.92 194.474 201.497 185.923 201.955
5016.81 198.75 203.943 208.009 200.915
5019.71 218.604 226.767 208.812 214.783
5022.6 262.945 240.86 227.528 213.523
5025.5 241.03 250.934 204.23 210.855
5028.39 248.825 230.528 200.808 191.83
5031.29 201.729 207.54 170.451 186.785
5034.18 172.065 190.004 189.097 166.14
5037.07 196.217 197.104 138.873 188.577
5039.97 223.031 204.398 237.76 195.176
5042.86 193.945 217.96 208.896 226.822
5045.76 236.904 201.604 233.81 199.511
5048.65 173.962 196.601 155.826 189.607
5051.54 178.938 173.165 179.185 161.622
5054.44 166.595 217.803 149.854 206.192
5057.33 307.876 232.007 289.538 212.158
5060.22 221.551 243.751 197.082 220.431
5063.12 201.825 227.953 174.671 214.368
5066.01 260.484 208.472 271.349 211.459
5068.9 163.106 191.043 188.357 216.465
5071.8 149.54 163.637 189.688 179.222
5074.69 178.266 166.316 159.621 175.674
5077.58 171.141 174.847 177.713 167.156
5080.48 175.135 172.573 164.133 157.783
5083.37 171.444 178.699 131.502 156.865
5086.26 189.517 179.611 174.961 152.658
5089.16 177.873 191.641 151.51 176.075
5092.05 207.532 197.027 201.753 177.432
5094.94 205.676 216.36 179.031 192.364
5097.83 235.871 222.85 196.307 186.418
5100.73 227.002 224.534 183.916 182.416
5103.62 210.73 201.732 167.024 172.105
5106.51 167.463 194.239 165.374 177.61
5109.4 204.523 186.627 200.432 179.183
5112.29 187.896 183.863 171.742 176.639
5115.19 159.169 163.384 157.743 154.429
5118.08 143.086 171.299 133.8 154.123
5120.97 211.641 188.944 170.826 161.804
5123.86 212.106 199.771 180.784 174.903
5126.75 175.567 191.891 173.099 182.593
5129.65 187.999 181.732 193.897 171.021
5132.54 181.628 194.174 146.068 181.101
5135.43 212.894 196.048 203.339 167.072
5138.32 193.623 192.72 151.809 159.584
5141.21 171.643 189.017 123.605 142.108
5144.1 201.785 182.822 150.912 148.151
5146.99 175.038 185.259 169.937 157.138
5149.89 178.954 180.66 150.567 163.447
5152.78 187.988 200.58 169.838 165.338
5155.67 234.797 191.144 175.609 155.519
5158.56 150.646 191.695 121.109 158.086
5161.45 189.643 150.689 177.541 130.779
5164.34 111.779 153.398 93.6873 133.432
5167.23 158.773 118.739 129.067 97.867
5170.12 85.6642 115.026 70.8473 88.3845
5173.01 100.642 93.1625 65.2396 86.0152
5175.9 93.1815 119.863 121.959 119.097
5178.79 165.765 141.077 170.094 142.199
5181.68 164.285 158.179 134.543 139.971
5184.57 144.486 167.715 115.276 139.344
5187.46 194.375 169.938 168.213 158.568
5190.35 170.952 193.235 192.216 195.729
5193.24 214.377 197.267 226.758 208.729
5196.13 206.473 208.747 207.213 207.682
5199.02 205.39 195.481 189.073 189.334
5201.91 174.579 175.627 171.716 168.96
5204.8 146.913 147.624 146.09 131.353
5207.69 121.38 151.415 76.2522 134.877
5210.58 185.952 183.179 182.289 172.105
5213.47 242.205 210.346 257.773 222.643
5216.36 202.881 237.026 227.867 252.324
5219.25 265.993 222.344 271.332 231.885
5222.14 198.158 231.55 196.455 225.8
5225.03 230.498 216.267 209.614 206.142
5227.91 220.143 229.874 212.358 221.699
5230.8 238.981 227.358 243.124 219.73
5233.69 222.949 214.906 203.707 208.579
5236.58 182.788 226.968 178.905 211.654
5239.47 275.167 236.67 252.35 226.261
5242.36 252.056 261.67 247.527 242.831
5245.25 257.788 252.4 228.615 236.006
5248.13 247.355 245.318 231.875 224.646
5251.02 230.81 227.666 213.449 210.41
5253.91 204.831 229.66 185.905 200.298
5256.8 253.34 231.535 201.54 195.307
5259.69 236.433 237.046 198.475 204.946
5262.58 221.364 209.999 214.824 189.73
5265.46 172.199 215.584 155.889 207.332
5268.35 253.19 190.378 251.283 200.579
5271.24 145.744 222.361 194.565 243.941
5274.13 268.149 219.054 285.974 233.247
5277.01 243.269 246.923 219.204 255.463
5279.9 229.353 239.113 261.211 241.833
5282.79 244.718 251.386 245.085 258.892
5285.68 280.086 244.891 270.379 242.21
5288.56 209.87 238.213 211.167 224.529
5291.45 224.684 235.561 192.04 230.877
5294.34 272.129 239.146 289.426 233.948
5297.22 220.625 255.767 220.378 261.911
5300.11 274.548 244.842 275.93 246.011
5303 239.352 264.623 241.724 266.572
5305.88 279.967 256.776 282.061 272.88
5308.77 251.007 269.376 294.854 298.219
5311.66 277.153 268.777 317.741 301.219
5314.54 278.17 269.893 291.062 305.297
5317.43 254.356 265.065 307.088 290.046
5320.32 262.668 235.47 271.989 270.728
5323.2 189.385 223.705 233.107 255.512
5326.09 219.061 228.212 261.44 260.823
5328.97 276.19 253.03 287.921 276.682
5331.86 263.838 242.45 280.683 262.153
5334.75 187.321 244.216 217.854 263.482
5337.63 281.488 242.025 291.909 256.282
5340.52 257.267 263.129 259.084 269.837
5343.4 250.633 246.666 258.518 245.132
5346.29 232.098 259.052 217.795 255.315
5349.17 294.423 259.135 289.632 253.094
5352.06 250.882 268.879 251.855 283.104
5354.94 261.33 272.105 307.824 288.914
5357.83 304.102 289.547 307.064 302.556
5360.71 303.21 301.09 292.78 304.732
5363.6 295.959 300.139 314.351 298.986
5366.48 301.247 297.698 289.826 312.936
5369.37 295.887 284.739 334.632 293.601
5372.25 257.082 262.064 256.346 281.184
5375.14 233.223 248.64 252.574 268.647
5378.02 255.615 241.187 297.02 269.017
5380.91 234.724 242.692 257.458 286.853
5383.79 237.739 239.906 306.081 269.275
5386.67 247.256 245.051 244.288 273.726
5389.56 250.159 259.055 270.81 280.984
5392.44 279.75 252.084 327.855 294.123
5395.33 226.344 273.138 283.704 323.767
5398.21 313.321 251.077 359.743 291.959
5401.09 213.565 258.86 232.429 282.708
5403.98 249.693 246.148 255.953 268.692
5406.86 275.186 258.446 317.694 291.397
5409.75 250.458 248.396 300.543 292.641
5412.63 219.544 255.554 259.685 300.03
5415.51 296.661 298.875 339.863 340.776
5418.4 380.419 326.626 422.781 376.767
5421.28 302.798 320.102 367.658 369.763
5424.16 277.09 281.138 318.851 318.54
5427.04 263.526 273.286 269.113 298.821
5429.93 279.243 274.331 308.501 289.782
5432.81 280.225 278.146 291.733 305.014
5435.69 274.969 280.417 314.81 313.601
5438.58 286.058 275.075 334.26 315.224
5441.46 264.198 273.259 296.602 309.289
5444.34 269.522 264.799 297.006 303.853
5447.22 260.679 270.509 317.95 315.091
5450.1 281.327 281.191 330.316 333.881
5452.99 301.567 295.981 353.377 352.425
5455.87 305.049 273.663 373.581 328.812
5458.75 214.375 231.808 259.479 324.675
5461.63 175.999 224.036 340.965 318.682
5464.51 281.735 226.167 355.604 317.651
5467.4 220.766 267.887 256.383 315.09
5470.28 301.16 235.282 333.283 313.798
5473.16 183.919 235.827 351.727 329.034
5476.04 222.401 238.279 302.092 349.216
5478.92 308.516 238.879 393.829 354.395
5481.8 185.722 268.625 367.263 370.48
5484.68 311.639 224.045 350.349 355.775
5487.57 174.776 255.61 349.714 349.949
5490.45 280.416 249.586 349.784 349.001
5493.33 293.565 275.585 347.504 351.65
5496.21 252.772 288.791 357.664 359.95
5499.09 320.036 282.646 374.681 352.663
5501.97 275.131 295.948 325.644 355.328
5504.85 292.676 269.561 365.659 346.184
5507.73 240.876 252.615 347.25 347.18
5510.61 224.293 241.946 328.632 334.562
5513.49 260.67 210.672 327.803 326.125
5516.37 147.052 214.314 321.938 324.671
5519.25 235.221 213.517 324.272 326.594
5522.13 258.28 233.012 333.572 304.196
5525.01 205.535 250.998 254.743 307.371
5527.89 289.179 268.497 333.797 330.505
5530.77 310.778 261.047 402.977 379.164
5533.65 183.183 258.249 400.718 383.999
5536.53 280.785 200.841 348.301 366.481
5539.41 138.557 184.708 350.423 348.401
5542.29 134.784 164.887 346.48 373.992
5545.17 221.322 224.016 425.074 390.123
5548.05 315.942 285.338 398.816 394.643
5550.93 318.75 312.908 360.038 373.683
5553.8 304.033 306.752 362.194 346.001
5556.68 297.472 287.379 315.77 335.102
5559.56 260.632 237.323 327.342 344.464
5562.44 153.866 227.066 390.28 358.851
5565.32 266.701 223.592 358.93 361.567
5568.2 250.209 280.597 335.489 363.336
5571.08 324.879 272.9 395.588 295.282
5573.95 243.612 261.006 154.769 204.262
5576.83 214.526 216.307 62.4308 110.182
5579.71 190.785 191.216 113.345 111.739
5582.59 168.339 65.0652 159.442 163.445
5585.47 -163.928 -5.73443 217.548 219.611
5588.34 -21.614 -68.4706 281.843 261.106
5591.22 -19.8701 64.1199 283.927 311.255
5594.1 233.844 95.1616 367.993 335.57
5596.98 71.5112 181.969 354.788 346.587
5599.85 240.552 202.145 316.979 351.003
5602.73 294.372 276.533 381.241 356.422
5605.61 294.675 272.436 371.044 385.841
5608.48 228.262 269.635 405.237 361.88
5611.36 285.968 263.462 309.359 353.484
5614.24 276.156 240.298 345.858 336.962
5617.12 158.771 241.161 355.67 348.249
5619.99 288.557 202.223 343.22 350.085
5622.87 159.34 252.717 351.363 339.16
5625.75 310.253 249.909 322.896 336.991
5628.62 280.133 285.272 336.714 331.625
5631.5 265.43 249.287 335.265 363.548
5634.37 202.3 250.073 418.666 376.23
5637.25 282.49 254.003 374.761 389.122
5640.13 277.219 299.73 373.939 377.55
5643 339.482 268.006 383.95 377.092
5645.88 187.318 286.601 373.386 386.546
5648.75 333.003 225.149 402.303 368.671
5651.63 155.125 193.194 330.325 328.465
5654.5 91.4535 195.288 252.768 327.091
5657.38 339.285 257.389 398.181 358.749
5660.26 341.428 319.675 425.298 377.479
5663.13 278.312 306.752 308.958 371.862
5666.01 300.517 285.072 381.329 351.47
5668.88 276.386 296.888 364.123 374.725
5671.76 313.762 285.68 378.722 362.38
5674.63 266.892 289.09 344.294 349.945
5677.51 286.616 282.154 326.818 336.899
5680.38 292.954 322.743 339.585 377.004
5683.25 388.659 331.358 464.609 407.03
5686.13 312.461 341.65 416.895 434.789
5689 323.829 318.226 422.863 398.718
5691.88 318.388 353.441 356.396 426.736
5694.75 418.107 289.791 500.949 382.889
5697.63 132.879 295.796 291.323 405.678
5700.5 336.402 231.424 424.762 336.006
5703.37 224.992 308.54 291.932 368.134
5706.25 364.225 298.619 387.708 344.849
5709.12 306.64 308.556 354.908 347.416
5711.99 254.803 290.929 299.631 332.534
5714.87 311.344 287.604 343.061 334.439
5717.74 296.665 312.349 360.626 358.517
5720.61 329.036 313.474 371.863 374.85
5723.49 314.72 303.931 392.061 362.24
5726.36 268.037 232.539 322.797 340.859
5729.23 114.859 223.339 307.718 322.388
5732.11 287.12 228.812 336.648 322.295
5734.98 284.458 294.205 322.52 338.353
5737.85 311.036 312.242 355.891 347.224
5740.72 341.232 324.721 363.26 378.656
5743.6 321.896 316.262 416.817 388.306
5746.47 285.659 322.895 384.843 416.61
5749.34 361.129 331.099 448.172 419.025
5752.21 346.509 282.494 424.062 396.646
5755.08 139.845 261.059 317.704 374.157
5757.96 296.822 242.796 380.706 348.098
5760.83 291.72 293.926 345.884 365.675
5763.7 293.237 300.617 370.435 377.229
5766.57 316.893 297.878 415.368 387.252
5769.44 283.505 275.013 375.954 394.011
5772.31 224.64 221.66 390.711 389.404
5775.18 156.835 217.561 401.548 375.941
5778.06 271.208 227.655 335.563 349.678
5780.93 254.923 266.46 311.921 328.6
5783.8 273.249 282.514 338.315 335.325
5786.67 319.371 305.618 355.739 352.59
5789.54 324.234 302.108 363.718 338.961
5792.41 262.72 331.987 297.425 381.611
5795.28 409.008 351.104 483.69 410.842
5798.15 381.584 368.121 451.41 432.197
5801.02 313.77 360.922 361.492 419.882
5803.89 387.413 321.324 446.745 371.706
5806.76 262.788 306.181 306.88 360.968
5809.63 268.342 250.526 329.28 346.864
5812.5 220.447 292.997 404.433 399.364
5815.37 390.202 317.483 464.379 424.077
5818.24 341.8 361.695 403.419 433.411
5821.11 353.083 340.937 432.436 399.524
5823.98 327.928 348.418 362.716 414.811
5826.85 364.243 338.372 449.28 401.464
5829.72 322.946 292.439 392.395 399.071
5832.59 190.127 266.571 355.54 371.983
5835.46 286.639 218.003 368.016 378.058
5838.32 177.243 258.662 410.617 399.146
5841.19 312.106 214.376 418.804 392.511
5844.06 153.779 220.752 348.111 373.722
5846.93 196.371 218.329 354.25 340.408
5849.8 304.837 271.371 318.864 350.719
5852.67 312.905 316.257 379.042 363.585
5855.54 331.028 328.957 392.85 406.227
5858.4 342.938 317.618 446.788 385.196
5861.27 278.888 303.512 315.95 383.443
5864.14 288.711 236.19 387.592 366.531
5867.01 140.97 174.748 396.052 357.408
5869.88 94.5631 193.529 288.58 342.879
5872.74 345.054 244.335 344.005 331.015
5875.61 293.389 253.511 360.461 368.152
5878.48 122.09 165.258 399.991 366.891
5881.35 80.2938 147.577 340.222 318.547
5884.21 240.346 187.717 215.426 273.034
5887.08 242.511 202.696 263.453 195.158
5889.95 125.23 55.8005 106.596 201.489
5892.81 -200.339 56.0408 234.417 217.969
5895.68 243.232 77.8412 312.894 275.693
5898.55 190.631 231.297 279.768 316.24
5901.41 260.029 279.115 356.058 358.455
5904.28 386.685 328.264 439.54 388.125
5907.15 338.077 355.738 368.776 420.768
5910.01 342.452 324.719 453.987 408.271
5912.88 293.628 320.64 402.049 427.748
5915.74 325.841 276.778 427.209 357.244
5918.61 210.866 308.677 242.473 386.423
5921.48 389.324 301.756 489.586 382.98
5924.34 305.077 335.104 416.882 422.575
5927.21 310.91 320.967 361.258 397.314
5930.07 346.912 323.466 413.801 379.385
5932.94 312.575 319.263 363.097 374.583
5935.8 298.3 307.142 346.852 364.213
5938.67 310.549 307.619 382.689 378.47
5941.53 314.008 324.868 405.869 413.437
5944.4 350.049 329.05 451.754 413.24
5947.26 323.092 333.564 382.097 401.781
5950.13 327.55 329.94 371.492 382.536
5952.99 339.178 350.83 394.019 397.134
5955.86 385.762 340.076 425.889 398.779
5958.72 295.288 336.462 376.428 397.31
5961.58 328.336 346.917 389.613 413.126
5964.45 417.127 356.097 473.337 413.065
5967.31 322.828 331.764 376.246 440.553
5970.18 255.336 292.162 472.075 397.245
5973.04 298.322 274.056 343.412 386.597
5975.9 268.508 291.634 344.305 365.816
5978.77 308.072 302.901 409.732 388.296
5981.63 332.124 301.629 410.851 410.03
5984.49 264.69 273.631 409.506 423.615
5987.36 224.08 256.392 450.487 408.367
5990.22 280.407 289.228 365.108 394.22
5993.08 363.197 301.829 367.066 395.142
5995.94 261.882 262.913 453.251 399.127
5998.81 163.661 254.4 377.063 415.03
6001.67 337.657 284.684 414.776 403.286
6004.53 352.734 304.983 418.017 418.766
6007.39 224.559 291.54 423.503 402.825
6010.26 297.326 268.09 366.954 371.64
6013.12 282.385 294.95 324.464 363.066
6015.98 305.139 303.993 397.779 382.927
6018.84 324.456 302.814 426.538 376.757
6021.7 278.848 249.568 305.955 344.57
6024.57 145.4 267.37 301.218 340.598
6027.43 377.863 287.144 414.62 364.838
6030.29 338.17 339.113 378.676 382.149
6033.15 301.306 275.812 353.152 363.84
6036.01 187.961 277.83 359.694 366.106
6038.87 344.224 274.1 385.472 375.004
6041.73 290.115 312.652 379.847 372.165
6044.59 303.618 269.09 351.178 387.582
6047.45 213.537 236.385 431.722 388.669
6050.31 192 203.55 383.106 407.148
6053.18 205.112 255.696 406.615 424.504
6056.04 369.976 267.485 483.792 431.678
6058.9 227.367 307.428 404.626 415.72
6061.76 324.941 309.599 358.742 396.717
6064.62 376.489 338.978 426.784 392.677
6067.48 315.503 344.855 392.506 408.208
6070.34 342.573 332.279 405.335 413.881
6073.2 338.76 350.235 443.802 431.789
6076.05 369.372 313.33 446.232 442.902
6078.91 231.856 277.869 438.673 414.627
6081.77 232.377 263.441 358.978 399.378
6084.63 326.09 245.134 400.483 375.399
6087.49 176.933 280.294 366.736 397.786
6090.35 337.858 290.076 426.139 397.403
6093.21 355.438 313.965 399.335 389.389
6096.07 248.598 318.561 342.692 382.472
6098.93 351.647 302.692 405.389 367.565
6101.78 307.83 337.878 354.614 393.857
6104.64 354.157 323.37 421.567 374.99
6107.5 308.123 262.644 348.79 366.166
6110.36 125.654 232.237 328.14 321.259
6113.22 262.935 182.462 286.847 324.418
6116.07 158.796 257.922 358.268 352.419
6118.93 352.036 264.233 412.141 367.366
6121.79 281.867 308.196 331.69 363.155
6124.65 290.685 312.161 345.635 364.051
6127.5 363.931 278.542 414.827 363.84
6130.36 181.01 288.63 331.057 372.547
6133.22 320.95 272.356 371.755 346.231
6136.08 315.108 312.391 335.881 359.004
6138.93 301.117 322.414 369.377 366.571
6141.79 351.017 323.656 394.457 390.561
6144.65 318.833 320.226 407.849 376.733
6147.5 290.829 325.522 327.893 378.645
6150.36 366.904 313.461 400.193 363.124
6153.22 282.651 261.757 361.285 366.2
6156.07 135.716 219.589 337.122 330.207
6158.93 240.399 204.614 292.215 316.991
6161.78 237.728 263.66 321.637 332.691
6164.64 312.854 289.586 384.222 351.312
6167.49 318.175 264.332 348.075 354.492
6170.35 161.966 221.064 331.178 348.448
6173.21 183.052 178.819 366.09 350.116
6176.06 191.438 238.024 353.081 367.928
6178.92 339.581 242.184 384.612 382.841
6181.77 195.533 286.131 410.83 391.552
6184.63 323.28 268.362 379.214 370.461
6187.48 286.273 279.371 321.34 377.719
6190.33 228.561 268.906 432.603 382.993
6193.19 291.882 295.39 395.035 414.031
6196.04 365.725 284.541 414.455 420.42
6198.9 196.014 277.816 451.768 399.614
6201.75 271.709 259.675 332.619 381.602
6204.61 311.301 297.437 360.418 349.211
6207.46 309.301 289.496 354.597 334.51
6210.31 247.887 284.239 288.515 328.497
6213.17 295.528 244.817 342.381 328.035
6216.02 191.037 251.482 353.21 334.38
6218.87 267.882 255.026 307.551 343.004
6221.73 306.161 303.72 368.251 353.613
6224.58 337.118 284.473 385.038 336.636
6227.43 210.139 271.437 256.618 311.957
6230.29 267.054 254.058 294.215 286.234
6233.14 284.982 285.711 307.868 305.34
6235.99 305.097 318.036 313.938 335.168
6238.84 364.029 332.798 383.698 350.34
6241.7 329.267 338.916 353.383 372.8
6244.55 323.452 325.799 381.319 378.012
6247.4 324.678 328.773 399.335 401.283
6250.25 338.189 307.748 423.196 382.557
6253.1 260.378 284.674 325.141 356.593
6255.96 255.456 259.307 321.442 309.493
6258.81 262.087 260.609 281.896 293.933
6261.66 264.283 281.37 278.461 308.578
6264.51 317.741 287.099 365.377 330.592
6267.36 279.274 307.809 347.939 366.562
6270.21 326.413 307.217 386.37 366.697
6273.06 315.965 306.781 365.781 369.451
6275.91 277.964 278.376 356.201 335.144
6278.76 241.2 205.724 283.45 318.006
6281.61 98.0096 223.417 314.367 314.821
6284.46 331.042 233.378 346.646 324.796
6287.32 271.084 287.766 313.375 345.296
6290.17 261.171 275.616 375.868 327.557
6293.02 294.592 257.575 293.427 234.828
6295.87 216.963 254.809 35.189 125.924
6298.71 252.873 213.69 49.1572 39.8707
6301.56 171.233 228.13 35.266 66.4699
6304.41 260.285 220.129 114.986 132.816
6307.26 228.869 278.457 248.197 247.737
6310.11 346.219 298.617 380.028 338.068
6312.96 320.762 322.501 385.98 384.384
6315.81 300.522 247.917 387.145 389.89
6318.66 122.467 237.565 396.545 393.695
6321.51 289.706 244.144 397.395 407.784
6324.36 320.261 241.881 429.412 391.973
6327.2 115.677 244.626 349.111 375.157
6330.05 297.941 258.4 346.948 383.482
6332.9 361.582 274.838 454.387 387.708
6335.75 164.992 265.212 361.789 385.987
6338.6 269.062 228.682 341.786 353.077
6341.44 251.991 274.634 355.657 370.743
6344.29 302.85 271.88 414.788 368.888
6347.14 260.798 254.788 336.22 398.955
6349.99 200.718 257.804 445.856 392.774
6352.83 311.897 297.278 396.245 430.673
6355.68 379.219 243.071 449.918 412.089
6358.53 38.096 218.907 390.103 369.41
6361.37 239.406 194.993 268.21 312.409
6364.22 307.476 262.146 278.915 286.252
6367.07 239.555 272.879 311.63 327.771
6369.91 271.606 231.985 392.766 327.351
6372.76 184.795 208.198 277.657 370.015
6375.61 168.192 216.789 439.62 376.435
6378.45 297.379 241.604 412.028 396.563
6381.3 259.241 288.898 338.04 382.434
6384.14 310.075 231.948 397.234 357.452
6386.99 126.527 245.976 337.081 375.439
6389.84 301.325 231.824 392.002 365.284
6392.68 267.622 245.155 366.767 380.001
6395.53 166.518 239.578 381.234 368.872
6398.37 284.595 246.674 358.614 364.742
6401.22 288.91 298.685 354.376 383.82
6404.06 322.551 297.312 438.47 384.69
6406.91 280.475 245.452 361.223 363.792
6409.75 133.331 232.985 291.682 342.878
6412.59 285.149 240.959 375.728 356.699
6415.44 304.396 283.096 402.686 370.215
6418.28 259.742 289.066 332.23 371.377
6421.13 303.059 279.106 379.214 354.166
6423.97 274.518 295.834 351.054 376.638
6426.81 309.926 282.255 399.647 371.318
6429.66 262.319 283.343 363.252 390.868
6432.5 277.783 267.754 409.704 396.436
6435.34 263.161 274.375 416.352 399.559
6438.19 282.181 291.233 372.622 402.826
6441.03 328.358 305.156 419.503 398.118
6443.87 304.928 273.762 402.228 399.3
6446.72 187.999 267.74 376.17 404.98
6449.56 310.292 232.52 436.541 408.607
6452.4 199.267 214.602 413.111 399.347
6455.24 134.245 200.947 348.389 384.466
6458.08 269.329 175.997 391.898 364.632
6460.93 124.417 218.324 353.609 352.996
6463.77 261.225 227.095 313.48 347.365
6466.61 295.644 244.282 375.006 369.862
6469.45 175.977 257.756 421.101 394.647
6472.29 301.646 270.661 387.834 413.714
6475.13 334.361 300.965 432.206 392.91
6477.98 266.887 243.933 358.691 374.293
6480.82 130.552 233.949 331.981 361.512
6483.66 304.409 254.395 393.865 379.93
6486.5 328.226 304.956 413.945 406.282
6489.34 282.235 243.108 411.035 375.936
6492.18 118.864 168.773 302.827 361.837
6495.02 105.219 164.499 371.648 322.908
6497.86 269.414 144.997 294.249 310.313
6500.7 60.3583 222.463 265.04 335.235
6503.54 337.616 232.99 446.415 358.868
6506.38 300.995 299.266 365.148 383.039
6509.22 259.187 287.122 337.554 365.257
6512.06 301.183 249.497 393.07 372.678
6514.9 188.122 263.4 387.41 396.762
6517.74 300.897 243.629 409.806 378.741
6520.57 241.869 264.67 339.007 404.673
6523.41 251.244 228.704 465.207 405.821
6526.25 192.999 263.051 413.248 440.862
6529.09 344.91 220.742 444.133 415.599
6531.93 124.318 268.999 389.416 410.44
6534.77 337.769 265.52 397.771 409.449
6537.61 334.473 325.71 441.161 412.204
6540.44 304.887 335.389 397.68 436.874
6543.28 366.808 338.583 471.78 432.223
6546.12 344.055 341.311 427.21 444.292
6548.96 313.069 264.43 433.886 419.784
6551.79 136.166 259.261 398.257 413.781
6554.63 328.547 247.368 409.201 392.653
6557.47 277.392 300.799 370.502 366.164
6560.3 296.46 307.478 318.789 377.816
6563.14 348.583 319.855 444.157 388.007
6565.98 314.524 318.524 401.075 395.587
6568.81 292.467 308.435 341.528 381.032
6571.65 318.314 240.532 400.493 350.846
6574.49 110.815 229.106 310.516 345.138
6577.32 258.188 235.356 324.406 348.934
6580.16 337.064 291.145 411.88 374.206
6582.99 278.183 253.45 386.331 378.473
6585.83 145.104 191.217 337.207 374.804
6588.67 150.366 184.392 400.873 366.123
6591.5 257.707 209.704 360.289 396.293
6594.34 221.039 254.445 427.717 386.093
6597.17 284.59 260.166 370.272 377.841
6600.01 274.869 296.348 335.533 372.132
6602.84 329.586 289.84 410.591 365.908
6605.68 265.064 254.159 351.601 379.118
6608.51 167.827 243.769 375.162 378.152
6611.34 298.416 217.741 407.693 385.41
6614.18 186.981 271.107 373.375 392.714
6617.01 327.924 265.617 397.073 387.905
6619.85 281.945 303.045 393.268 382.318
6622.68 299.265 293.196 356.613 380.268
6625.51 298.378 314.721 390.924 409.533
6628.35 346.52 320.1 481.063 408.186
6631.18 315.402 275.387 352.572 389.772
6634.01 164.237 257.057 335.682 341.875
6636.85 291.533 215.223 337.369 330.271
6639.68 189.9 234.627 317.761 345.935
6642.51 222.448 228.631 382.674 342.21
6645.34 273.545 250.586 326.195 339.154
6648.18 255.766 284.436 308.593 333.444
6651.01 323.996 268.615 365.542 361.821
6653.84 226.084 278.322 411.326 373.514
6656.67 284.885 239.877 343.673 379.085
6659.5 208.662 236.097 382.255 363.341
6662.33 214.742 243.106 364.095 403.1
6665.17 305.912 267.796 462.948 386.159
6668 282.735 303.535 331.433 382.869
6670.83 321.957 262.754 354.226 340.964
6673.66 183.569 268.802 337.232 356.191
6676.49 300.878 264.009 377.116 363.832
6679.32 307.58 294.05 377.15 353.628
6682.15 273.692 298.812 306.618 350.542
6684.98 315.165 281.505 367.859 337.525
6687.81 255.659 266.003 338.098 364.041
6690.64 227.184 268.087 386.166 363.189
6693.47 321.418 272.766 365.301 352.637
6696.3 269.697 300.505 306.444 347.536
6699.13 310.401 293.494 370.864 335.255
6701.96 300.383 283.033 328.456 330.252
6704.79 238.317 281.465 291.436 317.272
6707.62 305.695 276.74 331.923 319.755
6710.45 286.207 286.968 335.906 341.522
6713.28 269.003 291.595 356.736 341.358
6716.1 319.575 296.817 331.433 353.171
6718.93 301.872 316.557 371.343 364.761
6721.76 328.223 307.711 391.508 370.552
6724.59 293.038 323.58 348.805 367.552
6727.42 349.48 323.217 362.343 356.854
6730.24 327.132 326.755 359.413 359.066
6733.07 303.653 311.727 355.442 356.007
6735.9 304.395 286.917 353.165 363.916
6738.73 252.705 262.114 383.141 336.94
6741.55 229.243 258.211 274.513 321.826
6744.38 292.687 277.028 307.823 316.871
6747.21 309.153 258.877 368.276 324.318
6750.04 174.792 260.534 296.856 345.012
6752.86 297.656 264.714 369.903 348.733
6755.69 321.693 310.268 379.441 369.379
6758.51 311.457 297.099 358.792 342.14
6761.34 258.147 255.661 288.186 325.844
6764.17 197.378 248.576 330.554 321.62
6766.99 290.204 265.175 346.12 340.096
6769.82 307.944 281.542 343.614 326.044
6772.64 246.477 301.117 288.399 338.669
6775.47 348.931 262.548 383.993 329.391
6778.29 192.235 292.205 315.78 357.862
6781.12 335.449 307.055 373.814 372.379
6783.94 393.481 309.498 427.542 376.285
6786.77 199.563 266.643 327.497 364.318
6789.59 206.884 216.947 337.914 310.954
6792.42 244.394 250.237 267.45 305.037
6795.24 299.432 297.249 309.746 320.509
6798.06 347.921 321.665 384.33 341.489
6800.89 317.642 318.935 330.391 354.728
6803.71 291.242 306.235 349.462 336.689
6806.53 309.821 271.508 330.213 340.474
6809.36 213.459 273.439 341.747 341.576
6812.18 297.038 226.665 352.768 331.375
6815 169.5 215.467 299.611 318.01
6817.83 179.864 212.475 301.65 318.26
6820.65 288.06 275.609 353.52 357.416
6823.47 358.902 302.194 417.078 362.008
6826.29 259.619 295.258 315.427 333.094
6829.12 267.254 279.665 266.777 305.647
6831.94 312.121 303.751 334.737 291.577
6834.76 331.878 311.647 273.215 311.596
6837.58 290.942 293.534 326.837 316.696
6840.4 257.78 283.911 350.036 349.48
6843.22 303.009 284.345 371.568 342.981
6846.05 292.246 296.352 307.338 324.914
6848.87 293.8 275.091 295.836 287.12
6851.69 239.225 204.386 258.186 292.844
6854.51 80.1328 193.249 324.51 296.467
6857.33 260.39 207.268 306.704 306.493
6860.15 281.282 194.895 288.263 284.215
6862.97 43.0125 87.8974 257.679 244.926
6865.79 -60.6025 0.23846 188.836 227.169
6868.61 18.3054 49.8555 234.992 211.132
6871.43 191.864 101.96 209.567 218.292
6874.25 95.7098 168.814 210.317 222.246
6877.07 218.869 195.335 246.854 258.325
6879.89 271.426 259.041 317.803 298.234
6882.71 286.83 253.855 330.045 298.768
6885.52 203.309 217.572 248.455 293.422
6888.34 162.579 222.927 301.766 283.944
6891.16 302.893 208.342 301.611 300.003
6893.98 159.555 229.369 296.632 278.043
6896.8 225.66 213.881 235.885 274.582
6899.62 256.429 233.699 291.23 256.788
6902.43 219.009 271.02 243.25 300.243
6905.25 337.623 278.797 366.248 322.161
6908.07 279.759 295.737 356.984 351.475
6910.89 269.829 228.538 331.194 318.119
6913.7 136.027 210.529 266.18 279.342
6916.52 225.731 144.382 240.651 241.443
6919.34 71.3879 124.267 217.499 235.205
6922.15 75.6839 132.349 247.466 246.25
6924.97 249.975 204.421 273.783 276.324
6927.79 287.604 268.529 307.724 293.554
6930.6 268.008 233.302 299.155 296.248
6933.42 144.295 231.106 281.865 290.056
6936.23 281.016 208.854 289.148 295.367
6939.05 201.25 190.453 315.089 285.248
6941.87 89.0919 197.463 251.506 299.38
6944.68 302.046 223.052 331.545 290.109
6947.5 278.017 299.811 287.275 313.03
6950.31 319.37 228.026 320.27 271.638
6953.13 86.6915 233.712 207.368 263.51
6955.94 295.074 237.644 262.892 264.667
6958.75 331.167 298.48 323.74 282.957
6961.57 269.2 311.688 262.24 317.737
6964.38 334.696 299.39 367.231 303.25
6967.2 294.274 300.659 280.28 311.252
6970.01 273.007 290.711 286.246 302.813
6972.82 304.852 250.977 341.914 326.09
6975.64 175.073 255.177 350.111 326.749
6978.45 285.606 244.214 288.221 306.57
6981.26 271.964 287.77 281.377 303.501
6984.08 305.741 297.351 340.905 310.884
6986.89 314.349 311.029 310.37 335.102
6989.7 312.997 309.401 354.033 322.935
6992.51 300.856 266.305 304.402 301.691
6995.33 185.061 254.217 246.64 274.592
6998.14 276.734 228.856 272.733 272.341
7000.95 224.773 193.601 297.65 251.733
7003.76 79.2944 211.436 184.816 273.573
7006.57 330.242 228.881 338.253 268.806
7009.38 277.107 289.396 283.348 300.43
7012.19 260.838 276.814 279.687 291.507
7015.01 292.497 289.453 311.486 301.682
7017.82 315.023 298.866 313.872 311.328
7020.63 289.079 311.666 308.625 318.066
7023.44 330.895 266.258 331.702 302.226
7026.25 178.798 267.768 266.353 296.244
7029.06 293.611 243.927 290.677 298.649
7031.87 259.372 249.335 338.916 300.655
7034.68 195.023 263.562 272.372 322.237
7037.49 336.29 294.1 355.424 324.629
7040.29 350.988 337.193 346.09 350.748
7043.1 324.3 272.633 350.731 311.943
7045.91 142.612 251.899 239.007 294.423
7048.72 288.786 248.334 293.53 285.289
7051.53 313.605 288.51 323.329 297.038
7054.34 263.138 277.8 274.255 314.882
7057.15 256.656 276.461 347.063 306.562
7059.95 309.589 287.473 298.368 310.475
7062.76 296.176 277.619 285.993 306.831
7065.57 227.092 289.266 336.133 324.24
7068.38 344.531 228.88 350.593 304.776
7071.18 115.018 252.463 227.603 289.342
7073.99 297.84 216.127 289.829 274.954
7076.8 235.524 245.268 307.431 297.789
7079.61 202.439 218.256 296.107 268.681
7082.41 216.805 225.009 202.506 257.234
7085.22 255.781 241.473 273.09 239.207
7088.02 251.834 253.317 242.025 255.029
7090.83 252.336 270.038 249.971 265.952
7093.64 305.946 277.808 305.86 278.198
7096.44 275.144 278.384 278.763 274.019
7099.25 254.063 248.711 237.433 264.879
7102.05 216.926 257.302 278.441 280.756
7104.86 300.917 283.789 326.394 314.294
7107.66 333.523 281.235 338.046 311.788
7110.47 209.266 270.781 270.924 302.719
7113.27 269.553 229.656 299.187 278.86
7116.08 210.151 257.304 266.469 290.421
7118.88 292.21 262.148 305.606 280.073
7121.68 284.083 288.665 268.145 303.242
7124.49 289.704 274.694 335.975 291.68
7127.29 250.296 276.875 270.92 301.557
7130.1 290.626 262.92 297.777 266.771
7132.9 247.839 250.838 231.615 250.811
7135.7 214.048 245.423 223.041 243.883
7138.5 274.381 249.441 276.993 262.392
7141.31 259.895 264.901 287.14 275.889
7144.11 260.427 261.395 263.534 280.031
7146.91 263.864 280.432 289.419 284.247
7149.71 317.005 280.77 299.788 284.94
7152.52 261.441 281.052 265.611 275.789
7155.32 264.71 226.484 261.968 251.279
7158.12 153.302 183.27 226.26 222.984
7160.92 131.798 165.828 180.723 239.576
7163.72 212.385 191.731 311.746 276.888
7166.52 231.01 248.768 338.194 316.658
7169.32 302.91 239.209 300.034 307.483
7172.12 183.708 257.075 284.221 284.06
7174.92 284.608 226.408 267.925 283.087
7177.72 210.908 240.074 297.114 259.637
7180.52 224.706 189.666 213.871 241.942
7183.32 133.384 179.237 214.84 216.003
7186.12 179.622 181.79 219.296 224.016
7188.92 232.363 200.847 237.913 222.935
7191.72 190.557 230.459 211.597 242.218
7194.52 268.457 220.572 277.144 241.827
7197.32 202.702 251.01 236.741 271.729
7200.12 281.87 232.213 301.302 251.17
7202.92 212.067 238.368 215.467 245.816
7205.72 221.167 227.255 220.68 235.416
7208.51 248.53 216.536 270.101 252.738
7211.31 179.911 222.57 267.434 261.373
7214.11 239.268 218.459 246.586 258.512
7216.91 236.197 227.127 261.518 245.731
7219.71 205.916 230.731 229.088 239.392
7222.5 250.081 204.914 227.569 239.022
7225.3 158.745 204.33 260.41 248.067
7228.1 204.165 208.247 256.223 274.152
7230.89 261.831 227.97 305.825 277.569
7233.69 217.915 223.244 270.66 267.736
7236.49 189.987 230.451 226.724 220.942
7239.28 283.451 225.714 165.443 218.593
7242.08 203.705 234.078 263.612 218.291
7244.87 215.078 221.475 225.817 263.005
7247.67 245.641 142.377 299.586 239.261
7250.46 -33.5868 141.756 192.38 253.278
7253.26 213.214 85.766 267.867 233.514
7256.05 77.6704 146.466 240.294 251.139
7258.85 148.513 141.407 245.256 246.275
7261.64 198.038 182.569 253.274 243.945
7264.44 201.157 178.264 233.305 246.353
7267.23 135.596 188.261 252.48 240.967
7270.02 228.03 199.068 237.118 228.1
7272.82 233.578 248.914 194.703 256.64
7275.61 285.133 153.381 338.099 287.15
7278.41 -58.569 24.9681 328.646 305.5
7281.2 -151.66 -104.456 249.754 260.072
7283.99 -103.14 -68.8672 201.815 248.868
7286.78 48.1985 48.2902 295.035 234.286
7289.58 199.813 160.21 206.008 265.55
7292.37 232.618 180.764 295.607 243.219
7295.16 109.863 187.104 228.043 264.182
7297.95 218.83 115.851 268.895 226.363
7300.74 18.8601 160.104 182.151 262.034
7303.54 242.62 143.946 335.056 245.253
7306.33 170.357 166.083 218.551 286.748
7309.12 85.272 71.2836 306.638 267.412
7311.91 -41.7779 106.803 277.048 306.429
7314.7 276.914 59.1989 335.602 285.059
7317.49 -57.539 146.851 242.526 296.403
7320.28 221.18 122.579 311.08 259.689
7323.07 204.096 247.936 225.46 281.391
7325.86 318.534 263.029 307.633 257.716
7328.65 266.458 265.605 240.055 265.415
7331.44 211.823 263.835 248.558 244.683
7334.23 313.225 276.505 245.436 250.988
7337.02 304.466 299.384 258.968 234.333
7339.81 280.461 264.5 198.594 247.525
7342.6 208.572 232.299 285.014 243.289
7345.38 207.864 214.838 246.26 259.129
7348.17 228.077 218.717 246.114 248.778
7350.96 220.209 229.966 253.96 249.599
7353.75 241.612 243.245 248.723 268.196
7356.54 267.915 244.429 301.906 262.05
7359.32 223.759 264.469 235.521 271.898
7362.11 301.733 235.409 278.267 238.358
7364.9 180.736 124.602 201.286 223.929
7367.68 -108.664 100.02 192.234 212.438
7370.47 227.986 108.751 243.793 235.227
7373.26 206.932 215.433 269.652 252.002
7376.04 211.381 234.972 242.56 266.108
7378.83 286.604 215.906 286.112 255.394
7381.62 149.734 200.781 237.511 260.506
7384.4 166.006 145.961 257.896 244.607
7387.19 122.144 165.048 238.413 223.795
7389.97 206.996 185.67 175.076 219.213
7392.76 227.872 152.854 244.149 209.827
7395.54 23.6961 163.763 210.256 219.24
7398.33 239.722 167.186 203.314 225.052
7401.11 238.142 222.621 261.586 235.985
7403.89 190 198.386 243.053 243.931
7406.68 167.015 184.415 227.154 230.538
7409.46 196.231 199.066 221.408 239.752
7412.25 233.951 174.456 270.695 223.701
7415.03 93.1861 198.023 179 246.76
7417.81 266.931 178.256 290.586 240.284
7420.59 174.651 226.187 251.265 261.012
7423.38 236.978 222.296 241.184 248.94
7426.16 255.26 242.139 254.372 243.813
7428.94 234.178 245.729 235.884 241.098
7431.72 247.75 200.981 233.037 256.723
7434.51 121.017 199.086 301.247 257.084
7437.29 228.491 197.752 236.967 260.33
7440.07 243.747 245.808 242.776 257.503
7442.85 265.186 241.032 292.767 248.583
7445.63 214.161 241.175 210.207 245.845
7448.41 244.176 241.42 234.562 233.863
7451.19 265.922 234.682 256.82 254.744
7453.97 193.946 240.126 272.849 266.245
7456.75 260.508 237.228 269.065 259.597
7459.53 257.23 231.239 236.876 252.239
7462.31 175.978 228.663 250.776 251.356
7465.09 252.78 219.093 266.417 258.788
7467.87 228.519 247.567 259.172 251.327
7470.65 261.402 252.212 228.393 268.493
7473.43 266.714 244.767 317.913 251.85
7476.21 206.185 249.669 209.243 243.791
7478.99 276.109 184.1 204.217 226.223
7481.77 70.0048 163.31 265.209 242.854
7484.54 143.818 137.373 259.136 249.58
7487.32 198.298 211.837 224.394 255.653
7490.1 293.395 218.598 283.431 244.809
7492.88 164.101 227.993 226.602 260.575
7495.65 226.482 216.581 271.692 243.483
7498.43 259.161 264.245 232.155 270.916
7501.21 307.092 270.923 308.901 268.31
7503.98 246.517 246.661 263.875 262.015
7506.76 186.374 206.961 213.27 238.573
7509.54 187.993 200.22 238.574 224.173
7512.31 226.294 222.99 220.675 233.389
7515.09 254.683 192.602 240.917 232.299
7517.86 96.8292 126.103 235.304 255.462
7520.64 26.7961 131.628 290.164 265.501
7523.41 271.258 153.949 271.035 254.27
7526.19 163.794 135.85 201.611 239.034
7528.96 -27.5005 54.5515 244.457 218.74
7531.74 27.3613 61.8417 210.152 218.967
7534.51 185.664 143.718 202.292 207.478
7537.29 218.128 205.633 209.99 212.052
7540.06 213.106 231.268 223.874 223.282
7542.83 262.569 215.326 235.983 232.005
7545.61 170.303 221.985 236.157 227.49
7548.38 233.085 223.837 210.331 234.38
7551.15 268.125 239.147 256.652 230.357
7553.93 216.231 228.963 224.089 235.493
7556.7 202.532 205.467 225.739 220.827
7559.47 197.636 206.483 212.651 243.725
7562.24 219.279 192.378 292.786 248.544
7565.01 160.219 215.059 240.195 258.768
7567.78 265.678 240.376 243.323 237.863
7570.56 295.232 273.591 230.071 229.489
7573.33 259.864 252.12 215.073 219.999
7576.1 201.265 233.561 214.853 223.8
7578.87 239.553 205.295 241.472 205.646
7581.64 175.067 194.573 160.613 201.133
7584.41 169.098 193.892 201.314 198.803
7587.18 237.509 194.755 234.484 209.624
7589.95 177.658 187.608 193.074 174.652
7592.72 147.656 105.056 96.3984 120.564
7595.49 -10.1467 67.4704 72.2202 85.6953
7598.26 64.9021 41.1929 88.4673 81.2195
7601.03 68.8235 71.7586 82.9709 92.1505
7603.79 81.5502 54.5123 105.013 66.8708
7606.56 13.1632 66.608 12.6282 74.4968
7609.33 105.11 83.2709 105.849 84.1697
7612.1 131.539 134.499 134.032 133.865
7614.87 166.847 137.09 161.713 139.826
7617.63 112.885 135.13 123.733 141.152
7620.4 125.658 122.626 138.011 112.754
7623.17 129.335 91.2243 76.5172 113.155
7625.94 18.6801 93.0928 124.935 122.048
7628.7 131.264 102.175 164.692 145.972
7631.47 156.582 148.24 148.287 145.659
7634.23 156.876 135.252 123.997 130.456
7637 92.2986 114.231 119.083 128.373
7639.77 93.5194 113.219 142.039 134.3
7642.53 153.839 139.864 141.778 149.299
7645.3 172.234 144.643 164.08 149.539
7648.06 107.856 127.404 142.759 150.716
7650.83 102.122 125.476 145.308 149.041
7653.59 166.452 145.782 159.055 154.448
7656.36 168.774 153.26 158.982 169.6
7659.12 124.555 123.179 190.764 158.014
7661.88 76.2092 126.808 124.295 152.152
7664.65 179.66 150.135 141.397 153.85
7667.41 194.536 193.529 195.859 167.836
7670.17 206.391 203.107 166.251 180.285
7672.94 208.395 202.639 178.747 190.266
7675.7 193.131 184.759 225.802 188.032
7678.46 152.752 165.871 159.547 202.47
7681.22 151.729 155.739 222.061 176.71
7683.99 162.737 161.077 148.521 183.228
7686.75 168.765 176.533 179.103 180.859
7689.51 198.095 187.62 214.954 181.236
7692.27 196.001 200.502 149.652 181.337
7695.03 207.409 203.224 179.406 159.314
7697.79 206.263 192.354 148.885 160.175
7700.55 163.391 185.122 152.235 171.857
7703.31 185.711 175.584 214.452 151.674
7706.07 177.651 193.518 88.3348 162.021
7708.83 217.193 194.396 183.276 138.216
7711.59 188.345 9.29198 143.035 144.513
7714.35 -377.661 -34.8471 107.226 98.5255
7717.11 84.7753 -36.8223 45.3151 119.161
7719.87 182.419 71.9916 204.94 170.313
7722.63 -51.2196 112.52 260.683 215.779
7725.39 206.36 117.179 181.714 208.505
7728.15 196.396 198.343 183.117 182.574
7730.91 192.272 176.998 182.891 166.978
7733.66 142.325 185.187 134.926 170.432
7736.42 220.962 185.684 193.48 164.915
7739.18 193.765 198.825 166.339 183.272
7741.94 181.748 134.414 189.996 173.416
7744.69 27.7285 146.959 163.914 180.162
7747.45 231.402 20.6306 186.577 152.704
7750.21 -197.239 70.7086 107.621 154.273
7752.96 177.962 55.1034 168.62 158.79
7755.72 184.587 173.904 200.13 188.907
7758.47 159.163 179.11 197.971 182.429
7761.23 193.581 128.025 149.185 177.359
7763.98 31.3312 137.554 184.921 175.439
7766.74 187.75 99.915 192.21 193.359
7769.49 80.6633 159.258 202.945 195.949
7772.25 209.359 164.48 192.691 201.772
7775 203.419 215.548 209.681 198.997
7777.76 233.867 212.061 194.618 205.443
7780.51 198.898 197.516 212.029 205.426
7783.26 159.782 179.888 209.631 207.803
7786.02 180.985 180.605 201.749 182.69
7788.77 201.05 188.014 136.69 144.771
7791.52 182.008 203.073 95.8755 129.535
7794.28 226.163 203.608 156.041 141.806
7797.03 202.654 192.576 173.503 162.031
7799.78 148.91 182.236 156.55 171.158
7802.53 195.145 180.492 183.421 160.722
7805.28 197.42 146.136 142.193 159.899
7808.04 45.8434 147.636 154.081 161.24
7810.79 199.645 82.2169 187.447 151.76
7813.54 1.16246 167.459 113.751 162.885
7816.29 301.571 191.728 187.456 155.28
7819.04 272.452 278.5 164.633 191.639
7821.79 261.477 234.731 222.827 192.555
7824.54 170.263 204.609 190.205 189.351
7827.29 182.087 141.67 155.02 161.627
7830.04 72.6607 155.824 139.656 173.334
7832.79 212.724 169.084 225.327 184.889
7835.54 221.867 224.667 189.684 200.543
7838.29 239.409 230.23 186.617 191.452
7841.03 229.415 172.995 198.054 198.709
7843.78 50.1598 137.016 211.455 191.079
7846.53 131.474 131.031 163.728 173.298
7849.28 211.459 13.5484 144.71 103.796
7852.03 -302.288 44.0663 2.9496 109.712
7854.77 223.028 -7.16953 181.476 80.6988
7857.52 57.7517 166.438 57.6709 149.962
7860.27 218.535 58.1858 210.74 147.573
7863.01 -101.729 13.3958 174.307 183.139
7865.76 -76.6183 -29.2306 164.37 137.558
7868.51 90.6559 33.551 73.9978 92.5605
7871.25 86.6154 126.745 39.3141 113.99
7874 202.964 156.623 228.658 123.927
7876.74 180.289 181.776 103.809 159.422
7879.49 162.076 184.162 145.799 140.802
7882.23 210.12 192.593 172.798 173.326
7884.98 205.582 177.972 201.382 175.182
7887.72 118.215 91.0134 151.365 171.531
7890.46 -50.7565 78.0553 161.847 158.931
7893.21 166.708 66.0776 163.58 168.627
7895.95 82.2818 146.246 180.454 172.802
7898.7 189.749 146.567 174.373 177.36
7901.44 167.671 185.037 177.253 181.394
7904.18 197.69 138.306 192.557 176.289
7906.92 49.5567 164.592 159.059 135.598
7909.67 246.528 147.573 55.179 119.84
7912.41 146.635 161.469 145.282 91.2332
7915.15 91.2447 153.239 73.2383 146.375
7917.89 221.835 142.678 220.604 120.14
7920.63 114.953 150.337 66.5777 127.328
7923.37 114.224 71.92 94.8011 116.692
7926.11 -13.4166 20.187 188.696 135.859
7928.85 -40.2462 44.6636 124.081 161.196
7931.59 187.654 109.471 170.812 147.793
7934.33 181.006 166.66 148.486 162.432
7937.07 131.319 161.158 167.997 152.47
7939.81 171.148 164.128 140.926 154.152
7942.55 189.916 164.512 153.532 125.787
7945.29 132.47 119.007 82.9039 115.117
7948.03 34.633 109.11 108.914 112.681
7950.77 160.228 121.174 146.224 139.105
7953.51 168.662 169.417 162.175 159.087
7956.25 179.363 169.791 168.86 142.402
7958.98 161.347 170.354 96.1701 137.134
7961.72 170.353 183.815 146.372 145.598
7964.46 219.744 76.1047 194.252 156.124
7967.19 -161.783 49.5447 127.749 147.499
7969.93 90.6727 19.5196 120.495 126.908
7972.67 129.669 133.309 132.481 118.575
7975.4 179.586 92.0251 102.751 121.747
7978.14 -33.1801 108.569 130.008 132.524
7980.88 179.3 46.4134 164.814 149.938
7983.61 -6.87917 105.083 154.992 154.39
7986.35 142.828 24.3931 143.363 134.41
7989.08 -62.7691 -30.9663 104.873 109.43
7991.82 -172.958 -34.5373 80.0545 102.758
7994.55 132.115 44.7607 123.346 121.972
7997.28 175.125 160.263 162.515 150.998
8000.02 173.551 165.144 167.133 146.663
8002.75 146.758 156.696 110.342 129.249
8005.49 149.78 150.021 110.271 139.788
8008.22 153.524 170.859 198.751 162.078
8010.95 209.274 183.59 177.212 173.473
8013.68 187.972 180.965 144.455 143.731
8016.42 145.648 163.575 109.526 114.497
8019.15 157.103 147.145 89.5106 103.071
8021.88 138.685 147.342 110.177 88.3418
8024.61 146.239 148.316 65.3374 121.776
8027.34 160.024 149.628 189.813 140.83
8030.07 142.622 114.862 167.34 169.098
8032.8 41.9406 125.393 150.141 171.504
8035.53 191.618 142.449 197.03 171.247
8038.26 193.787 184.184 166.57 163.822
8040.99 167.148 153.723 127.866 147.764
8043.72 100.233 148.87 148.855 143.144
8046.45 179.229 119.153 152.71 132.81
8049.18 77.9984 111.763 96.8642 133.457
8051.91 78.062 92.3241 150.797 120.52
8054.64 120.912 75.2259 113.898 121.196
8057.37 26.7036 109.989 98.893 115.87
8060.1 182.35 122.918 134.82 119.576
8062.82 159.699 173.792 125.014 134.63
8065.55 179.326 173.958 144.056 150.154
8068.28 182.847 143.292 181.392 145.307
8071.01 67.703 147.045 110.472 149.602
8073.73 190.585 146.522 156.941 137.328
8076.46 181.277 161.239 144.57 145.453
8079.19 111.856 143.09 134.846 147.489
8081.91 136.138 138.067 163.05 140.216
8084.64 166.206 155.029 122.754 143.813
8087.36 162.744 154.828 145.637 134.656
8090.09 135.535 146.111 135.577 146.184
8092.81 140.055 145.041 157.337 149.973
8095.54 159.533 132.402 157.005 133.758
8098.26 97.619 138.609 86.9317 118.83
8100.99 158.676 141.518 112.553 114.455
8103.71 168.259 161.373 143.88 137.214
8106.43 157.184 162.465 155.208 146.981
8109.16 161.952 159.973 141.856 140.804
8111.88 160.783 164.808 125.348 143.151
8114.6 171.687 158.727 162.248 144.582
8117.32 143.712 152.048 146.152 138.156
8120.05 140.746 146.168 106.068 128.71
8122.77 154.048 143.167 133.911 117.799
8125.49 134.708 144.372 113.419 125.873
8128.21 144.36 140.831 130.29 125.291
8130.93 143.425 140.061 132.165 122.471
8133.65 132.399 150.973 104.959 126.092
8136.37 177.094 132.96 141.151 106.102
8139.09 89.3877 128.402 72.1978 111.691
8141.81 118.725 125.866 121.723 110.15
8144.53 169.487 152.763 136.53 123.17
8147.25 170.079 162.22 111.258 136.708
8149.97 147.095 147.502 162.337 135.548
8152.69 125.331 130.823 133.05 136.777
8155.41 120.041 114.537 114.942 121.241
8158.13 98.2374 112.205 115.729 110.041
8160.85 118.337 121.09 99.4501 106.049
8163.56 146.695 138.053 102.969 93.8543
8166.28 149.127 149.133 79.1442 107.057
8169 151.579 148.168 139.057 107.036
8171.71 143.797 139.914 102.907 123.802
8174.43 124.367 134.966 129.443 113.617
8177.15 136.734 124.185 108.501 114.748
8179.86 111.454 120.665 106.299 105.836
8182.58 113.807 123.526 102.706 106.592
8185.3 145.317 146.709 110.771 106.492
8188.01 181.003 144.115 106 98.258
8190.73 106.025 132.338 78.0031 90.6589
8193.44 109.986 96.2951 87.9739 81.2353
8196.15 72.8742 106.243 77.729 101.1
8198.87 135.868 117.385 137.598 107.133
8201.58 143.414 144.591 106.073 121.441
8204.3 154.492 161.565 120.652 110.473
8207.01 186.79 171.745 104.696 126.827
8209.72 173.951 180.821 155.135 138.008
8212.44 181.723 170.456 154.193 144.03
8215.15 155.694 160.958 122.763 119.2
8217.86 145.457 141.844 80.6444 104.9
8220.57 124.38 133.796 111.294 105.564
8223.28 131.551 138.448 124.754 114.826
8226 159.414 142.966 108.43 104.859
8228.71 137.934 144.485 81.3928 105.415
8231.42 136.108 131.091 126.421 98.6792
8234.13 119.23 133.031 88.2238 108.541
8236.84 143.756 150.884 110.978 104.923
8239.55 189.667 159.615 115.568 115.174
8242.26 145.422 162.525 118.977 115.5
8244.97 152.485 138.524 111.954 102.979
8247.68 117.663 136.561 78.0051 103.803
8250.38 139.534 133.251 121.451 94.5504
8253.09 142.556 144.756 84.1955 107.869
8255.8 152.177 147.974 117.961 113.066
8258.51 149.189 140.014 137.04 115.499
8261.22 118.675 131.924 91.4956 105.545
8263.92 127.907 141.11 88.0976 107.869
8266.63 176.747 145.396 144.015 106.505
8269.34 131.532 151.44 87.4015 122.529
8272.04 146.041 141.86 136.169 111.754
8274.75 148.006 132.929 111.691 109.061
8277.46 104.739 131.492 79.3242 110.399
8280.16 141.73 129.696 140.181 115
8282.87 142.618 144.94 125.495 114.751
8285.57 150.472 130.629 78.5768 101.56
8288.28 98.7986 126.796 100.608 111.545
8290.98 131.119 131.411 155.45 102.185
8293.69 164.314 127.496 50.495 105.55
8296.39 87.0552 147.667 110.706 107.909
8299.09 191.63 138.549 162.525 128.759
8301.8 136.962 150.639 113.048 144.25
8304.5 123.326 116.137 157.177 116.194
8307.2 88.1238 106.813 78.3581 90.8473
8309.91 108.988 118.633 37.0068 66.1881
8312.61 158.786 131.441 83.1995 64.3062
8315.31 126.55 122.009 72.7124 78.9194
8318.01 80.6905 121.008 80.8464 92.1467
8320.71 155.783 115.71 122.881 94.899
8323.41 110.657 129.348 80.9692 89.2131
8326.11 121.604 125.963 63.7889 85.2257
8328.82 145.628 135.571 110.919 90.5889
8331.52 139.48 128.043 97.0588 94.844
8334.22 99.0201 127.05 76.5542 96.2209
8336.91 142.651 138.098 115.05 95.4774
8339.61 172.624 144.777 94.8282 114.122
8342.31 119.056 118.989 132.488 58.4231
8345.01 65.2867 69.7165 -52.0471 52.0813
8347.71 24.8067 74.5132 75.8027 35.6959
8350.41 133.446 101.395 83.3321 87.9005
8353.11 145.932 129.367 104.567 99.1172
8355.8 108.721 124.621 109.453 101.252
8358.5 119.21 117.115 89.7351 106.952
8361.2 123.412 114.281 121.667 98.7936
8363.89 100.22 130.91 84.9789 97.4928
8366.59 169.098 124.319 85.8329 90.2349
8369.29 103.639 132.795 99.8931 94.1305
8371.98 125.65 118.486 96.6657 96.3875
8374.68 126.171 114.714 92.6037 88.3967
8377.37 92.3207 108.408 75.9209 88.875
8380.07 106.731 119.756 98.1004 94.7847
8382.76 160.216 131.215 110.333 100.862
8385.46 126.699 145.329 94.1531 107.069
8388.15 149.072 130.971 116.721 92.8701
8390.84 117.143 132.27 67.7362 85.0207
8393.54 130.595 154.281 70.605 71.2522
8396.23 215.105 182.401 75.4154 95.4472
8398.92 201.502 174.923 140.321 88.154
8401.62 108.161 135.652 48.7255 97.7393
8404.31 97.2922 101.678 104.171 82.7833
8407 99.5795 135.905 95.4532 114.673
8409.69 210.842 163.023 144.393 148.145
8412.38 178.648 164.154 204.587 142.282
8415.07 102.971 150.185 77.8648 160.778
8417.76 168.936 131.623 199.88 135.158
8420.45 122.963 161.075 127.728 156.207
8423.14 191.327 130.585 141.013 126.837
8425.83 77.4638 117.335 111.77 99.3671
8428.52 83.2155 67.9292 45.3193 54.5954
8431.21 43.1083 60.4129 6.69733 22.5452
8433.9 54.915 52.2198 15.6189 25.627
8436.59 58.6361 87.2828 54.5649 66.3399
8439.28 148.297 101.182 128.836 86.3206
8441.97 96.6119 134.481 75.561 123.635
8444.65 158.535 129.349 166.507 92.085
8447.34 132.899 145.956 34.1871 108.12
8450.03 146.433 152.941 123.666 79.1695
8452.71 179.491 153.932 79.6558 97.0742
8455.4 135.871 146.034 87.9013 100.577
8458.09 122.739 127.7 134.175 80.7201
8460.77 124.49 133.257 20.0836 84.9338
8463.46 152.542 152.838 100.542 72.9325
8466.14 181.482 142.527 98.1716 85.9514
8468.83 93.5563 124.592 59.1402 77.684
8471.51 98.7392 113.121 75.7403 71.7671
8474.2 147.067 125.832 80.4209 72.7113
8476.88 131.69 131.433 61.9727 61.1377
8479.56 115.542 134.604 41.0197 69.9581
8482.25 156.579 137.074 106.882 92.9389
8484.93 139.102 126.82 130.915 93.3995
8487.61 84.7806 113.626 42.4014 88.3452
8490.29 116.996 116.22 91.7191 57.3384
8492.98 146.884 143.363 37.8947 73.8795
8495.66 166.207 143.302 92.0246 76.0714
8498.34 116.813 143.071 98.295 82.9613
8501.02 146.193 120.904 58.5641 67.3126
8503.7 99.7047 131.159 45.0787 61.1912
8506.38 147.578 115.193 79.9306 79.2398
8509.06 98.2946 126.609 112.71 105.775
8511.74 133.955 116.819 124.684 114.072
8514.42 118.206 137.477 104.821 107.509
8517.1 160.271 141.268 93.0214 87.975
8519.78 145.328 147.904 66.0826 76.6084
8522.46 138.113 136.814 70.7213 69.8123
8525.14 126.999 135.982 72.6329 65.5002
8527.82 142.833 137.623 53.1462 73.333
8530.49 143.035 145.24 94.2198 90.7899
8533.17 149.852 128.966 125.004 93.5377
8535.85 94.0112 119.032 61.3896 95.2358
8538.52 113.233 113.986 99.3141 75.6774
8541.2 134.713 120.05 66.3284 83.019
8543.88 112.205 127.244 83.4143 97.1387
8546.55 134.815 114.97 141.673 93.3405
8549.23 97.8902 109.788 54.9337 85.2044
8551.9 96.6579 133.534 59.0062 81.224
8554.58 206.053 146.898 129.732 90.9117
8557.25 137.985 160.971 83.9969 101.82
8559.93 138.875 137.576 91.7306 92.0084
8562.6 135.869 131.398 100.298 99.312
8565.27 119.451 137.245 105.908 95.9405
8567.95 156.416 130.857 81.6162 83.1089
8570.62 116.705 145.147 61.8028 74.4989
8573.29 162.319 143.468 80.0779 70.5554
8575.96 151.38 147.457 69.7857 85.9092
8578.64 128.672 142.942 107.864 99.766
8581.31 148.775 146.238 121.648 113.845
8583.98 161.266 144.696 112.022 100.319
8586.65 124.046 138.359 67.2866 99.0952
8589.32 129.764 131.997 117.977 87.8608
8591.99 142.182 140.958 78.3187 86.2461
8594.66 150.927 132.123 62.4423 66.4952
8597.33 103.259 141.811 58.7245 83.2961
8600 171.246 134.625 128.722 84.5078
8602.67 129.37 142.203 66.0771 100.641
8605.34 125.994 133.302 107.126 89.3053
8608.01 144.543 142.252 94.7132 92.4246
8610.68 156.22 141.001 75.4349 75.4812
8613.34 122.239 140.364 56.2955 76.8642
8616.01 142.634 137.464 98.8623 108.749
8618.68 147.518 138.544 171.089 131.714
8621.34 125.479 138.847 125.19 142.517
8624.01 143.545 126.449 131.273 107.051
8626.68 110.322 114.356 64.6884 83.6992
8629.34 89.2008 122.691 55.1358 73.8046
8632.01 168.549 140.028 101.59 105.476
8634.67 162.335 156.682 159.704 113.326
8637.34 139.163 132.151 78.6835 96.6824
8640 94.9555 129.254 51.6597 88.0111
8642.67 153.643 126.565 133.69 92.1186
8645.33 131.097 130.164 91.006 97.6071
8648 105.752 103.712 68.1253 54.698
8650.66 74.2869 108.251 4.96274 54.4628
8653.32 144.712 119.437 90.3005 62.4576
8655.98 139.312 130.809 92.1097 80.9827
8658.65 108.404 102.639 60.538 49.7864
8661.31 60.2014 103.563 -3.28847 48.7024
8663.97 142.083 96.5968 88.8576 33.4063
8666.63 87.5063 127.97 14.6498 36.3273
8669.29 154.32 124.368 5.47451 42.5399
8671.95 131.278 147.816 107.495 88.8255
8674.61 157.851 149.35 153.507 109.506
8677.27 158.921 147.513 67.5155 108.689
8679.93 125.766 118.428 105.044 81.6982
8682.59 70.5963 116.787 72.5347 73.6032
8685.25 154 115.824 43.2305 70.3776
8687.91 122.875 130.683 95.3676 68.028
8690.57 115.174 132.031 65.4858 98.9666
8693.23 158.043 131.143 136.046 90.4975
8695.88 120.212 145.582 69.9604 98.9723
8698.54 158.491 150.332 90.9102 90.0412
8701.2 172.294 161.748 109.253 100.851
8703.85 154.459 153.541 102.39 96.4202
8706.51 133.869 148.181 77.6178 98.6472
8709.17 156.214 148.314 115.934 90.6549
8711.82 154.858 159.423 78.413 99.5286
8714.48 167.195 161.913 104.239 98.4952
8717.13 163.687 154.644 112.834 88.6501
8719.79 133.051 143.137 48.8776 78.0027
8722.44 132.673 144.579 72.2967 80.0364
8725.09 168.013 136.605 118.935 77.8466
8727.75 109.131 159.686 42.3082 102.732
8730.4 201.915 143.33 146.951 87.4888
8733.05 118.943 157.342 73.2066 99.2958
8735.71 151.168 136.288 77.7294 75.0992
8738.36 138.752 143.628 74.3615 69.9466
8741.01 140.963 146.285 57.7489 77.1674
8743.66 159.14 147.108 99.3919 88.7735
8746.31 141.222 136.687 109.18 101.702
8748.96 109.7 131.402 96.5337 118.209
8751.62 143.284 128.133 148.915 128.31
8754.27 131.416 159.498 139.483 133.066
8756.92 203.794 148.638 110.801 118.14
8759.57 110.705 148.239 104.137 121.399
8762.21 130.219 94.2238 149.259 41.2624
8764.86 41.7469 102.508 -129.609 -2.54356
8767.51 135.557 91.1283 -27.2809 -34.8344
8770.16 96.0807 96.0971 52.3868 42.5814
8772.81 56.6534 67.3308 102.638 69.7674
8775.46 49.2582 81.067 54.277 56.2983
8778.1 137.289 76.6425 11.9796 -2.95382
8780.75 43.3797 94.8951 -75.1181 -11.8012
8783.4 104.016 79.7541 27.7349 -13.0551
8786.04 91.8664 115.217 8.21781 23.8423
8788.69 149.768 110.707 35.5741 0.257595
8791.33 90.4875 122.378 -43.0191 -3.41214
8793.98 126.877 126.853 -2.79139 -1.41696
8796.62 163.195 137.666 41.5597 30.244
8799.27 122.925 139.783 51.9637 62.2067
8801.91 133.228 117.281 93.0967 81.2424
8804.56 95.6888 116.992 98.6667 90.6814
8807.2 122.059 126.412 80.2808 86.9316
8809.84 161.49 150.42 81.8472 84.5846
8812.48 167.713 164.581 91.6256 116.197
8815.13 164.54 139.338 175.118 185.958
8817.77 85.7612 145.509 291.129 277.821
8820.41 186.226 195.952 367.217 281.719
8823.05 315.869 246.009 186.81 185.029
8825.69 235.932 212.476 1.05981 3.17852
8828.33 85.6282 122.853 -178.334 -107.941
8830.97 46.9986 70.151 -146.549 -179.832
8833.61 77.8263 94.3577 -214.614 -120.157
8836.25 158.248 96.8035 0.693158 -69.9403
8838.89 54.3361 96.9527 4.10028 15.5588
8841.53 78.2736 87.7617 41.883 39.6827
8844.17 130.675 129.71 73.0647 62.7667
8846.81 180.182 138.447 73.3522 29.4449
8849.45 104.482 143.941 -58.0822 41.0022
8852.08 147.157 122.912 107.737 28.4839
8854.72 117.097 122.336 35.7973 63.3758
8857.36 102.753 130.417 46.5935 78.1345
8859.99 171.402 122.701 152.013 92.2778
8862.63 93.947 146.464 78.2273 67.1637
8865.26 174.043 131.105 -28.7488 11.3608
8867.9 125.325 148.764 -15.3963 -17.3394
8870.53 146.923 136.013 -7.87326 13.2953
8873.17 135.79 134.257 63.1555 76.9543
8875.8 120.059 129.192 175.581 154.091
8878.44 131.728 114.576 223.537 176.399
8881.07 91.9416 74.3883 130.078 62.6897
8883.7 -0.504596 60.9213 -165.546 -102.522
8886.34 91.327 40.0519 -272.099 -191.749
8888.97 29.3333 76.5228 -137.603 -125.944
8891.6 108.908 90.1483 31.8681 3.53284
8894.23 132.203 121.101 116.333 65.5737
8896.87 122.192 157.537 48.5195 77.5198
8899.5 218.217 169.005 67.7065 46.7417
8902.13 166.606 188.956 23.999 41.1066
8904.76 182.045 154.042 31.6143 58.8054
8907.39 113.475 137.747 120.803 96.9416
8910.02 117.722 115.886 138.407 164.105
8912.65 116.461 135.968 233.104 127.561
8915.28 173.722 168.728 11.1729 7.37411
8917.9 216.001 197.234 -222.154 -108.048
8920.53 201.98 162.413 -113.164 -147.841
8923.16 69.2586 98.6885 -108.206 -47.3593
8925.79 24.8274 67.5454 79.2917 19.8549
8928.41 108.55 93.017 88.4786 74.5125
8931.04 145.673 125.86 55.7672 70.1732
8933.67 123.356 133.401 66.2739 60.9539
8936.29 131.175 133.228 60.8207 57.5854
8938.92 145.155 137.512 45.6616 21.2012
8941.54 136.206 143.169 -42.8788 7.21671
8944.17 148.148 131.567 18.8673 -5.88091
8946.79 110.346 125.121 6.36875 59.4782
8949.42 116.869 132.412 153.199 79.0033
8952.04 170.021 124.881 77.4426 58.1712
8954.67 87.7516 66.9099 -56.1275 -59.29
8957.29 -57.0433 40.7571 -199.185 -74.6987
8959.91 91.5629 48.6042 31.2163 -19.6343
8962.53 111.293 93.7214 109.066 83.1216
8965.16 78.3083 111.556 109.083 114.366
8967.78 145.066 106.938 124.95 100.065
8970.4 97.4395 122.589 66.1609 87.8063
8973.02 125.261 106.084 72.3078 61.9994
8975.64 95.5499 112.807 47.5296 50.4545
8978.26 117.611 109.779 31.5262 31.2206
8980.88 116.175 101.586 14.6059 35.762
8983.5 70.972 95.6064 61.1538 43.4132
8986.12 99.6721 83.7489 54.4799 40.0692
8988.74 80.6025 98.037 4.57402 19.81
8991.36 113.836 105.454 0.376169 19.3728
8993.98 121.924 144.306 53.1682 -6.68319
8996.59 197.157 135.074 -73.5939 -10.6389
8999.21 86.1421 114.56 -11.4911 -50.741
9001.83 60.3803 80.7598 -67.138 11.6955
9004.44 95.757 73.0623 113.716 50.4071
9007.06 63.0495 81.8795 104.644 106.921
9009.68 86.832 95.5559 102.405 93.7179
9012.29 136.786 109.535 74.1055 81.6755
9014.91 104.986 117.675 68.5162 64.8005
9017.52 111.254 120.528 51.7796 48.0747
9020.14 145.345 130.802 23.9283 37.6248
9022.75 135.806 125.013 37.1665 39.3035
9025.36 93.8878 112.243 56.8158 44.4622
9027.98 107.034 109.03 39.4044 42.4687
9030.59 126.169 135.944 31.1858 56.6255
9033.2 174.628 135.594 99.2863 87.8972
9035.81 105.986 137.501 133.219 81.024
9038.43 131.888 125.667 10.5662 68.7533
9041.04 139.126 118.918 62.4742 11.8362
9043.65 85.7406 127.378 -37.5319 46.6411
9046.26 157.266 99.8911 114.981 51.4601
9048.87 56.6666 104.61 76.9313 83.052
9051.48 99.8962 94.0062 57.2438 53.8929
9054.09 125.456 111.534 27.5037 46.4842
9056.7 109.249 111.757 54.7051 48.1686
9059.31 100.567 113.735 62.2969 64.8175
9061.91 131.388 118.95 77.4506 63.5937
9064.52 124.896 127.643 51.0335 58.8462
9067.13 126.645 112.157 48.0545 47.3416
9069.74 84.9285 95.5448 42.9369 36.0111
9072.34 75.0607 75.6975 17.0419 26.7477
9074.95 67.1032 47.388 20.2643 12.4354
