wavelength spectrum_sum 3smoothed_sum
3511.88 43.3671 29.1356
3514.8 44.0397 45.6747
3517.73 49.6174 38.2863
3520.65 21.2019 47.7935
3523.57 72.5612 38.6219
3526.49 22.1025 48.5686
3529.42 51.042 59.2944
3532.34 104.739 67.8952
3535.26 47.9051 80.3801
3538.19 88.4968 61.7806
3541.11 48.9398 70.6557
3544.03 74.5305 64.6526
3546.95 70.4876 74.5414
3549.88 78.6061 71.6635
3552.8 65.8969 67.0376
3555.72 56.6099 70.0169
3558.64 87.5438 72.0869
3561.56 72.1071 59.0699
3564.49 17.5588 56.1458
3567.41 78.7713 44.4313
3570.33 36.9638 75.5487
3573.25 110.911 67.2365
3576.18 53.8348 73.7175
3579.1 56.4067 53.6785
3582.02 50.7938 45.1452
3584.94 28.2351 43.96
3587.86 52.851 64.9481
3590.79 113.758 82.4285
3593.71 80.6764 88.6605
3596.63 71.5469 71.4349
3599.55 62.0814 66.661
3602.47 66.3546 70.9889
3605.39 84.5306 71.1192
3608.32 62.4724 84.7103
3611.24 107.128 68.7707
3614.16 36.7118 70.5667
3617.08 67.8604 62.973
3620 84.3467 82.4099
3622.92 95.0225 81.6778
3625.85 65.6643 83.7116
3628.77 90.448 96.8836
3631.69 134.539 115.554
3634.61 121.676 134.934
3637.53 148.587 140.5
3640.45 151.236 140.342
3643.37 121.204 119.782
3646.3 86.9055 115.391
3649.22 138.063 112.423
3652.14 112.299 138.85
3655.06 166.187 147.329
3657.98 163.5 149.424
3660.9 118.584 134.861
3663.82 122.5 124.669
3666.74 132.924 134.794
3669.66 148.958 137.614
3672.58 130.959 138.22
3675.51 134.743 129.67
3678.43 123.308 115.208
3681.35 87.5727 115.911
3684.27 136.852 115.758
3687.19 122.848 130.617
3690.11 132.152 137.326
3693.03 156.977 139.867
3695.95 130.472 157.902
3698.87 186.255 155.844
3701.79 150.805 157.188
3704.71 134.506 141.453
3707.63 139.048 149.546
3710.55 175.083 142.91
3713.47 114.6 137.198
3716.39 121.912 124.522
3719.31 137.055 143.033
3722.23 170.131 153.224
3725.15 152.484 152.796
3728.07 135.773 133.842
3730.99 113.268 122.771
3733.91 119.274 121.704
3736.83 132.57 120.187
3739.75 108.716 131.455
3742.67 153.078 127.472
3745.59 120.621 143.066
3748.51 155.498 142.592
3751.43 151.657 168.472
3754.35 198.26 178.428
3757.27 185.368 178.936
3760.19 153.179 189.254
3763.11 229.215 188.156
3766.03 182.075 199.856
3768.95 188.279 190.341
3771.87 200.67 200.972
3774.79 213.966 204.409
3777.71 198.592 202.377
3780.63 194.572 206.058
3783.55 225.01 205.825
3786.47 197.892 213.414
3789.39 217.341 213.275
3792.31 224.591 226.348
3795.22 237.113 238.137
3798.14 252.707 239.748
3801.06 229.425 221.454
3803.98 182.232 207.703
3806.9 211.453 217.002
3809.82 257.321 224.54
3812.74 204.846 214.547
3815.66 181.476 189.419
3818.58 181.935 178.704
3821.5 172.701 181.398
3824.41 189.557 169.504
3827.33 146.253 173.548
3830.25 184.833 159.045
3833.17 146.05 165.037
3836.09 164.227 156.165
3839.01 158.217 174.428
3841.93 200.841 196.946
3844.84 231.78 237.586
3847.76 280.138 263.476
3850.68 278.51 262.58
3853.6 229.091 242.2
3856.52 218.999 249.696
3859.44 300.999 262.631
3862.35 267.895 273.75
3865.27 252.355 251.209
3868.19 233.378 229.748
3871.11 203.51 236.85
3874.03 273.663 226.424
3876.94 202.098 230.727
3879.86 216.42 212.505
3882.78 218.998 216.463
3885.7 213.971 234.735
3888.62 271.235 251.389
3891.53 268.962 277.16
3894.45 291.282 281.765
3897.37 285.05 278.725
3900.29 259.845 257.877
3903.2 228.736 266.087
3906.12 309.68 284.745
3909.04 315.818 316.08
3911.96 322.74 326.993
3914.87 342.42 329.682
3917.79 323.885 311.995
3920.71 269.68 277.38
3923.63 238.575 247.743
3926.54 234.974 193.907
3929.46 108.173 178.979
3932.38 193.79 154.684
3935.29 162.087 182.369
3938.21 191.229 203.221
3941.13 256.346 227.903
3944.05 236.134 240.106
3946.96 227.838 258.262
3949.88 310.815 287.983
3952.8 325.296 310.2
3955.71 294.488 291.868
3958.63 255.821 277.306
3961.55 281.607 234.621
3964.46 166.435 229.283
3967.38 239.808 212.036
3970.3 229.865 237.186
3973.21 241.886 276.217
3976.13 356.902 286.383
3979.05 260.363 315.378
3981.96 328.871 323.851
3984.88 382.32 354.405
3987.8 352.024 382.142
3990.71 412.081 395.646
3993.63 422.834 451.576
3996.54 519.814 478.21
3999.46 491.982 463.709
4002.38 379.33 431.499
4005.29 423.184 394.328
4008.21 380.469 419.709
4011.12 455.475 432.784
4014.04 462.409 464.346
4016.96 475.153 463.275
4019.87 452.262 493.323
4022.79 552.556 514.602
4025.7 538.989 512.139
4028.62 444.871 511.85
4031.53 551.69 512.621
4034.45 541.301 526.576
4037.37 486.735 492.491
4040.28 449.438 471.186
4043.2 477.386 477.437
4046.11 505.486 508.789
4049.03 543.494 532.242
4051.94 547.746 530.884
4054.86 501.413 539.811
4057.77 570.274 540.964
4060.69 551.206 531.756
4063.6 473.787 510.781
4066.52 507.35 494.242
4069.43 501.59 529.892
4072.35 580.736 514.269
4075.26 460.479 526.432
4078.18 538.08 531.141
4081.09 594.863 565.64
4084.01 563.976 583.29
4086.92 591.032 579.515
4089.84 583.538 586.106
4092.75 583.748 552.301
4095.67 489.617 531.942
4098.58 522.459 493.61
4101.49 468.753 508.057
4104.41 532.96 531.133
4107.32 591.685 584.319
4110.24 628.311 600.017
4113.15 580.055 602.645
4116.07 599.57 600.019
4118.98 620.432 620.524
4121.89 641.571 628.809
4124.81 624.423 620.25
4127.72 594.757 623.446
4130.64 651.156 619.424
4133.55 612.357 643.867
4136.46 668.086 613.936
4139.38 561.365 626.149
4142.29 648.995 631.702
4145.21 684.747 641.436
4148.12 590.566 638.602
4151.03 640.493 610.525
4153.95 600.515 625.903
4156.86 636.701 602.224
4159.77 569.457 640.112
4162.69 714.178 628.225
4165.6 601.04 648.907
4168.51 631.504 598.726
4171.43 563.632 648.396
4174.34 750.052 653.754
4177.25 647.576 671.628
4180.17 617.256 629.997
4183.08 625.16 629.953
4185.99 647.443 646.244
4188.91 666.128 653.162
4191.82 645.916 666.488
4194.73 687.421 650.468
4197.64 618.067 626.393
4200.56 573.69 640.313
4203.47 729.184 623.865
4206.38 568.723 636.025
4209.29 610.17 605.559
4212.21 637.785 657.91
4215.12 725.775 678.275
4218.03 671.266 682.105
4220.94 649.275 639.286
4223.86 597.318 623.246
4226.77 623.144 640.757
4229.68 701.81 653.563
4232.59 635.735 649.908
4235.51 612.18 628.553
4238.42 637.745 642.634
4241.33 677.977 673.616
4244.24 705.125 685.519
4247.15 673.454 684.261
4250.07 674.203 643.325
4252.98 582.318 644.843
4255.89 678.007 661.471
4258.8 724.088 722.574
4261.71 765.627 725.923
4264.62 688.053 692.868
4267.54 624.925 660.158
4270.45 667.497 640.966
4273.36 630.476 635.484
4276.27 608.478 647.634
4279.18 703.949 650.94
4282.09 640.395 654.196
4285 618.243 607.475
4287.92 563.788 641.936
4290.83 743.777 646.592
4293.74 632.211 632.566
4296.65 521.709 558.522
4299.56 521.644 522.265
4302.47 523.44 541.953
4305.38 580.775 556.264
4308.29 564.575 584.909
4311.2 609.376 583.909
4314.11 577.776 613.518
4317.02 653.404 644.654
4319.93 702.781 686.22
4322.85 702.476 695.023
4325.76 679.812 717.952
4328.67 771.567 748.756
4331.58 794.888 761.442
4334.49 717.871 766.616
4337.4 787.09 776.05
4340.31 823.189 774.247
4343.22 712.463 755.557
4346.13 731.017 698.726
4349.04 652.698 698.619
4351.95 712.141 698.401
4354.86 730.364 731.551
4357.77 752.147 780.731
4360.68 859.682 813.767
4363.59 829.471 829.256
4366.5 798.615 797.699
4369.41 765.011 772.092
4372.32 752.649 801.308
4375.23 886.264 791.328
4378.14 735.071 816.213
4381.04 827.305 793.23
4383.95 817.315 781.523
4386.86 699.951 787.125
4389.77 844.108 798.034
4392.68 850.042 849.231
4395.59 853.542 826.858
4398.5 776.989 812.229
4401.41 806.156 794.524
4404.32 800.428 816.654
4407.23 843.379 819.46
4410.14 814.573 802.889
4413.04 750.715 816.258
4415.95 883.486 829.824
4418.86 855.271 887.028
4421.77 922.326 884.093
4424.68 874.681 884.172
4427.59 855.509 888.925
4430.5 936.585 932.559
4433.41 1005.58 968.32
4436.31 962.791 970.842
4439.22 944.153 924.975
4442.13 867.98 920.619
4445.04 949.724 938.754
4447.95 998.559 948.137
4450.85 896.128 934.459
4453.76 908.691 882.651
4456.67 843.135 890.615
4459.58 920.018 891.079
4462.49 910.084 931.588
4465.39 964.662 958.737
4468.3 1001.46 951.217
4471.21 887.526 975.403
4474.12 1037.22 978.859
4477.02 1011.83 1025.4
4479.93 1027.14 962.559
4482.84 848.709 936.928
4485.75 934.938 892.366
4488.65 893.452 967.597
4491.56 1074.4 986.348
4494.47 991.191 995.008
4497.38 919.433 984.891
4500.28 1044.05 990.996
4503.19 1009.51 1014.03
4506.1 988.536 989.485
4509 970.412 1011.78
4511.91 1076.39 1025.01
4514.82 1028.22 1056.28
4517.72 1064.23 1038.56
4520.63 1023.24 1005.62
4523.54 929.407 981.987
4526.44 993.317 980.838
4529.35 1019.79 1001.56
4532.26 991.573 978.194
4535.16 923.217 987.525
4538.07 1047.79 994.146
4540.98 1011.44 1055.91
4543.88 1108.52 1032.36
4546.79 977.118 1036.21
4549.69 1022.99 996.075
4552.6 988.121 1021.55
4555.51 1053.54 1035.36
4558.41 1064.41 1071.08
4561.32 1095.3 1061.68
4564.22 1025.32 1053.25
4567.13 1039.12 1041.71
4570.03 1060.7 1050.87
4572.94 1052.78 1049.48
4575.85 1034.96 1064.35
4578.75 1105.3 1059.96
4581.66 1039.61 1011.46
4584.56 889.476 1012.27
4587.47 1107.73 1016.6
4590.37 1052.61 1131.98
4593.28 1235.59 1125.27
4596.18 1087.61 1165.05
4599.09 1171.94 1105.2
4601.99 1056.06 1090.77
4604.9 1044.31 1097.34
4607.8 1191.64 1146.31
4610.71 1202.98 1160.94
4613.61 1088.2 1144.34
4616.52 1141.85 1121.73
4619.42 1135.14 1145.1
4622.32 1158.3 1181.41
4625.23 1250.8 1189.96
4628.13 1160.8 1125.65
4631.04 965.343 1101.66
4633.94 1178.84 1113.81
4636.85 1197.24 1161.6
4639.75 1108.73 1173.47
4642.65 1214.44 1149.8
4645.56 1126.22 1160.34
4648.46 1140.34 1117.12
4651.37 1084.79 1126.74
4654.27 1155.09 1149.4
4657.17 1208.32 1162.09
4660.08 1122.86 1172.38
4662.98 1185.94 1117.31
4665.88 1043.12 1151.23
4668.79 1224.63 1172.28
4671.69 1249.1 1205.35
4674.59 1142.34 1160.63
4677.5 1090.44 1141.82
4680.4 1192.69 1145.49
4683.3 1153.35 1158.36
4686.21 1129.03 1133.77
4689.11 1118.91 1123.34
4692.01 1122.09 1142.23
4694.92 1185.68 1151.93
4697.82 1148.02 1173.26
4700.72 1186.08 1168.33
4703.62 1170.91 1163.9
4706.53 1134.71 1183.87
4709.43 1245.98 1197.9
4712.33 1213.01 1217.53
4715.23 1193.59 1195
4718.14 1178.39 1157.13
4721.04 1099.4 1162.17
4723.94 1208.7 1138.41
4726.84 1107.12 1132.59
4729.75 1081.94 1081.19
4732.65 1054.5 1136.91
4735.55 1274.28 1172.41
4738.45 1188.43 1205.78
4741.35 1154.63 1160.03
4744.25 1137.02 1162.75
4747.16 1196.6 1135.19
4750.06 1071.96 1152.89
4752.96 1190.12 1177.66
4755.86 1270.9 1195.2
4758.76 1124.58 1219.86
4761.66 1264.1 1212.21
4764.57 1247.95 1248.67
4767.47 1233.96 1170.13
4770.37 1028.48 1152.42
4773.27 1194.82 1105.12
4776.17 1092.05 1127.68
4779.07 1096.18 1126.37
4781.97 1190.89 1148.86
4784.87 1159.49 1195.22
4787.77 1235.29 1245.23
4790.67 1340.89 1271.95
4793.57 1239.65 1258.82
4796.47 1195.93 1231.14
4799.38 1257.84 1193.87
4802.28 1127.83 1186.78
4805.18 1174.66 1147.75
4808.08 1140.74 1178.77
4810.98 1220.91 1221.98
4813.88 1304.31 1274.51
4816.78 1298.31 1261.44
4819.68 1181.69 1256.96
4822.58 1290.89 1222.59
4825.48 1195.18 1258.02
4828.38 1288 1271.63
4831.28 1331.7 1312.56
4834.18 1317.97 1282.39
4837.07 1197.51 1233.44
4839.97 1184.86 1203.44
4842.87 1227.94 1223.17
4845.77 1256.72 1238.59
4848.67 1231.1 1194.17
4851.57 1094.67 1120.04
4854.47 1034.34 1076.46
4857.37 1100.36 1044.64
4860.27 999.229 1050.47
4863.17 1051.82 1074.11
4866.07 1171.28 1133.76
4868.97 1178.18 1180.75
4871.86 1192.79 1190.77
4874.76 1201.35 1209.78
4877.66 1235.2 1219.92
4880.56 1223.21 1194.23
4883.46 1124.28 1166.07
4886.36 1150.72 1117.49
4889.25 1077.48 1152.41
4892.15 1229.03 1161.01
4895.05 1176.52 1212.81
4897.95 1232.88 1189.4
4900.85 1158.8 1185.9
4903.74 1166 1187.56
4906.64 1237.87 1207.56
4909.54 1218.8 1225.44
4912.44 1219.63 1187.7
4915.34 1124.65 1167.05
4918.23 1156.85 1150.32
4921.13 1169.45 1161.26
4924.03 1157.48 1171.2
4926.93 1186.67 1178.32
4929.82 1190.79 1201.88
4932.72 1228.16 1259.57
4935.62 1359.74 1297.11
4938.51 1303.42 1317.1
4941.41 1288.13 1301.11
4944.31 1311.79 1298.37
4947.2 1295.18 1298.74
4950.1 1289.25 1279.55
4953 1254.2 1228.99
4955.89 1143.52 1163.98
4958.79 1094.21 1193.98
4961.69 1344.21 1249.91
4964.58 1311.31 1320.31
4967.48 1305.4 1305.86
4970.38 1300.87 1343.05
4973.27 1422.87 1326.53
4976.17 1255.86 1297.45
4979.06 1213.61 1236.87
4981.96 1241.16 1258.66
4984.86 1321.21 1278.63
4987.75 1273.51 1347.47
4990.65 1447.7 1346.49
4993.54 1318.27 1391.09
4996.44 1407.31 1355.99
4999.33 1342.41 1330.41
5002.23 1241.51 1309.34
5005.12 1344.1 1267.34
5008.02 1216.4 1241.56
5010.92 1164.17 1209.63
5013.81 1248.33 1233.44
5016.71 1287.81 1264.68
5019.6 1257.89 1306.9
5022.5 1374.99 1329.21
5025.39 1354.74 1301.57
5028.28 1175 1309.36
5031.18 1398.33 1321.27
5034.07 1390.48 1405.31
5036.97 1427.11 1373.59
5039.86 1303.18 1338.41
5042.76 1284.94 1337.77
5045.65 1425.19 1368.92
5048.55 1396.64 1392.24
5051.44 1354.89 1328.44
5054.33 1233.8 1341.13
5057.23 1434.69 1348.47
5060.12 1376.92 1368.78
5063.01 1294.73 1367.53
5065.91 1430.93 1371.31
5068.8 1388.26 1418.94
5071.7 1437.64 1393.46
5074.59 1354.49 1356.04
5077.48 1275.99 1323.35
5080.38 1339.57 1339.09
5083.27 1401.71 1343.68
5086.16 1289.76 1392.58
5089.05 1486.27 1418.15
5091.95 1478.41 1400.5
5094.84 1236.8 1353.23
5097.73 1344.47 1333.36
5100.63 1418.81 1391.15
5103.52 1410.16 1419.59
5106.41 1429.78 1407.58
5109.3 1382.79 1390.57
5112.2 1359.15 1423.68
5115.09 1529.11 1472.81
5117.98 1530.18 1501.49
5120.87 1445.19 1443.46
5123.77 1355.02 1422.2
5126.66 1466.38 1444.54
5129.55 1512.23 1450.66
5132.44 1373.36 1418.55
5135.33 1370.06 1352.57
5138.22 1314.28 1351.63
5141.12 1370.54 1322.38
5144.01 1282.32 1363.52
5146.9 1437.71 1383.44
5149.79 1430.31 1388.85
5152.68 1298.55 1387.39
5155.57 1433.31 1400.78
5158.46 1470.47 1425.93
5161.35 1374.01 1369.92
5164.25 1265.28 1250.52
5167.14 1112.26 1174.41
5170.03 1145.7 1167.87
5172.92 1245.66 1240.52
5175.81 1330.19 1250.88
5178.7 1176.78 1215.02
5181.59 1138.09 1157.69
5184.48 1158.21 1211.05
5187.37 1336.85 1284.43
5190.26 1358.24 1351.26
5193.15 1358.7 1395.52
5196.04 1469.62 1388.03
5198.93 1335.78 1315.75
5201.82 1141.86 1216.39
5204.71 1171.51 1177.28
5207.6 1218.45 1205.77
5210.49 1227.33 1197.45
5213.38 1146.56 1219.75
5216.27 1285.35 988.67
5219.16 534.104 1040.59
5222.05 1302.33 1029.03
5224.94 1250.67 1235.64
5227.83 1153.93 1231.66
5230.71 1290.39 1238.36
5233.6 1270.76 1300.51
5236.49 1340.37 1312.15
5239.38 1325.32 1087.08
5242.27 595.561 1102.12
5245.16 1385.47 1057.84
5248.05 1192.49 1302.46
5250.94 1329.43 1295.02
5253.82 1363.14 1098.3
5256.71 602.334 1050.31
5259.6 1185.47 984.887
5262.49 1166.86 1148.7
5265.38 1093.76 1176.12
5268.26 1267.73 1221.33
5271.15 1302.51 1275.12
5274.04 1255.13 1284.24
5276.93 1295.09 1251.18
5279.82 1203.31 1255.64
5282.7 1268.52 974.125
5285.59 450.546 1027.73
5288.48 1364.12 1009.42
5291.36 1213.6 1285.37
5294.25 1278.39 1271.75
5297.14 1323.28 1311.4
5300.03 1332.54 1335.15
5302.91 1349.62 1331.94
5305.8 1313.66 1106.17
5308.69 655.216 1107.75
5311.57 1354.37 1129.82
5314.46 1379.87 1324.93
5317.35 1240.56 1055.89
5320.23 547.239 990.28
5323.12 1183.05 990.162
5326 1240.2 1219.28
5328.89 1234.61 1037.17
5331.78 636.699 1037.97
5334.66 1242.61 1048.95
5337.55 1267.54 1048.87
5340.43 636.474 834.943
5343.32 600.819 839.617
5346.21 1281.56 804.247
5349.09 530.363 1015.59
5351.98 1234.86 1022.24
5354.86 1301.49 1287.97
5357.75 1327.55 1302.75
5360.63 1279.21 1325.73
5363.52 1370.44 1337.22
5366.4 1362.01 1314.13
5369.29 1209.95 1287.61
5372.17 1290.86 1246.59
5375.06 1238.97 1266.8
5377.94 1270.59 1317.87
5380.82 1444.05 1339.08
5383.71 1302.61 1367.07
5386.59 1354.56 1299.63
5389.48 1241.71 1317.16
5392.36 1355.21 1283.41
5395.25 1253.3 1300.3
5398.13 1292.4 1302.8
5401.01 1362.71 1247.55
5403.9 1087.53 1018.45
5406.78 605.12 1013.34
5409.66 1347.37 1060.35
5412.55 1228.57 1281.58
5415.43 1268.79 1275.3
5418.31 1328.53 1036.34
5421.2 511.698 789.83
5424.08 529.267 788.712
5426.96 1325.17 841.674
5429.85 670.585 1075.85
5432.73 1231.78 879.77
5435.61 736.94 1124.1
5438.49 1403.58 1179.34
5441.38 1397.49 1386.68
5444.26 1358.98 1342.33
5447.14 1270.54 1095.01
5450.02 655.518 1070.12
5452.91 1284.31 1057.93
5455.79 1233.96 1064.07
5458.67 673.937 1052.45
5461.55 1249.44 1133.36
5464.43 1476.7 1095.63
5467.32 560.761 836.685
5470.2 472.594 811.8
5473.08 1402.05 819.847
5475.96 584.899 1100.99
5478.84 1316.03 803.334
5481.72 509.069 1114.66
5484.6 1518.87 1123.88
5487.49 1343.69 1161.69
5490.37 622.506 1139.26
5493.25 1451.57 1132.44
5496.13 1323.25 1398.46
5499.01 1420.57 1367.66
5501.89 1359.16 1367.27
5504.77 1322.1 1103.33
5507.65 628.73 1099.29
5510.53 1347.06 1161.15
5513.41 1507.66 1198.33
5516.29 740.284 947.449
5519.17 594.408 912.281
5522.05 1402.15 1117.04
5524.93 1354.56 1366.55
5527.81 1342.95 1347.26
5530.69 1344.28 1082.77
5533.57 561.094 1078.18
5536.45 1329.16 1110.82
5539.33 1442.21 1401.47
5542.21 1433.05 1416.5
5545.09 1374.23 1474.96
5547.96 1617.59 1458.02
5550.84 1382.24 1493.67
5553.72 1481.18 1421.8
5556.6 1401.99 1409.6
5559.48 1345.64 1391.95
5562.36 1428.22 1349.46
5565.24 1274.51 1358.52
5568.12 1372.83 1082.55
5570.99 600.312 1106.12
5573.87 1345.23 1134.59
5576.75 1458.23 1024.36
5579.63 269.61 655.829
5582.51 239.648 589.205
5585.38 1258.36 671.102
5588.26 515.303 1046.09
5591.14 1364.61 794.373
5594.02 503.209 820.7
5596.89 594.285 827.555
5599.77 1385.17 882.007
5602.65 666.563 1142.97
5605.52 1377.16 854.14
5608.4 518.697 1083.84
5611.28 1355.66 1067.38
5614.15 1327.77 1386.99
5617.03 1477.54 1409.55
5619.91 1423.33 1440.63
5622.78 1421.02 1402.19
5625.66 1362.22 1393.31
5628.54 1396.67 1393.65
5631.41 1422.06 1429.21
5634.29 1468.9 1439.29
5637.17 1426.9 1192.85
5640.04 682.74 938.989
5642.92 707.326 905.534
5645.79 1326.53 1151.96
5648.67 1422.02 1370.04
5651.54 1361.57 1373.89
5654.42 1338.1 1305.36
5657.29 1216.42 1016.89
5660.17 496.144 775.659
5663.04 614.417 839.455
5665.92 1407.8 1146.73
5668.79 1417.97 1419.97
5671.67 1434.13 1128.79
5674.54 534.28 1101.26
5677.42 1335.37 1078.87
5680.29 1366.96 1389.3
5683.17 1465.57 1389.34
5686.04 1335.49 1374.51
5688.91 1322.47 1327.49
5691.79 1324.49 1317.02
5694.66 1304.09 1354.21
5697.54 1434.04 1343.66
5700.41 1292.84 1364.01
5703.28 1365.14 1329
5706.16 1329.01 1358.36
5709.03 1380.92 1328.68
5711.9 1276.11 1056.21
5714.78 511.608 1061.74
5717.65 1397.5 1127.98
5720.52 1474.83 1375.31
5723.4 1253.62 1350.99
5726.27 1324.52 1315.83
5729.14 1369.34 1080.75
5732.01 548.382 1144.88
5734.89 1516.91 1118.27
5737.76 1289.53 1357.45
5740.63 1265.9 1279.72
5743.5 1283.72 1271.18
5746.37 1263.92 1305.76
5749.25 1369.65 1296.78
5752.12 1256.77 1248.59
5754.99 1119.35 1208.98
5757.86 1250.81 1240.75
5760.73 1352.07 1023.06
5763.6 466.307 766.133
5766.47 480.021 740.174
5769.35 1274.19 1040.25
5772.22 1366.53 1008.76
5775.09 385.569 1036.43
5777.96 1357.2 1019.95
5780.83 1317.09 1071.78
5783.7 541.047 775.673
5786.57 468.888 783.926
5789.44 1341.84 770.152
5792.31 499.725 1041.35
5795.18 1282.49 768.591
5798.05 523.555 801.885
5800.92 599.606 819.364
5803.79 1334.93 1070.82
5806.66 1277.93 1040.11
5809.53 507.47 1003.64
5812.4 1225.53 1021.41
5815.27 1331.24 1294.65
5818.14 1327.17 1047.07
5821.01 482.8 1027.16
5823.88 1271.5 1020.99
5826.75 1308.67 1295.98
5829.61 1307.77 1352.2
5832.48 1440.16 1359.53
5835.35 1330.65 1096.26
5838.22 517.976 1032.51
5841.09 1248.9 1025.1
5843.96 1308.43 1300.47
5846.82 1344.08 1026.83
5849.69 427.974 1083.5
5852.56 1478.43 1091.88
5855.43 1369.22 1140.16
5858.3 572.825 1120.09
5861.16 1418.22 1063.58
5864.03 1199.69 1342.26
5866.9 1408.85 1013.31
5869.77 431.377 1023.34
5872.63 1229.79 739.688
5875.5 557.897 1065.41
5878.37 1408.56 1109.42
5881.23 1361.8 993.303
5884.1 209.547 924.595
5886.97 1202.43 534.377
5889.83 191.149 539.671
5892.7 225.431 562.622
5895.57 1271.29 636.754
5898.43 413.545 1003.39
5901.3 1325.33 737.817
5904.16 474.575 1053.17
5907.03 1359.6 800.37
5909.9 566.938 1128.47
5912.76 1458.87 1133.42
5915.63 1374.46 1432.45
5918.49 1464.02 1419.87
5921.36 1421.15 1485.67
5924.22 1571.84 1203.17
5927.09 616.506 914.322
5929.95 554.618 631.081
5932.82 722.119 917.512
5935.68 1475.8 937.494
5938.55 614.564 1176.01
5941.41 1437.66 1165.8
5944.28 1445.19 1103.25
5947.14 426.913 729.059
5950 315.077 764.997
5952.87 1553 1106.92
5955.73 1452.69 1212.47
5958.6 631.721 860.42
5961.46 496.844 869.607
5964.32 1480.26 1134.75
5967.19 1427.15 1147.5
5970.05 535.109 863.207
5972.91 627.362 803.5
5975.78 1248.03 1123.07
5978.64 1493.81 1413.12
5981.5 1497.53 1429.22
5984.36 1296.32 1419.1
5987.23 1463.46 1416.73
5990.09 1490.4 1447.84
5992.95 1389.65 1394.71
5995.81 1304.07 1425.12
5998.68 1581.63 1408.54
6001.54 1339.91 1487.49
6004.4 1540.91 1383.39
6007.26 1269.33 1426.4
6010.12 1468.96 1110.69
6012.98 593.769 1179.88
6015.85 1476.91 1127.57
6018.71 1312.03 1400.29
6021.57 1411.93 1341.81
6024.43 1301.46 1115.73
6027.29 633.8 1087.22
6030.15 1326.41 1102.75
6033.01 1348.03 1069.4
6035.87 533.751 1114.66
6038.73 1462.21 1129.38
6041.59 1392.19 1425.96
6044.45 1423.5 1412.73
6047.31 1422.51 1409.22
6050.17 1381.66 1389.72
6053.03 1364.99 1392.65
6055.89 1431.3 1367.78
6058.75 1307.05 1403.26
6061.61 1471.43 1397.81
6064.47 1414.96 1410.28
6067.33 1344.46 1110.95
6070.19 573.447 1107.21
6073.05 1403.73 1154
6075.91 1484.82 1118.97
6078.77 468.355 872.456
6081.62 664.197 845.301
6084.48 1403.35 1169
6087.34 1439.46 1392.53
6090.2 1334.78 1358.57
6093.06 1301.46 1043.44
6095.92 494.07 1122.72
6098.77 1572.62 1150.67
6101.63 1385.33 1180.58
6104.49 583.796 1120.09
6107.35 1391.14 1168.22
6110.2 1529.7 1475.05
6113.06 1504.32 1226.17
6115.92 644.48 1180.49
6118.78 1392.66 1175.8
6121.63 1490.27 1444.01
6124.49 1449.09 1474.46
6127.35 1484.01 1438.93
6130.2 1383.7 1375.26
6133.06 1258.08 1363.59
6135.92 1449.01 1342.51
6138.77 1320.45 1352.7
6141.63 1288.64 1364.59
6144.48 1484.69 1125.08
6147.34 601.914 1167.79
6150.19 1416.76 1115.42
6153.05 1327.59 1358.03
6155.91 1329.74 1367.29
6158.76 1444.53 1371.89
6161.62 1341.4 1148.56
6164.47 659.736 1137.03
6167.33 1409.96 1173.11
6170.18 1449.63 1402.47
6173.04 1347.83 1373.61
6175.89 1323.37 1340.97
6178.74 1351.72 1089.46
6181.6 593.279 1096.5
6184.45 1344.51 1110.61
6187.31 1394.03 1114.31
6190.16 604.4 1115.75
6193.01 1348.82 838.928
6195.87 563.56 1103.44
6198.72 1397.93 832.657
6201.57 536.48 800.425
6204.43 466.864 756.888
6207.28 1267.32 1018.98
6210.13 1322.75 1289.42
6212.99 1278.18 1082.92
6215.84 647.824 875.002
6218.69 698.997 923.354
6221.54 1423.24 891.88
6224.4 553.4 1106.63
6227.25 1343.26 1098.26
6230.1 1398.12 1314.73
6232.95 1202.82 1313.65
6235.8 1340.01 1314.23
6238.66 1399.87 1077.95
6241.51 493.975 1068.29
6244.36 1311.04 1049.28
6247.21 1342.82 1322.92
6250.06 1314.88 1323.71
6252.91 1313.42 1323.35
6255.76 1341.75 1305.37
6258.61 1260.94 1002.44
6261.46 404.639 1061.06
6264.32 1517.6 1107.32
6267.17 1399.72 1407.33
6270.02 1304.66 1344.51
6272.87 1329.14 1352.32
6275.72 1423.16 1370.3
6278.57 1358.59 1316.16
6281.42 1166.74 1300.14
6284.27 1375.09 1302.86
6287.11 1366.76 1330.96
6289.96 1251.03 1298.48
6292.81 1277.65 1285.4
6295.66 1327.52 865.879
6298.51 -7.53717 930.115
6301.36 1470.36 930.839
6304.21 1329.69 1026.15
6307.06 278.384 990.299
6309.91 1362.82 1002.18
6312.75 1365.34 1339.84
6315.6 1291.37 1317.64
6318.45 1296.21 1084.53
6321.3 665.997 1119.9
6324.15 1397.5 1162.38
6326.99 1423.65 1145.13
6329.84 614.233 1146.94
6332.69 1402.93 1121.59
6335.53 1347.6 1387.01
6338.38 1410.49 1367.95
6341.23 1345.75 1383.26
6344.08 1393.54 1111.64
6346.92 595.635 1131.79
6349.77 1406.21 1138.44
6352.61 1413.46 1357.24
6355.46 1252.04 1016.68
6358.31 384.542 671.477
6361.15 377.853 384.253
6364 390.365 720.288
6366.84 1392.65 1023.99
6369.69 1288.96 1297.85
6372.54 1211.94 1003.61
6375.38 509.922 1001.94
6378.23 1283.95 1027.08
6381.07 1287.37 1313.27
6383.92 1368.48 1297.52
6386.76 1236.69 1325.78
6389.6 1372.16 1224.8
6392.45 1065.54 1233.42
6395.29 1262.55 1226.88
6398.14 1352.54 1293.1
6400.98 1264.2 1038.71
6403.83 499.386 997.497
6406.67 1228.91 978.627
6409.51 1207.59 1276.3
6412.36 1392.4 1259.98
6415.2 1179.95 988.57
6418.04 393.367 967.854
6420.89 1330.25 981.183
6423.73 1219.93 1246.2
6426.57 1188.41 1222.62
6429.41 1259.52 1008.52
6432.26 577.641 1030
6435.1 1252.83 798.275
6437.94 564.353 1004.63
6440.78 1196.71 1013.96
6443.63 1280.81 1269.8
6446.47 1331.87 1329.16
6449.31 1374.78 1319.2
6452.15 1250.95 1022.37
6454.99 441.383 788.886
6457.83 674.321 815.283
6460.67 1330.15 1081.35
6463.51 1239.59 1243.65
6466.36 1161.22 1258.95
6469.2 1376.04 1062.19
6472.04 649.312 1129.31
6474.88 1362.57 1123.16
6477.72 1357.6 1344.85
6480.56 1314.37 1307.78
6483.4 1251.37 1270.12
6486.24 1244.63 1211.21
6489.08 1137.63 1191.02
6491.92 1190.81 1180.85
6494.76 1214.1 1179.38
6497.59 1133.25 1164.3
6500.43 1145.56 843.945
6503.27 253.028 782.692
6506.11 949.484 529
6508.95 384.489 855.532
6511.79 1232.62 898.987
6514.63 1079.85 923.073
6517.46 456.749 869.676
6520.3 1072.43 905.097
6523.14 1186.11 1089.21
6525.98 1009.09 1088
6528.82 1068.8 1097.41
6531.65 1214.34 1124.6
6534.49 1090.66 1136.65
6537.33 1104.96 858.34
6540.17 379.408 843.629
6543 1046.52 600.645
6545.84 376.003 843.927
6548.68 1109.25 866.512
6551.51 1114.28 1044.89
6554.35 911.127 960.558
6557.18 856.27 897.848
6560.02 926.147 899.813
6562.86 917.022 953.267
6565.69 1016.63 754.287
6568.53 329.207 821.353
6571.36 1118.22 834.501
6574.2 1056.08 1126.74
6577.03 1205.93 878.745
6579.87 374.232 902.937
6582.7 1128.65 901.17
6585.54 1200.62 1171.2
6588.37 1184.33 1238.23
6591.21 1329.73 1231.87
6594.04 1181.55 1249.94
6596.87 1238.54 1158.61
6599.71 1055.75 1178.91
6602.54 1242.44 1092.94
6605.38 980.63 1106.62
6608.21 1096.8 1097.73
6611.04 1215.75 905.681
6613.88 404.491 917.906
6616.71 1133.48 871.107
6619.54 1075.36 1121.93
6622.37 1156.95 887.993
6625.21 431.672 933.476
6628.04 1211.8 762.278
6630.87 643.36 807.367
6633.7 566.939 540.66
6636.54 411.681 713.099
6639.37 1160.68 900.978
6642.2 1130.58 1144.61
6645.03 1142.57 945.853
6647.86 564.411 720.569
6650.69 454.724 760.533
6653.52 1262.47 932.894
6656.36 1081.49 912.815
6659.19 394.487 908.777
6662.02 1250.35 969.03
6664.85 1262.25 1260.14
6667.68 1267.83 1002.87
6670.51 478.539 720.533
6673.34 415.229 697.145
6676.17 1197.67 963.625
6679 1277.98 1212.58
6681.83 1162.1 1221.69
6684.66 1224.99 1221.46
6687.49 1277.28 1212.34
6690.31 1134.75 1176.73
6693.14 1118.14 1137.22
6695.97 1158.75 911.156
6698.8 456.573 918.093
6701.63 1138.96 924.21
6704.46 1177.1 1149.26
6707.29 1131.71 1096.92
6710.11 981.934 820.503
6712.94 347.862 836.379
6715.77 1179.34 866.999
6718.6 1073.79 1156.74
6721.42 1217.09 858.796
6724.25 285.504 848.951
6727.08 1044.26 785.424
6729.9 1026.51 1028.57
6732.73 1014.93 1058.93
6735.56 1135.34 1085.56
6738.38 1106.4 864.886
6741.21 352.913 860.152
6744.04 1121.14 888.141
6746.86 1190.37 1144.9
6749.69 1123.18 1136.31
6752.51 1095.38 1135.89
6755.34 1189.1 1121.57
6758.16 1080.23 1173.88
6760.99 1252.31 1145.89
6763.81 1105.12 1174.68
6766.64 1166.61 1163.37
6769.46 1218.38 1171.22
6772.29 1128.67 938.03
6775.11 467.043 896.036
6777.94 1092.4 698.092
6780.76 534.835 694.793
6783.58 457.146 698.072
6786.41 1102.23 877.35
6789.23 1072.67 1125.23
6792.06 1200.78 1085.38
6794.88 982.683 1069.89
6797.7 1026.2 1090.84
6800.52 1263.63 1168.67
6803.35 1216.17 1237.93
6806.17 1233.98 1200.5
6808.99 1151.33 1183.23
6811.81 1164.38 952.209
6814.64 540.915 963.842
6817.46 1186.23 912.467
6820.28 1010.26 1106.18
6823.1 1122.07 850.044
6825.92 417.809 911.304
6828.74 1194.04 678.378
6831.57 423.287 925.997
6834.39 1160.67 905.13
6837.21 1131.44 1138.63
6840.03 1123.79 888.412
6842.85 410.009 904.524
6845.67 1179.77 918.2
6848.49 1164.82 1177.77
6851.31 1188.71 1139.7
6854.13 1065.58 1077.4
6856.95 977.9 1024.95
6859.77 1031.37 995.621
6862.59 977.594 726.198
6865.41 169.632 642.085
6868.22 779.029 409.808
6871.04 280.765 666.442
6873.86 939.531 731.759
6876.68 974.982 757.823
6879.5 358.956 766.484
6882.32 965.514 739.891
6885.14 895.204 952.291
6887.95 996.156 940.766
6890.77 930.939 952.626
6893.59 930.785 952.067
6896.41 994.478 983.53
6899.22 1025.33 1018.39
6902.04 1035.38 812.603
6904.86 377.107 804.723
6907.67 1001.68 595.353
6910.49 407.266 821.481
6913.31 1055.49 878.093
6916.12 1171.52 1130.87
6918.94 1165.59 1160.56
6921.75 1144.59 1133.96
6924.57 1091.72 1127
6927.38 1144.7 1092.61
6930.2 1041.42 892.892
6933.02 492.554 927.459
6935.83 1248.4 935.593
6938.64 1065.82 1115.83
6941.46 1033.28 1051.93
6944.27 1056.69 1066.2
6947.09 1108.64 1117.63
6949.9 1187.56 1138.5
6952.72 1119.29 1135.04
6955.53 1098.27 1141.35
6958.34 1206.49 1154.65
6961.16 1159.18 1144.44
6963.97 1067.65 1114.43
6966.78 1116.47 909.655
6969.6 544.847 932.245
6972.41 1135.42 926.572
6975.22 1099.45 1103.36
6978.03 1075.21 1108.76
6980.85 1151.63 1120.86
6983.66 1135.75 936.452
6986.47 521.979 926.614
6989.28 1122.12 904.408
6992.09 1069.13 862.816
6994.9 397.202 873.215
6997.72 1153.31 899.161
7000.53 1146.97 1167.05
7003.34 1200.86 1187.25
7006.15 1213.94 1176.77
7008.96 1115.52 888.152
7011.77 334.991 860.575
7014.58 1131.21 637.018
7017.39 444.854 876.482
7020.2 1053.38 872.061
7023.01 1117.94 1083.75
7025.82 1079.92 1058.22
7028.63 976.788 1045.54
7031.44 1079.92 1015.33
7034.25 989.278 1037.74
7037.05 1044.03 1042.02
7039.86 1092.74 1056.49
7042.67 1032.71 853.053
7045.48 433.71 784.914
7048.29 888.327 795.067
7051.09 1063.17 1057.93
7053.9 1222.31 1103.45
7056.71 1024.87 1116.25
7059.52 1101.57 869.255
7062.32 481.318 899.686
7065.13 1116.17 692.79
7067.94 480.883 903.499
7070.74 1113.44 893.422
7073.55 1085.94 1107.73
7076.36 1123.81 1102.25
7079.16 1096.99 897.425
7081.97 471.466 891.284
7084.78 1105.39 881.131
7087.58 1066.54 1102.44
7090.39 1135.4 914.405
7093.19 541.278 944.25
7096 1156.07 926.76
7098.8 1082.93 1092.12
7101.61 1037.36 850.312
7104.41 430.65 860.891
7107.21 1114.67 882.666
7110.02 1102.68 951.021
7112.82 635.716 738.572
7115.63 477.319 733.911
7118.43 1088.7 911.603
7121.23 1168.79 1099.59
7124.04 1041.27 884.28
7126.84 442.779 842.233
7129.64 1042.65 645.34
7132.45 450.591 638.733
7135.25 422.958 638.994
7138.05 1043.43 834.331
7140.85 1036.6 1064.19
7143.65 1112.54 1033.74
7146.46 952.068 1040.1
7149.26 1055.71 1039.54
7152.06 1110.85 830.322
7154.86 324.401 837.207
7157.66 1076.37 819.854
7160.46 1058.79 1053.74
7163.26 1026.07 1021.34
7166.06 979.165 810.064
7168.86 424.959 815.675
7171.66 1042.9 805.2
7174.46 947.742 994.082
7177.26 991.603 983.538
7180.06 1011.27 954.593
7182.86 860.907 960.504
7185.66 1009.34 905.152
7188.46 845.212 749.431
7191.26 393.744 542.506
7194.06 388.562 382.564
7196.86 365.385 564.215
7199.65 938.699 748.784
7202.45 942.268 948.963
7205.25 965.921 969.107
7208.05 999.132 802.734
7210.85 443.15 634.028
7213.64 459.802 645.06
7216.44 1032.23 833.045
7219.24 1007.1 1029.7
7222.03 1049.77 1009.9
7224.83 972.82 1019.96
7227.63 1037.29 953.245
7230.42 849.621 954.502
7233.22 976.592 936.188
7236.01 982.352 710.4
7238.81 172.257 737.768
7241.61 1058.7 717.816
7244.4 922.495 992.037
7247.2 994.918 953.629
7249.99 943.472 989.083
7252.79 1028.86 947.036
7255.58 868.777 926.597
7258.37 882.157 874.644
7261.17 872.999 871.478
7263.96 859.279 853.115
7266.76 827.068 872.815
7269.55 932.097 911.174
7272.34 974.359 908.546
7275.14 819.183 907.931
7277.93 930.252 903.457
7280.72 960.936 930.472
7283.51 900.228 922.757
7286.31 907.107 923.144
7289.1 962.097 918.592
7291.89 886.571 941.083
7294.68 974.58 963.177
7297.47 1028.38 976.374
7300.27 926.162 952.384
7303.06 902.609 733.02
7305.85 370.289 717.689
7308.64 880.169 510.38
7311.43 280.682 445.221
7314.22 174.813 462.139
7317.01 930.923 690.428
7319.8 965.548 932.199
7322.59 900.125 694.751
7325.38 218.58 696.355
7328.17 970.362 501.717
7330.96 316.21 524.958
7333.75 288.303 468.88
7336.54 802.126 653.412
7339.33 869.805 615.632
7342.11 174.965 442.335
7344.9 282.235 440.169
7347.69 863.307 483.787
7350.48 305.82 693.202
7353.27 910.48 516.81
7356.05 334.13 733.213
7358.84 955.031 777.426
7361.63 1043.12 976.601
7364.42 931.653 959.037
7367.2 902.339 858.237
7369.99 740.718 858.4
7372.77 932.142 853.624
7375.56 888.013 873.456
7378.35 800.213 683.015
7381.13 360.819 468.955
7383.92 245.833 524.984
7386.7 968.3 517.859
7389.49 339.443 745.675
7392.27 929.282 725.917
7395.06 909.025 954.576
7397.84 1025.42 908.271
7400.63 790.368 900.715
7403.41 886.354 821.668
7406.2 788.283 859.089
7408.98 902.631 804.898
7411.76 723.782 669.99
7414.55 383.556 691.303
7417.33 966.57 737.165
7420.11 861.369 902.227
7422.9 878.741 875.026
7425.68 884.968 900.096
7428.46 936.581 899.535
7431.24 877.057 907.39
7434.02 908.531 707.53
7436.81 337.001 689.89
7439.59 824.137 668.118
7442.37 843.217 657.792
7445.15 306.023 722.591
7447.93 1018.53 738.926
7450.71 892.222 947.458
7453.49 931.619 873.408
7456.27 796.383 839.311
7459.05 789.931 802.804
7461.83 822.098 770.353
7464.61 699.03 757.407
7467.39 751.092 782.623
7470.17 897.746 807.436
7472.95 773.47 809.174
7475.73 756.305 777.127
7478.51 801.608 621.381
7481.29 306.231 456.327
7484.07 261.143 489.03
7486.84 899.715 656.236
7489.62 807.85 820.582
7492.4 754.181 773.484
7495.18 758.421 743.929
7497.95 719.186 758.131
7500.73 796.784 592.716
7503.51 262.178 592.258
7506.28 717.812 601.749
7509.06 825.258 746.005
7511.84 694.944 803.127
7514.61 889.178 783.376
7517.39 766.006 598.246
7520.17 139.556 559.655
7522.94 773.404 568.154
7525.72 791.504 781.93
7528.49 780.882 806.988
7531.27 848.577 778.788
7534.04 706.906 756.056
7536.81 712.686 704.933
7539.59 695.207 563.41
7542.36 282.337 591.607
7545.14 797.276 587.117
7547.91 681.739 760.693
7550.68 803.062 720.625
7553.46 677.073 722.522
7556.23 687.429 707.609
7559 758.325 574.904
7561.77 278.957 575.864
7564.55 690.31 597.138
7567.32 822.147 752.597
7570.09 745.335 590.58
7572.86 204.259 403.493
7575.63 260.884 408.777
7578.41 761.189 577.123
7581.18 709.297 722.992
7583.95 698.49 678.213
7586.72 626.852 654.933
7589.49 639.458 413.57
7592.26 -25.5991 268.308
7595.03 191.064 -45.345
7597.8 -301.5 -112.645
7600.57 -227.499 -147.698
7603.34 85.9038 -0.122999
7606.11 141.226 147.886
7608.87 216.529 228.91
7611.64 328.975 330.238
7614.41 445.21 411.668
7617.18 460.819 451.108
7619.95 447.296 427.159
7622.72 373.363 406.119
7625.48 397.697 371.817
7628.25 344.392 227.038
7631.02 -60.976 214.696
7633.79 360.672 180.347
7636.55 241.344 338.087
7639.32 412.246 359.648
7642.08 425.355 292.956
7644.85 41.2665 295.303
7647.62 419.288 301.185
7650.38 443 330.773
7653.15 130.033 366.527
7655.91 526.549 379.885
7658.68 483.074 404.789
7661.44 204.744 297.731
7664.21 205.375 217.463
7666.97 242.269 334.007
7669.74 554.378 472.081
7672.5 619.595 477.308
7675.26 257.952 510.482
7678.03 653.9 510.3
7680.79 619.048 669.485
7683.55 735.509 636.755
7686.32 555.708 502.434
7689.08 216.085 487.624
7691.84 691.08 489.578
7694.6 561.569 641.138
7697.37 670.765 631.443
7700.13 661.996 656.336
7702.89 636.248 519.578
7705.65 260.491 525.856
7708.41 680.828 531.313
7711.17 652.621 656.739
7713.93 636.767 651.495
7716.69 665.095 669.77
7719.45 707.448 643.931
7722.21 559.249 635.823
7724.97 640.773 629.519
7727.73 688.537 484.355
7730.49 123.754 473.702
7733.25 608.816 476.641
7736.01 697.354 631.228
7738.77 587.515 482.799
7741.53 163.529 447.885
7744.29 592.611 444.231
7747.04 576.551 394.817
7749.8 15.2882 412.268
7752.56 644.964 431.874
7755.32 635.369 650.179
7758.07 670.203 604.878
7760.83 509.06 600.625
7763.59 622.61 454.859
7766.34 232.906 489.538
7769.1 613.098 346.972
7771.85 194.911 453.372
7774.61 552.108 449.357
7777.37 601.05 616.175
7780.12 695.367 634.673
7782.88 607.602 482.97
7785.63 145.942 447.569
7788.39 589.162 452.649
7791.14 622.843 604.582
7793.89 601.74 583.671
7796.65 526.431 419.344
7799.4 129.863 413.745
7802.16 584.94 288.164
7804.91 149.689 443.544
7807.66 596.002 395.153
7810.41 439.769 443.91
7813.17 295.961 463.347
7815.92 654.312 513.356
7818.67 589.794 626.573
7821.42 635.611 604.638
7824.17 588.509 430.433
7826.93 67.18 413.598
7829.68 585.104 395.165
7832.43 533.211 587.46
7835.18 644.066 599.3
7837.93 620.623 621.976
7840.68 601.241 588.897
7843.43 544.827 567.379
7846.18 556.069 562.274
7848.93 585.925 555.228
7851.68 523.689 610.325
7854.43 721.362 585.385
7857.18 511.103 431.947
7859.93 63.3772 381.668
7862.67 570.524 374.741
7865.42 490.322 568.279
7868.17 643.992 585.876
7870.92 623.313 624.851
7873.66 607.248 599.233
7876.41 567.137 575.346
7879.16 551.654 416.985
7881.91 132.164 443.023
7884.65 645.251 294.936
7887.4 107.391 423.981
7890.14 519.301 234.339
7892.89 76.3239 390.484
7895.64 575.829 409.019
7898.38 574.904 594.692
7901.13 633.342 441.429
7903.87 116.04 432.41
7906.62 547.848 392.2
7909.36 512.71 538.45
7912.1 554.792 568.078
7914.85 636.731 589.862
7917.59 578.065 392.547
7920.34 -37.1554 358.107
7923.08 533.41 350.248
7925.82 554.488 545.056
7928.57 547.269 550.569
7931.31 549.949 535.563
7934.05 509.472 550.493
7936.79 592.058 519.779
7939.53 457.807 412.227
7942.28 186.816 374.91
7945.02 480.107 414.72
7947.76 577.238 519.065
7950.5 499.849 553.89
7953.24 584.584 525.794
7955.98 492.949 560.425
7958.72 603.744 554.267
7961.46 566.108 574.581
7964.2 553.892 552.746
7966.94 538.238 553.586
7969.68 568.627 556.924
7972.42 563.907 557.112
7975.16 538.803 389.403
7977.89 65.4986 381.061
7980.63 538.882 375.003
7983.37 520.629 532.599
7986.11 538.286 504.902
7988.85 455.791 339.253
7991.58 23.6833 203.245
7994.32 130.262 231.077
7997.06 539.286 411.208
7999.79 564.075 524.75
8002.53 470.89 474.511
8005.27 388.567 449.926
8008 490.322 465.829
8010.74 518.598 506.825
8013.47 511.553 476.938
8016.21 400.661 468.637
8018.94 493.697 443.003
8021.68 434.649 346.584
8024.41 111.405 353.517
8027.15 514.496 360.407
8029.88 455.321 499.372
8032.61 528.298 494.821
8035.35 500.844 421.613
8038.08 235.697 437.103
8040.81 574.768 445.525
8043.54 526.109 519.353
8046.28 457.181 506.702
8049.01 536.817 500.378
8051.74 507.135 515.481
8054.47 502.49 515.863
8057.2 537.963 526.884
8059.94 540.199 418.377
8062.67 176.968 317.143
8065.4 234.263 204.728
8068.13 202.953 285.938
8070.86 420.597 270.16
8073.59 186.93 363.336
8076.32 482.481 294.075
8079.05 212.814 390.509
8081.78 476.233 295.387
8084.5 197.115 359.192
8087.23 404.227 385.38
8089.96 554.798 490.33
8092.69 511.964 417.502
8095.42 185.744 412.992
8098.15 541.266 385.752
8100.87 430.244 493.884
8103.6 510.143 464.435
8106.33 452.916 488.446
8109.05 502.278 375.362
8111.78 170.89 388.688
8114.51 492.895 385.537
8117.23 492.824 465.096
8119.96 409.569 436.173
8122.68 406.126 430.075
8125.41 474.53 354.827
8128.13 183.825 260.825
8130.86 124.12 252.069
8133.58 448.262 352.458
8136.31 484.994 378.428
8139.03 202.028 257.031
8141.75 84.0706 269.091
8144.48 521.174 344.791
8147.2 429.129 352.089
8149.92 105.964 319.032
8152.65 422.004 210.383
8155.37 103.181 338.931
8158.09 491.606 260.834
8160.81 187.713 280.266
8163.53 161.48 127.417
8166.26 33.0595 111.103
8168.98 138.771 223.087
8171.7 497.43 351.992
8174.42 419.775 333.416
8177.14 83.0416 302.704
8179.86 405.294 308.875
8182.58 438.288 428.703
8185.3 442.528 377.366
8188.02 251.283 265.837
8190.74 103.701 249.453
8193.46 393.374 318.582
8196.17 458.669 410.208
8198.89 378.58 332.32
8201.61 159.711 241.111
8204.33 185.041 184.469
8207.05 208.653 283.913
8209.76 458.043 275.339
8212.48 159.321 360.541
8215.2 464.257 322.809
8217.91 344.849 397.347
8220.63 382.934 353.106
8223.34 331.536 343.978
8226.06 317.465 339.639
8228.78 369.918 374.407
8231.49 435.84 383.441
8234.21 344.566 408.12
8236.92 443.954 399.307
8239.63 409.403 422.212
8242.35 413.278 383.839
8245.06 328.837 381.986
8247.78 403.843 359.757
8250.49 346.59 353.395
8253.2 309.752 359.835
8255.92 423.162 395.602
8258.63 453.892 407.193
8261.34 344.527 421.173
8264.05 465.1 411.506
8266.76 424.89 452.799
8269.48 468.407 420.901
8272.19 369.405 425.609
8274.9 439.015 432.552
8277.61 489.236 432.811
8280.32 370.181 425.191
8283.03 416.155 383.58
8285.74 364.404 373.846
8288.45 340.979 370.933
8291.16 407.415 359.488
8293.87 330.072 360.289
8296.58 343.38 358.613
8299.28 402.386 364.513
8301.99 347.774 336.196
8304.7 258.429 330.776
8307.41 386.125 303.262
8310.12 265.234 333.418
8312.82 348.896 322.642
8315.53 353.797 329.673
8318.24 286.325 329.892
8320.94 349.553 343.596
8323.65 394.909 352.798
8326.36 313.932 343.926
8329.06 322.936 347.065
8331.77 404.327 364.347
8334.47 365.777 377.386
8337.18 362.052 382.538
8339.88 419.786 401.821
8342.59 423.624 400.978
8345.29 359.524 372.142
8347.99 333.279 308.151
8350.7 231.65 305.234
8353.4 350.774 321.471
8356.1 381.987 381.605
8358.81 412.055 375.646
8361.51 332.895 362.16
8364.21 341.53 318.814
8366.91 282.016 295.673
8369.61 263.471 297.177
8372.31 346.043 336.118
8375.02 398.84 362.026
8377.72 341.195 367.909
8380.42 363.69 349.628
8383.12 343.999 350.269
8385.82 343.118 345.024
8388.52 347.956 352.814
8391.22 367.369 365.202
8393.92 380.281 364.242
8396.61 345.075 385.886
8399.31 432.302 378.342
8402.01 357.649 392.767
8404.71 388.35 361.338
8407.41 338.017 380.042
8410.1 413.758 389.784
8412.8 417.578 393.774
8415.5 349.987 383.765
8418.2 383.729 356.788
8420.89 336.649 354.31
8423.59 342.553 350.58
8426.28 372.538 346.353
8428.98 323.968 330.529
8431.67 295.081 315.48
8434.37 327.391 331.021
8437.06 370.591 365.65
8439.76 398.966 355.924
8442.45 298.214 340.205
8445.15 323.434 341.841
8447.84 403.877 364.909
8450.53 367.417 397.969
8453.23 422.613 375.619
8455.92 336.825 362.171
8458.61 327.075 387.712
8461.3 499.237 378.275
8464 308.515 397.151
8466.69 383.701 350.221
8469.38 358.447 347.552
8472.07 300.51 340.508
8474.76 362.568 349.899
8477.45 386.62 360.309
8480.14 331.739 359.981
8482.83 361.584 330.449
8485.52 298.025 344.294
8488.21 373.274 329.054
8490.9 315.863 344.808
8493.59 345.286 321.539
8496.28 303.468 356.964
8498.97 422.137 346.713
8501.65 314.534 363.591
8504.34 354.101 354.535
8507.03 394.971 337.063
8509.72 262.118 344.142
8512.4 375.337 311.554
8515.09 297.208 347.128
8517.78 368.839 347.043
8520.46 375.083 366.764
8523.15 356.369 361.462
8525.83 352.933 367.809
8528.52 394.125 370.9
8531.2 365.642 354.1
8533.89 302.531 315.712
8536.57 278.963 291.853
8539.26 294.065 277.671
8541.94 259.984 307.611
8544.62 368.784 326.587
8547.31 350.993 366.439
8549.99 379.54 353.795
8552.67 330.853 354.553
8555.35 353.266 351.947
8558.04 371.721 351.245
8560.72 328.747 353.629
8563.4 360.418 365.863
8566.08 408.424 383.062
8568.76 380.344 415.676
8571.44 458.26 387.073
8574.12 322.616 390.063
8576.8 389.313 356.493
8579.48 357.551 373.602
8582.16 373.94 360.346
8584.84 349.547 374.126
8587.52 398.889 344.034
8590.2 283.665 343.775
8592.88 348.771 321.445
8595.55 331.898 361.09
8598.23 402.6 360.202
8600.91 346.109 394.423
8603.59 434.561 364.794
8606.26 313.713 367.813
8608.94 355.165 356.725
8611.61 401.298 387.87
8614.29 407.146 396.133
8616.97 379.955 391.861
8619.64 388.481 381.571
8622.32 376.276 377.645
8624.99 368.176 398.192
8627.67 450.122 399.965
8630.34 381.596 379.886
8633.01 307.938 357.686
8635.69 383.522 336.812
8638.36 318.976 465.976
8641.03 695.431 418.933
8643.71 242.392 445.404
8646.38 398.388 338.149
8649.05 373.666 359.362
8651.72 306.033 339.219
8654.39 337.958 305.832
8657.07 273.506 276.729
8659.74 218.722 269.469
8662.41 316.177 278.772
8665.08 301.416 331.995
8667.75 378.391 335.598
8670.42 326.985 370.454
8673.09 405.986 366.672
8675.76 367.046 367.203
8678.42 328.578 334.952
8681.09 309.232 324.138
8683.76 334.605 345.748
8686.43 393.408 346.883
8689.1 312.636 352.032
8691.76 350.053 346.206
8694.43 375.929 378.71
8697.1 410.149 411.994
8699.76 449.903 405.176
8702.43 355.476 381.072
8705.1 337.836 325.849
8707.76 284.235 322.515
8710.43 345.474 332.166
8713.09 366.788 355.031
8715.76 352.832 366.202
8718.42 378.985 358.55
8721.08 343.834 360.121
8723.75 357.545 378.616
8726.41 434.47 357.682
8729.07 281.031 367.321
8731.74 386.461 346.157
8734.4 370.979 365.955
8737.06 340.423 351.295
8739.72 342.482 352.083
8742.39 373.343 358.115
8745.05 358.521 375.377
8747.71 394.266 370.006
8750.37 357.229 345.218
8753.03 284.158 343.868
8755.69 390.217 345.332
8758.35 361.623 337.569
8761.01 260.866 332.305
8763.67 374.425 320.153
8766.33 325.168 316.299
8768.98 249.304 312.313
8771.64 362.465 345.89
8774.3 425.9 375.553
8776.96 338.294 332.024
8779.62 231.878 272.542
8782.27 247.453 263.371
8784.93 310.782 314.736
8787.59 385.972 346.614
8790.24 343.088 354.289
8792.9 333.808 331.035
8795.55 316.208 335.53
8798.21 356.575 309.402
8800.86 255.424 304.447
8803.52 301.342 254.989
8806.17 208.2 266.155
8808.83 288.925 263.482
8811.48 293.322 315.16
8814.13 363.232 341.113
8816.79 366.784 345.597
8819.44 306.774 348.484
8822.09 371.893 344.415
8824.74 354.577 334.612
8827.39 277.367 309.304
8830.05 295.968 273.047
8832.7 245.808 249.129
8835.35 205.613 265.445
8838 344.913 286.567
8840.65 309.175 289.717
8843.3 215.062 251.991
8845.95 231.736 239.411
8848.6 271.435 241.135
8851.25 220.234 258.516
8853.89 283.877 245.5
8856.54 232.39 251.468
8859.19 238.138 211.678
8861.84 164.506 229.601
8864.49 286.159 219.948
8867.13 209.178 222.398
8869.78 171.858 199.126
8872.43 216.342 201.748
8875.07 217.046 235.293
8877.72 272.491 230.775
8880.36 202.789 237.414
8883.01 236.963 206.72
8885.65 180.409 204.507
8888.3 196.148 207.169
8890.94 244.949 209.512
8893.59 187.437 209.966
8896.23 197.51 222.088
8898.87 281.315 276.062
8901.52 349.36 299.167
8904.16 266.826 281.263
8906.8 227.602 229.024
8909.44 192.642 222.295
8912.08 246.64 226.633
8914.73 240.616 237.238
8917.37 224.459 267.019
8920.01 335.984 288.266
8922.65 304.356 305.753
8925.29 276.92 278.29
8927.93 253.594 282.297
8930.57 316.376 291.138
8933.21 303.444 308.936
8935.84 306.989 319.167
8938.48 347.068 314.989
8941.12 290.909 301.23
8943.76 265.714 273.348
8946.4 263.421 279.882
8949.03 310.512 290.455
8951.67 297.433 304.246
8954.31 304.794 313.249
8956.94 337.52 304.623
8959.58 271.556 266.449
8962.21 190.271 234.007
8964.85 240.193 244.736
8967.48 303.744 282.989
8970.12 305.031 310.068
8972.75 321.43 297.084
8975.39 264.789 298.676
8978.02 309.81 284.069
8980.65 277.607 284.518
8983.29 266.137 261.241
8985.92 239.978 253.404
8988.55 254.097 283.552
8991.18 356.58 288.311
8993.82 254.256 290.981
8996.45 262.108 265.841
8999.08 281.159 246.003
9001.71 194.744 237.646
9004.34 237.035 216.003
9006.97 216.232 228.263
9009.6 231.523 237.139
9012.23 263.662 249.651
9014.86 253.768 280.604
9017.49 324.383 255.478
9020.11 188.284 267.677
9022.74 290.365 268.668
9025.37 327.354 289.881
9028 251.924 279.009
9030.62 257.748 264.68
9033.25 284.369 274.914
9035.88 282.625 286.475
9038.5 292.43 260.009
9041.13 204.972 264.716
9043.75 296.744 252.509
9046.38 255.811 268.504
9049 252.958 254.576
9051.63 254.959 244.992
9054.25 227.059 230.919
9056.88 210.737 217.674
9059.5 215.225 233.891
9062.12 275.711 238.873
9064.74 225.682 259.205
9067.37 276.223 256.086
9069.99 266.353 245.521
9072.61 193.988 210.369
9075.23 170.767 121.585
