wavelength spectrum_sum 3smoothed_sum
3512.31 37.8124 28.2006
3515.23 46.7894 39.8084
3518.15 34.8235 33.7532
3521.07 19.6468 45.2397
3523.99 81.2487 39.7864
3526.92 18.4638 60.9202
3529.84 83.0481 69.7762
3532.76 107.817 86.3161
3535.68 68.0835 89.8093
3538.6 93.5277 68.4866
3541.52 43.8485 76.7163
3544.44 92.7725 70.3919
3547.36 74.5547 89.3111
3550.28 100.606 76.2102
3553.21 53.4698 78.9516
3556.13 82.779 83.6448
3559.05 114.686 90.8603
3561.97 75.1162 69.2177
3564.89 17.8514 52.3614
3567.81 64.1166 41.4715
3570.73 42.4464 64.1369
3573.65 85.8477 54.6939
3576.57 35.7877 66.6731
3579.49 78.3838 43.4921
3582.41 16.3046 40.5376
3585.33 26.9244 37.0954
3588.26 68.0573 68.436
3591.18 110.326 88.3149
3594.1 86.5612 88.358
3597.02 68.1867 77.608
3599.94 78.0761 78.2107
3602.86 88.3695 90.2104
3605.78 104.186 81.8961
3608.7 53.1334 90.1212
3611.62 113.045 68.6919
3614.54 39.8975 76.8107
3617.46 77.4899 63.0226
3620.38 71.6805 78.7933
3623.3 87.2095 75.0434
3626.22 66.2401 88.966
3629.14 113.448 115.623
3632.06 167.182 137.021
3634.98 130.434 147.874
3637.9 146.005 152.269
3640.82 180.368 154.838
3643.74 138.142 151.126
3646.66 134.869 149.06
3649.58 174.169 150.792
3652.5 143.338 166.213
3655.42 181.133 169.919
3658.34 185.286 163.073
3661.26 122.799 141.452
3664.18 116.272 129.588
3667.1 149.692 144.174
3670.02 166.559 147.102
3672.94 125.056 151.151
3675.86 161.839 134.421
3678.78 116.366 130.246
3681.7 112.533 118.705
3684.62 127.214 136.997
3687.53 171.244 160.307
3690.45 182.462 167.173
3693.37 147.814 155.177
3696.29 135.254 163.945
3699.21 208.769 174.665
3702.13 179.971 180.022
3705.05 151.326 163.267
3707.97 158.504 164.226
3710.89 182.846 158.838
3713.81 135.165 152.871
3716.73 140.602 137.09
3719.65 135.503 163.006
3722.56 212.914 170.985
3725.48 164.54 168.792
3728.4 128.922 145.248
3731.32 142.282 135.945
3734.24 136.63 134.841
3737.16 125.611 136.727
3740.08 147.94 156.831
3743 196.943 162.628
3745.91 143.001 177.295
3748.83 191.942 169.512
3751.75 173.592 192.259
3754.67 211.243 203.347
3757.59 225.207 218.194
3760.51 218.132 242.149
3763.42 283.11 237.229
3766.34 210.447 242.163
3769.26 232.931 229.369
3772.18 244.728 243.91
3775.1 254.071 231.442
3778.02 195.528 226.022
3780.93 228.469 227.307
3783.85 257.925 246.503
3786.77 253.116 244.8
3789.69 223.359 241.265
3792.61 247.319 252.403
3795.52 286.531 286.43
3798.44 325.441 272.551
3801.36 205.68 248.914
3804.28 215.621 226.491
3807.2 258.173 247.096
3810.11 267.494 253.955
3813.03 236.198 239.201
3815.95 213.911 220.641
3818.87 211.814 205.812
3821.78 191.71 211.912
3824.7 232.214 195.516
3827.62 162.624 194.912
3830.54 189.898 183.961
3833.45 199.361 191.508
3836.37 185.265 200.79
3839.29 217.743 232.113
3842.21 293.331 250.802
3845.12 241.331 297.294
3848.04 357.219 298.632
3850.96 297.347 300.651
3853.87 247.385 275.737
3856.79 282.479 288.431
3859.71 335.429 316.115
3862.63 330.437 324.399
3865.54 307.33 292.552
3868.46 239.889 251.705
3871.38 207.895 242.595
3874.29 280.002 225.655
3877.21 189.067 245.133
3880.13 266.329 247.245
3883.04 286.338 275.823
3885.96 274.801 292.431
3888.88 316.153 299.144
3891.79 306.479 315.515
3894.71 323.913 316.902
3897.63 320.315 314.747
3900.54 300.014 303.86
3903.46 291.25 327.716
3906.37 391.882 366.387
3909.29 416.027 395.962
3912.21 379.975 374.168
3915.12 326.503 358.012
3918.04 367.559 340.644
3920.96 327.869 314.378
3923.87 247.706 282.528
3926.79 272.009 219.169
3929.7 137.792 199.451
3932.62 188.551 166.009
3935.54 171.684 182.313
3938.45 186.703 214.273
3941.37 284.431 245.519
3944.28 265.423 280.109
3947.2 290.473 324.506
3950.12 417.622 354.755
3953.03 356.171 364.42
3955.95 319.468 334.956
3958.86 329.231 296.949
3961.78 242.15 258.726
3964.69 204.798 234.849
3967.61 257.599 243.982
3970.52 269.55 255.968
3973.44 240.756 291.489
3976.35 364.161 303.229
3979.27 304.77 329.168
3982.19 318.574 353.528
3985.1 437.24 374.944
3988.02 369.019 438.832
3990.93 510.239 459.059
3993.85 497.919 533.358
3996.76 591.916 547.998
3999.68 554.158 516.52
4002.59 403.486 479.385
4005.51 480.509 444.839
4008.42 450.521 492.885
4011.33 547.624 494.55
4014.25 485.506 520.19
4017.16 527.439 515.57
4020.08 533.767 558.98
4022.99 615.736 580.59
4025.91 592.268 579.283
4028.82 529.846 573.621
4031.74 598.749 570.609
4034.65 583.232 579.936
4037.57 557.828 547.992
4040.48 502.916 526.975
4043.39 520.18 533.955
4046.31 578.769 553.745
4049.22 562.285 575.619
4052.14 585.802 569.994
4055.05 561.894 599.739
4057.97 651.519 603.511
4060.88 597.119 579.958
4063.79 491.237 554.738
4066.71 575.857 548.095
4069.62 577.192 586.161
4072.54 605.433 564.292
4075.45 510.252 564.993
4078.36 579.295 575.157
4081.28 635.925 608.592
4084.19 610.557 633.835
4087.1 655.021 641.112
4090.02 657.759 661.991
4092.93 673.194 644.206
4095.84 601.664 620.051
4098.76 585.294 573.608
4101.67 533.865 561.685
4104.58 565.894 574.936
4107.5 625.048 606.004
4110.41 627.069 615.764
4113.32 595.175 635.119
4116.24 683.114 663.576
4119.15 712.441 678.108
4122.06 638.77 685.47
4124.98 705.201 653.106
4127.89 615.348 684.626
4130.8 733.328 658.722
4133.71 627.491 694.024
4136.63 721.254 653.984
4139.54 613.206 689.244
4142.45 733.271 688.28
4145.37 718.362 696.925
4148.28 639.142 680.318
4151.19 683.451 669.119
4154.1 684.764 687.292
4157.02 693.662 660.08
4159.93 601.815 691.264
4162.84 778.315 700.485
4165.75 721.326 728.725
4168.67 686.534 669.91
4171.58 601.871 705.58
4174.49 828.334 701.494
4177.4 674.276 726.864
4180.31 677.983 673.776
4183.23 669.068 684.904
4186.14 707.659 700.921
4189.05 726.036 714.61
4191.96 710.135 739.046
4194.87 780.966 734.744
4197.79 713.132 721.334
4200.7 669.903 721.17
4203.61 780.474 693.377
4206.52 629.754 699.296
4209.43 687.659 667.69
4212.34 685.658 734.227
4215.25 829.363 749.078
4218.17 732.212 737.442
4221.08 650.75 690.537
4223.99 688.647 669.842
4226.9 670.127 699.403
4229.81 739.435 712.822
4232.72 728.904 713.454
4235.63 672.023 711.976
4238.55 735.001 721.077
4241.46 756.207 748.864
4244.37 755.383 735.525
4247.28 694.985 732.237
4250.19 746.343 685.117
4253.1 614.023 688.957
4256.01 706.507 692.017
4258.92 755.521 740.533
4261.83 759.572 757.326
4264.74 756.884 733.627
4267.65 684.424 719.993
4270.56 718.67 682.038
4273.47 643.018 667.377
4276.38 640.442 673.029
4279.29 735.626 696.098
4282.21 712.227 694.376
4285.12 635.275 657.136
4288.03 623.907 681.981
4290.94 786.762 678.576
4293.85 625.059 642.663
4296.76 516.167 555.819
4299.67 526.232 508.554
4302.58 483.262 534.761
4305.49 594.789 558.84
4308.4 598.47 603.569
4311.31 617.448 615.879
4314.22 631.719 646.373
4317.13 689.951 675.759
4320.03 705.608 700.766
4322.94 706.74 718.644
4325.85 743.585 744.769
4328.76 783.983 787.45
4331.67 834.782 810.183
4334.58 811.783 807.575
4337.49 776.159 804.207
4340.4 824.678 783.663
4343.31 750.152 788.662
4346.22 791.156 760.988
4349.13 741.656 750.088
4352.04 717.452 739.112
4354.95 758.228 750.172
4357.86 774.835 808.835
4360.76 893.441 852.13
4363.67 888.112 885.448
4366.58 874.79 871.205
4369.49 850.714 873.247
4372.4 894.237 873.328
4375.31 875.032 873.662
4378.22 851.716 860.551
4381.13 854.905 862.283
4384.03 880.228 816.03
4386.94 712.958 819.672
4389.85 865.832 829.475
4392.76 909.636 883.471
4395.67 874.946 857.867
4398.58 789.02 825.959
4401.48 813.911 828.712
4404.39 883.204 858.233
4407.3 877.585 875.3
4410.21 865.11 860.892
4413.12 839.981 881.062
4416.02 938.095 877.471
4418.93 854.337 917.155
4421.84 959.032 896.101
4424.75 874.934 899.745
4427.65 865.268 913.828
4430.56 1001.28 994.839
4433.47 1117.97 1032.98
4436.38 979.69 1030.11
4439.28 992.666 970.883
4442.19 940.294 1009.89
4445.1 1096.7 1038.26
4448.01 1077.78 1032.56
4450.91 923.194 970.693
4453.82 911.101 905.95
4456.73 883.554 934.288
4459.63 1008.21 949.029
4462.54 955.326 964.598
4465.45 930.261 966.297
4468.36 1013.3 954.649
4471.26 920.383 995.033
4474.17 1051.41 994.666
4477.08 1012.2 1045.27
4479.98 1072.19 1008.66
4482.89 941.594 995.172
4485.8 971.727 925.356
4488.7 862.748 970.331
4491.61 1076.52 994.415
4494.51 1043.98 1016.2
4497.42 928.089 1037.04
4500.33 1139.04 1025.37
4503.23 1008.98 1061.62
4506.14 1036.85 1011.47
4509.05 988.592 1021.86
4511.95 1040.15 1022.11
4514.86 1037.6 1058.26
4517.76 1097.03 1036.6
4520.67 975.169 986.981
4523.58 888.744 974.127
4526.48 1058.47 1013.83
4529.39 1094.27 1063.53
4532.29 1037.85 1000.61
4535.2 869.699 995.25
4538.1 1078.2 986.499
4541.01 1011.59 1053.27
4543.91 1070.02 1022.58
4546.82 986.135 1023.18
4549.72 1013.39 1011.94
4552.63 1036.3 1037.86
4555.53 1063.88 1051.77
4558.44 1055.12 1056.85
4561.34 1051.55 1033.92
4564.25 995.089 1022.71
4567.15 1021.49 1004.21
4570.06 996.059 1048.73
4572.96 1128.63 1062.81
4575.87 1063.75 1102.42
4578.77 1114.88 1070.03
4581.68 1031.46 1014.73
4584.58 897.865 1027.36
4587.49 1152.75 1056.77
4590.39 1119.7 1151.06
4593.3 1180.73 1104.71
4596.2 1013.69 1128.55
4599.1 1191.21 1106.58
4602.01 1114.83 1119.94
4604.91 1053.78 1115.78
4607.82 1178.74 1129.93
4610.72 1157.28 1147.99
4613.62 1107.97 1152.73
4616.53 1192.94 1148.41
4619.43 1144.33 1144.94
4622.34 1097.53 1158.14
4625.24 1232.57 1177.41
4628.14 1202.13 1127.58
4631.05 948.043 1088.44
4633.95 1115.15 1096.8
4636.85 1227.2 1141.8
4639.76 1083.06 1170.54
4642.66 1201.37 1145.83
4645.56 1153.06 1156.07
4648.47 1113.76 1105.23
4651.37 1048.88 1101.05
4654.27 1140.51 1119.46
4657.18 1168.99 1151.78
4660.08 1145.83 1155.96
4662.98 1153.08 1109.32
4665.89 1029.07 1127.66
4668.79 1200.83 1132.2
4671.69 1166.69 1153.62
4674.59 1093.33 1117.27
4677.5 1091.79 1124.4
4680.4 1188.09 1136.04
4683.3 1128.25 1130.21
4686.2 1074.28 1081.24
4689.11 1041.19 1046.61
4692.01 1024.36 1060.68
4694.91 1116.49 1061.92
4697.81 1044.91 1129.87
4700.71 1228.21 1135.96
4703.62 1134.77 1119.32
4706.52 995 1093.96
4709.42 1152.11 1107.72
4712.32 1176.06 1151.67
4715.22 1126.83 1162.81
4718.13 1185.56 1137.1
4721.03 1098.9 1148.15
4723.93 1159.98 1099.64
4726.83 1040.05 1065.16
4729.73 995.452 1002.73
4732.63 972.703 1066.9
4735.53 1232.54 1124.24
4738.44 1167.49 1173.81
4741.34 1121.42 1109.71
4744.24 1040.21 1086.6
4747.14 1098.16 1066.35
4750.04 1060.68 1102.59
4752.94 1148.93 1141.21
4755.84 1214.02 1106.86
4758.74 957.638 1112.88
4761.64 1166.99 1123.48
4764.54 1245.83 1198.15
4767.44 1181.65 1126.06
4770.34 950.705 1097.36
4773.24 1159.74 1046.76
4776.15 1029.85 1083.15
4779.05 1059.87 1086.89
4781.95 1170.95 1121.85
4784.85 1134.74 1140.68
4787.75 1116.35 1179.73
4790.65 1288.09 1179.2
4793.55 1133.15 1183.02
4796.45 1127.83 1166.01
4799.35 1237.05 1143.86
4802.25 1066.71 1153.33
4805.15 1156.22 1097.27
4808.04 1068.89 1138.88
4810.94 1191.54 1173.08
4813.84 1258.8 1221.99
4816.74 1215.64 1186.58
4819.64 1085.3 1185.19
4822.54 1254.62 1149.43
4825.44 1108.37 1192.33
4828.34 1214 1215.61
4831.24 1324.45 1262.29
4834.14 1248.41 1226.18
4837.04 1105.67 1174.52
4839.94 1169.48 1179.78
4842.84 1264.18 1199.31
4845.73 1164.29 1181.16
4848.63 1115.02 1129.94
4851.53 1110.5 1075.08
4854.43 999.708 1048.94
4857.33 1036.61 943.459
4860.23 794.055 919.242
4863.13 927.059 935.485
4866.02 1085.34 1027.86
4868.92 1071.19 1071.7
4871.82 1058.58 1057.48
4874.72 1042.66 1076.68
4877.62 1128.81 1078.89
4880.51 1065.21 1063.76
4883.41 997.257 1060.15
4886.31 1117.99 1044.13
4889.21 1017.14 1099.13
4892.1 1162.27 1082.73
4895 1068.78 1133.09
4897.9 1168.21 1074
4900.8 985.015 1084.25
4903.69 1099.52 1067.9
4906.59 1119.15 1110.8
4909.49 1113.72 1106.08
4912.39 1085.35 1059.03
4915.28 978.022 1035.34
4918.18 1042.66 1018.15
4921.08 1033.78 1043.96
4923.97 1055.44 1046.75
4926.87 1051.02 1071.55
4929.77 1108.19 1078.2
4932.66 1075.38 1137.99
4935.56 1230.4 1161
4938.46 1177.23 1196.08
4941.35 1180.62 1182.53
4944.25 1189.74 1178.5
4947.15 1165.14 1172.56
4950.04 1162.8 1123.73
4952.94 1043.26 1090.91
4955.84 1066.67 1025.16
4958.73 965.558 1098.89
4961.63 1264.43 1132.91
4964.52 1168.73 1220.59
4967.42 1228.61 1215.51
4970.31 1249.2 1260.61
4973.21 1304 1252.09
4976.11 1203.07 1214.39
4979 1136.09 1134.4
4981.9 1064.04 1139.38
4984.79 1218 1130.45
4987.69 1109.31 1212.7
4990.58 1310.81 1223.13
4993.48 1249.27 1307.38
4996.37 1362.07 1276.41
4999.27 1217.91 1232.96
5002.16 1118.9 1157.69
5005.06 1136.26 1113.79
5007.95 1086.2 1078.49
5010.85 1013.03 1068.11
5013.74 1105.09 1098.04
5016.64 1175.99 1108.72
5019.53 1045.08 1178.49
5022.42 1314.39 1194.22
5025.32 1223.17 1181.01
5028.21 1005.46 1172.5
5031.11 1288.87 1175.72
5034 1232.83 1275.98
5036.9 1306.25 1233.74
5039.79 1162.13 1207.63
5042.68 1154.51 1208.87
5045.58 1309.98 1266.62
5048.47 1335.39 1277.82
5051.36 1188.1 1203.02
5054.26 1085.58 1185.33
5057.15 1282.31 1218.28
5060.05 1286.94 1236.89
5062.94 1141.42 1244.23
5065.83 1304.31 1241.4
5068.72 1278.47 1313.63
5071.62 1358.12 1296.65
5074.51 1253.37 1264.45
5077.4 1181.85 1220.92
5080.3 1227.54 1227.93
5083.19 1274.4 1221.26
5086.08 1161.84 1275.44
5088.97 1390.07 1303.29
5091.87 1357.96 1318.13
5094.76 1206.35 1270.83
5097.65 1248.19 1251.56
5100.54 1300.14 1292.32
5103.44 1328.63 1285.79
5106.33 1228.6 1273.87
5109.22 1264.38 1271.72
5112.11 1322.16 1350.5
5115.01 1464.95 1413.91
5117.9 1454.61 1478.88
5120.79 1517.07 1443.95
5123.68 1360.18 1429.65
5126.57 1411.71 1380.96
5129.46 1370.98 1360.4
5132.36 1298.5 1303.68
5135.25 1241.54 1226.26
5138.14 1138.75 1240.84
5141.03 1342.23 1231.98
5143.92 1214.96 1284.41
5146.81 1296.04 1270.68
5149.7 1301.05 1290.68
5152.59 1274.95 1315.11
5155.48 1369.33 1337.13
5158.38 1367.12 1326.02
5161.27 1241.62 1265.15
5164.16 1186.71 1161
5167.05 1054.68 1096.71
5169.94 1048.75 1101.38
5172.83 1200.7 1158.15
5175.72 1225 1151.57
5178.61 1029.02 1103
5181.5 1054.97 1048.31
5184.39 1060.93 1107.72
5187.28 1207.28 1173.22
5190.17 1251.45 1254.42
5193.06 1304.53 1322.78
5195.95 1412.35 1333.28
5198.84 1282.96 1267.67
5201.73 1107.72 1186.63
5204.62 1169.21 1227.87
5207.51 1406.69 1297.78
5210.4 1317.43 1317.78
5213.28 1229.2 1322.34
5216.17 1420.4 1311.59
5219.06 1285.18 1330.91
5221.95 1287.17 1267.57
5224.84 1230.35 1250.69
5227.73 1234.55 1283.41
5230.62 1385.34 1285.63
5233.51 1236.99 1349.29
5236.4 1425.55 1353.08
5239.28 1396.7 1389.93
5242.17 1347.52 1375.99
5245.06 1383.75 1335.94
5247.95 1276.55 1355.79
5250.84 1407.05 1372.32
5253.72 1433.37 1362.62
5256.61 1247.45 1285.36
5259.5 1175.25 1212.44
5262.39 1214.63 1163.62
5265.28 1100.99 1228.95
5268.16 1371.24 1253.72
5271.05 1288.94 1344.31
5273.94 1372.74 1346.13
5276.83 1376.71 1342.49
5279.71 1278.02 1320.76
5282.6 1307.56 1246.18
5285.49 1152.95 1272.23
5288.38 1356.17 1285.53
5291.26 1347.46 1336.41
5294.15 1305.6 1348.98
5297.04 1393.88 1348.46
5299.92 1345.91 1363.42
5302.81 1350.47 1342.73
5305.7 1331.81 1345.08
5308.58 1352.98 1367.81
5311.47 1418.64 1394.5
5314.35 1411.87 1361.77
5317.24 1254.8 1306.1
5320.13 1251.63 1250.4
5323.01 1244.76 1217.65
5325.9 1156.57 1229.65
5328.78 1287.62 1295.79
5331.67 1443.17 1309.68
5334.56 1198.26 1309.01
5337.44 1285.61 1281.08
5340.33 1359.37 1346.57
5343.21 1394.74 1387.22
5346.1 1407.56 1354.38
5348.98 1260.83 1316.32
5351.87 1280.57 1307.63
5354.75 1381.49 1320.57
5357.64 1299.64 1306.02
5360.52 1236.92 1306.08
5363.41 1381.68 1323.93
5366.29 1353.19 1322.41
5369.18 1232.36 1279.59
5372.06 1253.22 1234.24
5374.95 1217.13 1274.17
5377.83 1352.17 1345.83
5380.72 1468.21 1379.07
5383.6 1316.84 1367.45
5386.48 1317.31 1309.22
5389.37 1293.5 1320.96
5392.25 1352.06 1342.99
5395.14 1383.39 1344.27
5398.02 1297.35 1338.13
5400.9 1333.65 1248.91
5403.79 1115.74 1239.53
5406.67 1269.19 1245.03
5409.55 1350.17 1258.72
5412.44 1156.78 1256.78
5415.32 1263.39 1257.1
5418.2 1351.13 1276.68
5421.09 1215.5 1312.27
5423.97 1370.16 1303.11
5426.85 1323.66 1403.58
5429.73 1516.91 1313.52
5432.62 1099.99 1341.7
5435.5 1408.19 1274.97
5438.38 1316.74 1345.39
5441.26 1311.24 1318.5
5444.15 1327.52 1288.28
5447.03 1226.08 1359.46
5449.91 1524.79 1349.28
5452.79 1296.97 1377.34
5455.68 1310.25 1336.86
5458.56 1403.37 1297.99
5461.44 1180.36 1339.12
5464.32 1433.63 1302.29
5467.2 1292.88 1356.8
5470.08 1343.88 1316.23
5472.97 1311.94 1308.72
5475.85 1270.35 1299.65
5478.73 1316.64 1264.84
5481.61 1207.54 1332.2
5484.49 1472.42 1345.94
5487.37 1357.85 1388.79
5490.25 1336.11 1399.65
5493.13 1504.98 1396.63
5496.01 1348.79 1436.4
5498.89 1455.42 1399.32
5501.77 1393.75 1404.07
5504.65 1363.05 1359.37
5507.53 1321.32 1327.17
5510.41 1297.14 1373.04
5513.29 1500.66 1419.68
5516.17 1461.25 1416.59
5519.05 1287.85 1356.15
5521.93 1319.35 1308.21
5524.81 1317.42 1345.46
5527.69 1399.62 1335.15
5530.57 1288.41 1343.37
5533.45 1342.07 1305.72
5536.33 1286.68 1351.71
5539.21 1426.38 1388.76
5542.09 1453.21 1405.22
5544.97 1336.08 1437.32
5547.85 1522.66 1399.24
5550.73 1338.98 1442.71
5553.61 1466.5 1396.13
5556.48 1382.91 1353.23
5559.36 1210.29 1308.94
5562.24 1333.63 1234.64
5565.12 1160 1240.12
5568 1226.74 1274.21
5570.88 1435.9 1314.92
5573.75 1282.12 1353.49
5576.63 1342.45 1271.76
5579.51 1190.71 1212.26
5582.39 1103.62 1188.22
5585.27 1270.33 1207.77
5588.14 1249.37 1271.55
5591.02 1294.94 1256.9
5593.9 1226.39 1293.04
5596.78 1357.8 1287.01
5599.65 1276.85 1340.66
5602.53 1387.35 1311.14
5605.41 1269.22 1340.3
5608.28 1364.33 1347.82
5611.16 1409.89 1361.58
5614.04 1310.52 1374.17
5616.91 1402.09 1350.38
5619.79 1338.52 1363.56
5622.67 1350.08 1320.87
5625.54 1274.02 1305.41
5628.42 1292.13 1290.51
5631.3 1305.38 1337.37
5634.17 1414.6 1363.2
5637.05 1369.62 1412.81
5639.92 1454.2 1392.05
5642.8 1352.31 1357.09
5645.67 1264.76 1318.05
5648.55 1337.09 1297.61
5651.43 1290.97 1299.49
5654.3 1270.4 1224.35
5657.18 1111.67 1207.89
5660.05 1241.6 1197.97
5662.93 1240.66 1241.45
5665.8 1242.09 1261.97
5668.68 1303.15 1286.15
5671.55 1313.19 1307.96
5674.43 1307.55 1266.92
5677.3 1180.02 1247.06
5680.17 1253.61 1283.02
5683.05 1415.43 1272.31
5685.92 1147.89 1256.06
5688.8 1204.87 1173.9
5691.67 1168.95 1182.99
5694.54 1175.15 1203.52
5697.42 1266.45 1218.79
5700.29 1214.79 1222.37
5703.17 1185.88 1182.88
5706.04 1147.96 1194.2
5708.91 1248.75 1187.8
5711.79 1166.7 1179.15
5714.66 1121.99 1188.04
5717.53 1275.42 1292.37
5720.41 1479.7 1268.68
5723.28 1050.94 1232.92
5726.15 1168.12 1159.45
5729.02 1259.29 1198.7
5731.9 1168.69 1218.62
5734.77 1227.89 1170.99
5737.64 1116.39 1155.2
5740.51 1121.33 1115.81
5743.39 1109.71 1115.81
5746.26 1116.4 1146.36
5749.13 1212.96 1111.13
5752 1004.03 1073.4
5754.87 1003.22 1024.55
5757.74 1066.39 1062.21
5760.62 1117.01 1077.61
5763.49 1049.43 1090.03
5766.36 1103.66 1135.46
5769.23 1253.29 1186.05
5772.1 1201.2 1149.97
5774.97 995.426 1118.82
5777.84 1159.82 1060.31
5780.71 1025.7 1111.38
5783.58 1148.62 1128.7
5786.45 1211.78 1193.64
5789.33 1220.52 1186.54
5792.2 1127.31 1136.12
5795.07 1060.52 1113.66
5797.94 1153.16 1134.19
5800.81 1188.88 1178.63
5803.68 1193.85 1146.97
5806.55 1058.18 1151.75
5809.42 1203.22 1084.7
5812.28 992.677 1111.42
5815.15 1138.34 1081.84
5818.02 1114.49 1124.18
5820.89 1119.71 1104.78
5823.76 1080.15 1127.96
5826.63 1184.02 1157.93
5829.5 1209.61 1214.52
5832.37 1249.94 1232.71
5835.24 1238.57 1241.07
5838.11 1234.69 1193.33
5840.97 1106.73 1170.06
5843.84 1168.76 1165.52
5846.71 1221.07 1130.26
5849.58 1000.96 1175.85
5852.45 1305.54 1161.07
5855.32 1176.71 1239.13
5858.18 1235.15 1217.73
5861.05 1241.32 1150.6
5863.92 975.311 1133.99
5866.79 1185.34 1068.92
5869.65 1046.1 1089.43
5872.52 1036.84 1110.12
5875.39 1247.43 1184.17
5878.26 1268.25 1236.26
5881.12 1193.1 1154.42
5883.99 1001.92 1122.28
5886.86 1171.82 1088.01
5889.72 1090.3 1109.17
5892.59 1065.38 1105.02
5895.46 1159.38 1144.16
5898.32 1207.73 1172.67
5901.19 1150.92 1195.15
5904.05 1226.79 1215.49
5906.92 1268.76 1249.54
5909.79 1253.07 1278.64
5912.65 1314.08 1252.59
5915.52 1190.6 1276.87
5918.38 1325.91 1267.36
5921.25 1285.57 1340.5
5924.11 1410.02 1302.34
5926.98 1211.42 1263.5
5929.84 1169.07 1271.9
5932.71 1435.19 1286.99
5935.57 1256.7 1317.22
5938.44 1259.76 1256.68
5941.3 1253.6 1235.14
5944.17 1192.06 1197.75
5947.03 1147.6 1100.99
5949.9 963.306 1161.17
5952.76 1372.61 1197.69
5955.62 1257.15 1329.53
5958.49 1358.84 1286.15
5961.35 1242.46 1301.22
5964.22 1302.37 1264.97
5967.08 1250.09 1258.7
5969.94 1223.63 1276.63
5972.81 1356.16 1218.42
5975.67 1075.47 1250.09
5978.53 1318.63 1223.51
5981.4 1276.44 1232
5984.26 1100.94 1208.74
5987.12 1248.82 1235.82
5989.98 1357.7 1274.25
5992.85 1216.24 1229.73
5995.71 1115.26 1231.99
5998.57 1364.46 1213.66
6001.43 1161.27 1287.11
6004.3 1335.61 1192.53
6007.16 1080.7 1215.75
6010.02 1230.93 1181.85
6012.88 1233.91 1246.91
6015.74 1275.89 1251.15
6018.6 1243.66 1256.7
6021.47 1250.53 1175.15
6024.33 1031.26 1209.39
6027.19 1346.38 1161.55
6030.05 1107.01 1186.66
6032.91 1106.6 1142.95
6035.77 1215.25 1179.54
6038.63 1216.77 1185.82
6041.49 1125.44 1193.88
6044.35 1239.44 1215.12
6047.21 1280.47 1226.29
6050.07 1158.96 1229.87
6052.93 1250.17 1233.01
6055.79 1289.89 1197.51
6058.65 1052.47 1210.81
6061.51 1290.06 1188.25
6064.37 1222.2 1208.82
6067.23 1114.2 1179.25
6070.09 1201.35 1180.03
6072.95 1224.53 1250.31
6075.81 1325.05 1183.07
6078.67 999.617 1240.67
6081.53 1397.35 1210.85
6084.39 1235.57 1308.41
6087.24 1292.32 1215.83
6090.1 1119.61 1168.64
6092.96 1093.98 1142.1
6095.82 1212.72 1235.65
6098.68 1400.25 1259.51
6101.54 1165.56 1264.63
6104.39 1228.07 1221.71
6107.25 1271.51 1302.16
6110.11 1406.9 1345.6
6112.97 1358.4 1338.71
6115.82 1250.83 1277.41
6118.68 1222.99 1294.9
6121.54 1410.89 1289.58
6124.4 1234.87 1306.92
6127.25 1275 1229.5
6130.11 1178.63 1196.99
6132.97 1137.35 1217.02
6135.82 1335.09 1205.13
6138.68 1142.94 1190.77
6141.53 1094.26 1200.13
6144.39 1363.18 1217.53
6147.25 1195.14 1282.39
6150.1 1288.86 1197.2
6152.96 1107.59 1229.78
6155.81 1292.88 1209.27
6158.67 1227.34 1230.09
6161.53 1170.04 1240.88
6164.38 1325.26 1249.66
6167.24 1253.67 1302.22
6170.09 1327.73 1272.83
6172.95 1237.11 1253.43
6175.8 1195.44 1200.8
6178.66 1169.83 1176.44
6181.51 1164.06 1200.52
6184.36 1267.68 1223.3
6187.22 1238.17 1241.25
6190.07 1217.9 1222.76
6192.93 1212.22 1183.13
6195.78 1119.27 1213.77
6198.63 1309.83 1201.98
6201.49 1176.85 1185.7
6204.34 1070.42 1134.09
6207.19 1155.01 1110.62
6210.05 1106.44 1147.61
6212.9 1181.38 1168.93
6215.75 1218.96 1235.35
6218.61 1305.7 1279.64
6221.46 1314.26 1276.49
6224.31 1209.49 1233.41
6227.17 1176.49 1222.56
6230.02 1281.71 1167.46
6232.87 1044.17 1184.91
6235.72 1228.84 1170.13
6238.57 1237.38 1214.63
6241.43 1177.68 1196.7
6244.28 1175.03 1188.4
6247.13 1212.5 1164.42
6249.98 1105.74 1172.87
6252.83 1200.36 1191.18
6255.68 1267.45 1209.44
6258.53 1160.5 1162.72
6261.39 1060.22 1194.02
6264.24 1361.33 1223.58
6267.09 1249.2 1256.66
6269.94 1159.47 1152.48
6272.79 1048.77 1174.51
6275.64 1315.29 1210.45
6278.49 1267.31 1163.98
6281.34 909.355 1154.5
6284.19 1286.84 1169.87
6287.04 1313.43 1243.06
6289.89 1128.91 1198.96
6292.74 1154.54 1163.04
6295.59 1205.67 1197.12
6298.44 1231.15 1257.64
6301.28 1336.1 1250.84
6304.13 1185.27 1219.21
6306.98 1136.25 1186.18
6309.83 1237.01 1199.54
6312.68 1225.34 1244.11
6315.53 1269.98 1202.79
6318.38 1113.05 1219.72
6321.22 1276.12 1229.33
6324.07 1298.84 1280.5
6326.92 1266.54 1263.93
6329.77 1226.41 1247.89
6332.62 1250.72 1229.4
6335.46 1211.06 1262.06
6338.31 1324.4 1239.46
6341.16 1182.9 1234.71
6344.01 1196.84 1216.61
6346.85 1270.09 1237.96
6349.7 1246.95 1239.27
6352.55 1200.79 1192.62
6355.39 1130.13 1128.93
6358.24 1055.88 1110.19
6361.09 1144.55 1084.73
6363.93 1053.76 1153.81
6366.78 1263.11 1145.38
6369.62 1119.26 1113.53
6372.47 958.216 1058.7
6375.31 1098.62 1038.29
6378.16 1058.04 1104.77
6381.01 1157.65 1151.97
6383.85 1240.21 1131.86
6386.7 997.718 1168.2
6389.54 1266.66 1040.46
6392.39 856.994 1063.77
6395.23 1067.66 1025.1
6398.07 1150.66 1087.19
6400.92 1043.24 1055.33
6403.76 972.106 1010.55
6406.61 1016.31 996.337
6409.45 1000.59 1094.05
6412.3 1265.23 1107.06
6415.14 1055.35 1093.76
6417.98 960.713 1044.01
6420.83 1115.97 1052.2
6423.67 1079.91 1082.68
6426.51 1052.17 1065.15
6429.36 1063.37 1074.99
6432.2 1109.42 1090.16
6435.04 1097.69 1084.96
6437.88 1047.76 1049.59
6440.73 1003.31 1046.55
6443.57 1088.58 1094.07
6446.41 1190.31 1160.39
6449.25 1202.28 1145.77
6452.09 1044.72 1073.11
6454.94 972.327 1059
6457.78 1159.96 1125.62
6460.62 1244.58 1131.91
6463.46 991.197 1068.97
6466.3 971.13 1041.39
6469.14 1161.86 1089.56
6471.98 1135.68 1177.39
6474.82 1234.62 1192.16
6477.67 1206.17 1169.58
6480.51 1067.95 1105.41
6483.35 1042.11 1059.41
6486.19 1068.17 1040.73
6489.03 1011.91 1038.27
6491.87 1034.72 1065.64
6494.71 1150.29 1097.35
6497.55 1107.04 1120.7
6500.38 1104.76 1062.45
6503.22 975.536 999.549
6506.06 918.35 990.634
6508.9 1078.02 1060.81
6511.74 1186.07 1112.1
6514.58 1072.22 1119.44
6517.42 1100.04 1081.63
6520.26 1072.64 1108.25
6523.1 1152.08 1068.38
6525.93 980.427 1071.14
6528.77 1080.9 1082.99
6531.61 1187.64 1116.35
6534.45 1080.5 1107.6
6537.28 1054.65 1032.98
6540.12 963.768 1036.21
6542.96 1090.21 1019.8
6545.8 1005.43 1062.87
6548.63 1092.96 997.416
6551.47 893.859 958.607
6554.31 889.004 816.164
6557.14 665.63 804.117
6559.98 857.717 803.989
6562.82 888.62 887.809
6565.65 917.092 900.049
6568.49 894.436 962.935
6571.32 1077.28 1000.22
6574.16 1028.95 1084.36
6577 1146.87 1040.88
6579.83 946.83 1073.72
6582.67 1127.46 1062.54
6585.5 1113.32 1114.44
6588.34 1102.54 1158.46
6591.17 1259.54 1178.46
6594.01 1173.3 1195.86
6596.84 1154.73 1090.73
6599.67 944.151 1065.92
6602.51 1098.9 1001.29
6605.34 960.808 1039.59
6608.18 1059.06 1058.59
6611.01 1155.89 1053.39
6613.84 945.226 1042.9
6616.68 1027.59 997.701
6619.51 1020.29 1056.11
6622.34 1120.45 1034.56
6625.18 962.935 1079
6628.01 1153.61 1103.96
6630.84 1195.35 1209.96
6633.68 1280.93 1163.64
6636.51 1014.65 1134.83
6639.34 1108.9 1060.4
6642.17 1057.65 1054.74
6645 997.678 1074.17
6647.84 1167.18 1049.07
6650.67 982.352 1109.88
6653.5 1180.11 1056.67
6656.33 1007.54 1082.49
6659.16 1059.82 1104.06
6661.99 1244.83 1171.96
6664.82 1211.25 1225.37
6667.65 1220.04 1167.8
6670.48 1072.12 1103.5
6673.31 1018.34 1072.87
6676.15 1128.15 1109.11
6678.98 1180.85 1145.43
6681.81 1127.3 1145.66
6684.64 1128.83 1178.23
6687.46 1278.58 1152.67
6690.29 1050.61 1133.24
6693.12 1070.53 1058.24
6695.95 1053.59 1064.65
6698.78 1069.82 1055.1
6701.61 1041.89 1069.55
6704.44 1096.93 1025.92
6707.27 938.94 969.855
6710.1 873.69 933.928
6712.92 989.154 951.963
6715.75 993.045 992.129
6718.58 994.187 1033.37
6721.41 1112.88 998.392
6724.24 888.115 970.453
6727.06 910.369 869.548
6729.89 810.161 855.052
6732.72 844.625 870.26
6735.54 955.992 904.402
6738.37 912.59 926.663
6741.2 911.408 923.337
6744.02 946.012 943.632
6746.85 973.475 960.192
6749.68 961.089 964.644
6752.5 959.368 981.19
6755.33 1023.11 973.98
6758.16 939.459 1032.59
6760.98 1135.19 1025.95
6763.81 1003.21 1048.44
6766.63 1006.92 1024.2
6769.46 1062.49 1003.7
6772.28 941.688 1032.16
6775.11 1092.32 1001.1
6777.93 969.29 1037.81
6780.76 1051.81 998.59
6783.58 974.668 1026.21
6786.4 1052.16 990.508
6789.23 944.699 988.614
6792.05 968.987 888.539
6794.88 751.931 871.607
6797.7 893.904 919.735
6800.52 1113.37 1024.37
6803.35 1065.84 1114.47
6806.17 1164.2 1106.13
6808.99 1088.35 1100.6
6811.81 1049.24 1094.86
6814.64 1146.99 1091.45
6817.46 1078.1 1045.15
6820.28 910.37 992.565
6823.1 989.223 957.247
6825.92 972.148 1012.99
6828.75 1077.61 1037.05
6831.57 1061.38 1031.8
6834.39 956.402 1001.3
6837.21 986.118 983.905
6840.03 1009.2 995.102
6842.85 989.992 993.448
6845.67 981.156 1006.38
6848.49 1047.99 1027.65
6851.31 1053.81 1043.32
6854.13 1028.16 1010.3
6856.95 948.946 990.823
6859.77 995.367 942.31
6862.59 882.616 877.746
6865.41 755.255 750.147
6868.23 612.57 747.326
6871.05 874.151 765.715
6873.87 810.423 848.421
6876.69 860.689 850.121
6879.51 879.251 863.078
6882.33 849.295 832.677
6885.15 769.484 834.681
6887.96 885.265 858.258
6890.78 920.026 878.616
6893.6 830.557 871.521
6896.42 863.98 871.655
6899.24 920.428 891.888
6902.05 891.256 917.174
6904.87 939.839 933.397
6907.69 969.095 954.095
6910.5 953.353 945.876
6913.32 915.181 976.148
6916.14 1059.91 1010.99
6918.95 1057.89 1068.93
6921.77 1089 1055.49
6924.59 1019.57 1055.23
6927.4 1057.13 1027.74
6930.22 1006.53 1033.91
6933.03 1038.07 1052.07
6935.85 1111.59 1033.45
6938.66 950.669 1001.61
6941.48 942.561 955.441
6944.29 973.092 979.6
6947.11 1023.15 1009.86
6949.92 1033.35 1025.25
6952.74 1019.24 1036.23
6955.55 1056.11 1057.39
6958.37 1096.83 1064.1
6961.18 1039.37 1016.22
6963.99 912.473 967.802
6966.81 951.564 980.683
6969.62 1078.01 1015.7
6972.43 1017.51 1051.48
6975.25 1058.9 1029.53
6978.06 1012.17 1058.24
6980.87 1103.65 1045.11
6983.68 1019.52 1050.77
6986.5 1029.14 1015.36
6989.31 997.414 993.395
6992.12 953.627 958.943
6994.93 925.786 962.854
6997.74 1009.15 980.997
7000.56 1008.06 1036.05
7003.37 1090.96 1059.62
7006.18 1079.83 1036.62
7008.99 939.071 966.111
7011.8 879.431 935.397
7014.61 987.689 932.353
7017.42 929.938 963.002
7020.23 971.379 986.568
7023.04 1058.39 1012.72
7025.85 1008.39 990.147
7028.66 903.668 993.832
7031.47 1069.44 948.347
7034.28 871.929 956.532
7037.09 928.225 958.797
7039.9 1076.24 968.629
7042.71 901.426 985.923
7045.52 980.105 871.963
7048.32 734.36 892.034
7051.13 961.639 967.618
7053.94 1206.85 1049.68
7056.75 980.544 1068.21
7059.56 1017.22 1015.45
7062.36 1048.57 1026.58
7065.17 1013.95 1016.13
7067.98 985.852 981.513
7070.79 944.733 961.968
7073.59 955.318 950.633
7076.4 951.849 976.569
7079.21 1022.54 962.261
7082.01 912.395 1006.6
7084.82 1084.85 976.031
7087.62 930.846 1005.74
7090.43 1001.51 998.201
7093.24 1062.25 1024.62
7096.04 1010.09 1016.9
7098.85 978.354 931.428
7101.65 805.835 887.666
7104.46 878.81 904.432
7107.26 1028.65 970.771
7110.07 1004.85 1056.39
7112.87 1135.66 1039.71
7115.67 978.637 1055.01
7118.48 1050.73 1058.8
7121.28 1147.03 1069
7124.08 1009.24 1014.28
7126.89 886.565 969.512
7129.69 1012.73 936.113
7132.49 909.044 944.984
7135.3 913.176 932.094
7138.1 974.063 955.48
7140.9 979.201 980.738
7143.71 988.95 939.639
7146.51 850.765 934.856
7149.31 964.853 933.931
7152.11 986.177 912.585
7154.91 786.725 936.292
7157.71 1035.97 927.017
7160.52 958.351 984.08
7163.32 957.915 928.504
7166.12 869.245 915.23
7168.92 918.531 934.717
7171.72 1016.38 938.362
7174.52 880.18 933.635
7177.32 904.347 899.418
7180.12 913.728 845.994
7182.92 719.906 855.167
7185.72 931.867 831.81
7188.52 843.658 884.091
7191.32 876.75 866.239
7194.12 878.31 853.437
7196.91 805.251 848.556
7199.71 862.107 870.434
7202.51 943.943 890.297
7205.31 864.839 907.425
7208.11 913.493 895.294
7210.91 907.548 906.343
7213.7 897.988 911.116
7216.5 927.811 907.54
7219.3 896.822 949.401
7222.1 1023.57 939.444
7224.89 897.939 950.908
7227.69 931.214 870.893
7230.49 783.526 859.009
7233.28 862.285 833.642
7236.08 855.113 815.822
7238.87 730.066 853.353
7241.67 974.88 846.074
7244.47 833.275 898.052
7247.26 886.001 827.678
7250.06 763.758 856.176
7252.85 918.77 812.912
7255.65 756.208 820.59
7258.44 786.793 772.965
7261.24 775.895 773.27
7264.03 757.121 730.477
7266.82 658.416 724.399
7269.62 757.661 781.088
7272.41 927.187 795.951
7275.21 703.005 826.16
7278 848.288 817.021
7280.79 899.772 848.871
7283.59 798.554 833.199
7286.38 801.271 820.946
7289.17 863.013 798.818
7291.96 732.17 821.448
7294.75 869.163 844.718
7297.55 932.823 884.986
7300.34 852.971 840.724
7303.13 736.377 818.17
7305.92 865.163 803.716
7308.71 809.608 845.561
7311.5 861.914 832.766
7314.29 826.777 846.555
7317.09 850.975 858.288
7319.88 897.113 842.753
7322.67 780.171 799.746
7325.46 721.955 796.533
7328.25 887.474 795.268
7331.04 776.375 818.218
7333.83 790.805 763.863
7336.61 724.408 772.332
7339.4 801.784 760.386
7342.19 754.967 767.69
7344.98 746.32 754.363
7347.77 761.801 749.275
7350.56 739.705 745.467
7353.35 734.894 760.62
7356.13 807.26 830.92
7358.92 950.605 870.774
7361.71 854.457 904.595
7364.5 908.724 844.782
7367.28 771.164 780.074
7370.07 660.335 748.05
7372.86 812.652 728.162
7375.64 711.499 719.571
7378.43 634.562 689.709
7381.22 723.065 685.092
7384 697.649 776.276
7386.79 908.114 799.549
7389.57 792.884 834.431
7392.36 802.296 795.92
7395.14 792.581 846.715
7397.93 945.269 791.024
7400.71 635.221 772.048
7403.5 735.654 676.886
7406.28 659.783 726.744
7409.07 784.795 720.757
7411.85 717.692 739.75
7414.63 716.763 760.765
7417.42 847.841 776.664
7420.2 765.388 788.825
7422.98 753.246 792.743
7425.77 859.595 814.535
7428.55 830.763 807.594
7431.33 732.425 775.306
7434.11 762.729 758.94
7436.9 781.666 735.318
7439.68 661.559 722.791
7442.46 725.148 688.773
7445.24 679.612 763.122
7448.02 884.605 771.791
7450.8 751.156 802.095
7453.58 770.524 755.466
7456.36 744.718 762.141
7459.14 771.182 771.293
7461.92 797.979 730.777
7464.7 623.17 725.277
7467.48 754.682 742.6
7470.26 849.949 771.872
7473.04 710.984 775.402
7475.82 765.272 731.631
7478.6 718.635 754.402
7481.38 779.298 751.03
7484.16 755.158 814.942
7486.94 910.371 808.359
7489.72 759.548 792.352
7492.49 707.137 748.968
7495.27 780.219 707.968
7498.05 636.549 726.298
7500.83 762.126 674.12
7503.6 623.685 688.37
7506.38 679.3 675.457
7509.16 723.385 685.207
7511.93 652.938 726.653
7514.71 803.637 754.216
7517.49 806.074 757.936
7520.26 664.096 722.318
7523.04 696.784 690.06
7525.81 709.302 744.421
7528.59 827.178 766.943
7531.36 764.349 746.229
7534.14 647.161 694.999
7536.91 673.488 648.48
7539.69 624.793 679.24
7542.46 739.438 715.61
7545.24 782.6 738.797
7548.01 694.352 756.497
7550.78 792.538 710.483
7553.56 644.558 708.791
7556.33 689.276 694.786
7559.1 750.523 732.503
7561.88 757.708 708.064
7564.65 615.959 722.425
7567.42 793.606 699.799
7570.19 689.831 740.98
7572.96 739.504 719.516
7575.74 729.213 712.316
7578.51 668.231 717.987
7581.28 756.516 705.938
7584.05 693.068 693.195
7586.82 630.001 642.89
7589.59 605.601 500.985
7592.36 267.353 344.311
7595.13 159.978 152.206
7597.9 29.2881 103.932
7600.67 122.531 53.9872
7603.44 10.1426 69.5424
7606.21 75.9537 78.3352
7608.98 148.909 177.201
7611.75 306.74 278.01
7614.52 378.379 359.775
7617.28 394.205 366.23
7620.05 326.106 351.041
7622.82 332.811 339.096
7625.59 358.372 328.398
7628.36 294.01 315.69
7631.12 294.688 284.399
7633.89 264.499 246.443
7636.66 180.14 259.786
7639.42 334.719 271.601
7642.19 299.944 331.505
7644.96 359.852 341.607
7647.72 365.024 374.293
7650.49 398.002 410.471
7653.25 468.387 455.485
7656.02 500.065 466.451
7658.78 430.9 491.94
7661.55 544.856 509.258
7664.31 552.018 568.219
7667.08 607.784 535.441
7669.84 446.52 564.522
7672.61 639.261 560.145
7675.37 594.653 618.063
7678.13 620.276 578.717
7680.9 521.223 610.855
7683.66 691.066 577.306
7686.42 519.63 590.297
7689.19 560.196 562.018
7691.95 606.229 566.447
7694.71 532.914 598.583
7697.47 656.605 593.025
7700.24 589.554 633.75
7703 655.09 631.921
7705.76 651.119 637.433
7708.52 606.09 627.018
7711.28 623.846 608.546
7714.04 595.703 626.432
7716.8 659.748 624.404
7719.56 617.761 611.115
7722.32 555.837 583.54
7725.08 577.023 573.738
7727.84 588.355 554.216
7730.6 497.271 527.561
7733.36 497.056 533.485
7736.12 606.128 544.236
7738.88 529.525 524.07
7741.64 436.558 489.966
7744.39 503.814 472.554
7747.15 477.289 506.026
7749.91 536.976 535.975
7752.67 593.659 565.606
7755.43 566.184 596.472
7758.18 629.574 541.717
7760.94 429.393 533.844
7763.7 542.567 526.208
7766.45 606.665 542.088
7769.21 477.033 531.203
7771.96 509.911 505.873
7774.72 530.674 528.469
7777.48 544.82 562.479
7780.23 611.941 567.943
7782.99 547.069 525.841
7785.74 418.513 486.988
7788.5 495.381 479.001
7791.25 523.108 526.692
7794 561.587 494.472
7796.76 398.719 492.228
7799.51 516.376 466.067
7802.27 483.105 500.295
7805.02 501.405 485.089
7807.77 470.756 462.447
7810.52 415.18 500.263
7813.28 614.854 530.962
7816.03 562.854 558.551
7818.78 497.945 541.228
7821.53 562.886 531.265
7824.29 532.964 491.934
7827.04 379.952 470.414
7829.79 498.325 442.331
7832.54 448.716 502.586
7835.29 560.716 512.235
7838.04 527.274 535.57
7840.79 518.72 496.971
7843.54 444.92 470.399
7846.29 447.556 454.994
7849.04 472.507 473.113
7851.79 499.276 548.162
7854.54 672.704 539.488
7857.29 446.484 526.459
7860.03 460.189 438.535
7862.78 408.933 399.563
7865.53 329.567 424.685
7868.28 535.555 480.366
7871.03 575.976 542.415
7873.77 515.714 540.086
7876.52 528.569 510.82
7879.27 488.178 512.776
7882.01 521.581 544.234
7884.76 622.941 535.478
7887.51 461.91 511.948
7890.25 450.992 421.731
7893 352.29 444.217
7895.74 529.37 464.168
7898.49 510.844 538.697
7901.24 575.877 516.863
7903.98 463.867 500.037
7906.72 460.369 476.392
7909.47 504.942 487.739
7912.21 497.906 545.29
7914.96 633.022 545.837
7917.7 506.582 504.184
7920.44 372.948 434.853
7923.19 425.029 430.678
7925.93 494.056 454.982
7928.67 445.86 474.88
7931.41 484.724 466.389
7934.16 468.583 474.712
7936.9 470.83 451.192
7939.64 414.164 439.302
7942.38 432.911 409.283
7945.12 380.773 455.172
7947.86 551.831 448.28
7950.6 412.237 496.003
7953.35 523.941 460.335
7956.09 444.827 494.08
7958.83 513.472 497.578
7961.57 534.436 521.74
7964.3 517.314 505.943
7967.04 466.078 498.485
7969.78 512.063 485.941
7972.52 479.681 496.642
7975.26 498.181 480.263
7978 462.926 485.125
7980.74 494.267 469.324
7983.47 450.779 472.911
7986.21 473.688 444.166
7988.95 408.032 443.229
7991.69 447.969 477.757
7994.42 577.27 508.889
7997.16 501.428 512.408
7999.9 458.528 445.342
8002.63 376.071 391.284
8005.37 339.254 388.595
8008.1 450.461 401.877
8010.84 415.916 455.859
8013.57 501.201 424.001
8016.31 354.885 421.8
8019.04 409.314 369.959
8021.78 345.678 411.661
8024.51 479.989 408.876
8027.25 400.959 411.336
8029.98 353.058 388.259
8032.71 410.76 384.797
8035.45 390.572 426.178
8038.18 477.202 466.361
8040.91 531.311 494.69
8043.64 475.557 475.622
8046.38 419.998 446.159
8049.11 442.921 441.355
8051.84 461.145 431.218
8054.57 389.587 431.958
8057.3 445.141 432.749
8060.03 463.519 458.054
8062.76 465.501 488.782
8065.49 537.326 498.7
8068.22 493.272 469.263
8070.95 377.191 449.038
8073.68 476.653 419.829
8076.41 405.645 446.481
8079.14 457.147 407.42
8081.87 359.47 401.425
8084.6 387.66 361.645
8087.33 337.805 417.344
8090.05 526.568 443.411
8092.78 465.861 474.123
8095.51 429.94 466.781
8098.24 504.542 448.895
8100.96 412.203 484.062
8103.69 535.441 445.892
8106.42 390.033 470.215
8109.14 485.171 429.054
8111.87 411.957 447.355
8114.6 444.937 407.299
8117.32 365.003 383.993
8120.05 342.039 336.843
8122.77 303.489 353.267
8125.5 414.275 383.043
8128.22 431.367 389.634
8130.95 323.26 379.389
8133.67 383.541 381.54
8136.39 437.818 422.491
8139.12 446.113 407.209
8141.84 337.695 404.193
8144.56 428.77 372.399
8147.29 350.732 359.761
8150.01 299.783 331.366
8152.73 343.584 312.749
8155.45 294.88 342.23
8158.17 388.228 367.201
8160.9 418.497 395.63
8163.62 380.165 352.464
8166.34 258.73 321.142
8169.06 324.532 351.666
8171.78 471.736 392.95
8174.5 382.582 379.548
8177.22 284.327 338.416
8179.94 348.338 330.779
8182.66 359.672 349.893
8185.38 341.668 394.457
8188.09 482.031 382.418
8190.81 323.555 378.057
8193.53 328.585 334.441
8196.25 351.185 337.987
8198.97 334.193 350.106
8201.68 364.941 373.859
8204.4 422.442 411.965
8207.12 448.513 425.438
8209.84 405.359 423.076
8212.55 415.357 404.918
8215.27 394.04 360.341
8217.98 271.627 332.567
8220.7 332.035 305.539
8223.42 312.955 315.884
8226.13 302.661 330.952
8228.85 377.24 357.859
8231.56 393.676 364.646
8234.27 323.021 386.148
8236.99 441.747 384.68
8239.7 389.27 407.505
8242.42 391.497 363.13
8245.13 308.622 363.86
8247.84 391.46 332.497
8250.55 297.407 329.218
8253.27 298.788 324.828
8255.98 378.289 370.078
8258.69 433.157 384.486
8261.4 342.013 411.973
8264.11 460.75 402.943
8266.83 406.066 439.105
8269.54 450.499 401.311
8272.25 347.37 413.547
8274.96 442.773 401.11
8277.67 413.185 430.184
8280.38 434.594 385.516
8283.09 308.768 361.198
8285.8 340.233 336.278
8288.5 359.834 355.758
8291.21 367.207 352.386
8293.92 330.118 317.464
8296.63 255.066 346.385
8299.34 453.97 345.532
8302.05 327.56 318.363
8304.75 173.558 279.165
8307.46 336.377 244.644
8310.17 223.998 294.906
8312.87 324.343 291.384
8315.58 325.809 303.938
8318.29 261.661 304.128
8320.99 324.913 340.747
8323.7 435.666 333.049
8326.4 238.568 325.555
8329.11 302.43 303.553
8331.81 369.661 317.833
8334.52 281.407 320.475
8337.22 310.358 331.706
8339.92 403.353 381.316
8342.63 430.238 401.016
8345.33 369.458 377.261
8348.03 332.088 313.167
8350.74 237.955 282.584
8353.44 277.71 287.595
8356.14 347.121 322.863
8358.84 343.758 333.569
8361.54 309.828 327.113
8364.25 327.752 298.042
8366.95 256.545 264.794
8369.65 210.085 238.093
8372.35 247.648 286.956
8375.05 403.136 312.493
8377.75 286.695 361.242
8380.45 393.895 343.701
8383.15 350.514 352.662
8385.85 313.578 336.623
8388.55 345.777 325.876
8391.24 318.274 334.43
8393.94 339.241 365.211
8396.64 438.119 409.345
8399.34 450.675 408.525
8402.04 336.78 368.162
8404.73 317.031 340.845
8407.43 368.724 357.8
8410.13 387.644 398.821
8412.82 440.095 367.374
8415.52 274.385 362.092
8418.21 371.797 290.748
8420.91 226.062 296.486
8423.6 291.598 292.351
8426.3 359.392 297.988
8428.99 242.973 280.747
8431.69 239.877 270.856
8434.38 329.718 302.406
8437.08 337.623 334.482
8439.77 336.106 301.803
8442.46 231.679 278.044
8445.16 266.347 285.047
8447.85 357.116 317.178
8450.54 328.071 361.201
8453.23 398.416 337.989
8455.92 287.479 324.527
8458.62 287.686 369.211
8461.31 532.467 388.935
8464 346.651 414.52
8466.69 364.442 355.394
8469.38 355.088 317.035
8472.07 231.575 287.431
8474.76 275.63 288.687
8477.45 358.856 294.549
8480.14 249.161 305.729
8482.83 309.171 264.824
8485.52 236.139 287.643
8488.2 317.618 268.514
8490.89 251.786 293.939
8493.58 312.412 258.638
8496.27 211.717 290.879
8498.95 348.509 286.317
8501.64 298.725 335.057
8504.33 357.938 339.769
8507.01 362.644 296.413
8509.7 168.656 283.207
8512.39 318.321 246.819
8515.07 253.479 296.137
8517.76 316.61 295.922
8520.44 317.678 324.287
8523.13 338.572 319.173
8525.81 301.268 326.938
8528.49 340.975 311.166
8531.18 291.256 308.19
8533.86 292.341 264.91
8536.54 211.133 259.301
8539.23 274.429 236.902
8541.91 225.143 269.097
8544.59 307.719 258.977
8547.27 244.068 296.118
8549.96 336.565 277.359
8552.64 251.442 322.003
8555.32 378.003 308.438
8558 295.869 310.354
8560.68 257.189 281.119
8563.36 290.297 309.259
8566.04 380.291 331.114
8568.72 322.755 367.919
8571.4 400.712 326.659
8574.08 256.511 346.005
8576.76 380.79 307.532
8579.44 285.296 318.686
8582.11 289.972 285.919
8584.79 282.487 302.699
8587.47 335.637 286.704
8590.15 241.988 313.115
8592.82 361.719 283.45
8595.5 246.643 301.948
8598.18 297.481 278.712
8600.85 292.013 326.069
8603.53 388.715 315.977
8606.2 267.205 328.101
8608.88 328.383 302.313
8611.55 311.351 326.161
8614.23 338.748 314.83
8616.9 294.39 321.074
8619.58 330.085 335.145
8622.25 380.958 333.39
8624.92 289.127 345.35
8627.6 365.965 316.862
8630.27 295.494 296.602
8632.94 228.347 291.37
8635.61 350.271 273.822
8638.29 242.847 414.337
8640.96 649.894 339.017
8643.63 124.31 367.155
8646.3 327.262 245.021
8648.97 283.492 271.462
8651.64 203.632 228.278
8654.31 197.711 179.244
8656.98 136.388 124.545
8659.65 39.5349 133.749
8662.32 225.324 153.995
8664.99 197.125 251.118
8667.66 330.906 260.879
8670.32 254.606 282.752
8672.99 262.746 288.241
8675.66 347.372 272.841
8678.33 208.405 272.174
8680.99 260.745 248.808
8683.66 277.273 268.394
8686.33 267.164 235.352
8688.99 161.619 210.592
8691.66 202.994 209.147
8694.32 262.828 259.635
8696.99 313.085 317.308
8699.65 376.013 332.021
8702.32 306.967 316.531
8704.98 266.614 266.046
8707.65 224.557 241.017
8710.31 231.88 231.707
8712.97 238.683 239.808
8715.64 248.861 259.557
8718.3 291.128 254.269
8720.96 222.819 261.733
8723.63 271.253 269.29
8726.29 313.797 257.731
8728.95 188.144 276.186
8731.61 326.617 270.016
8734.27 295.286 298.449
8736.93 273.445 270.74
8739.59 243.489 249.19
8742.25 230.636 242.34
8744.91 252.897 250.681
8747.57 268.511 252.693
8750.23 236.67 226.915
8752.89 175.563 240.357
8755.55 308.837 245.943
8758.2 253.429 269.755
8760.86 247 266.988
8763.52 300.536 263.181
8766.18 242.007 219.914
8768.83 117.198 191.849
8771.49 216.341 206.936
8774.15 287.268 239.413
8776.8 214.63 214.693
8779.46 142.181 154.854
8782.11 107.751 144.557
8784.77 183.739 198.564
8787.42 304.203 225.082
8790.08 187.304 225.145
8792.73 183.929 157.064
8795.38 99.9586 189.306
8798.04 284.03 167.054
8800.69 117.172 192.278
8803.34 175.63 138.556
8806 122.864 158.289
8808.65 176.373 154.663
8811.3 164.752 193.903
8813.95 240.582 226.442
8816.6 273.991 219.969
8819.25 145.332 209.634
8821.9 209.58 206.793
8824.55 265.466 194.368
8827.2 108.057 188.7
8829.85 192.576 152.731
8832.5 157.558 150.118
8835.15 100.219 164.873
8837.8 236.841 160.307
8840.45 143.862 170.481
8843.1 130.74 145.614
8845.74 162.241 150.057
8848.39 157.19 167.036
8851.04 181.677 177.783
8853.69 194.482 180.517
8856.33 165.393 181.6
8858.98 184.925 168.741
8861.62 155.905 174.056
8864.27 181.339 158.425
8866.91 138.031 120.4
8869.56 41.8308 95.3964
8872.2 106.327 95.1935
8874.85 137.422 136.291
8877.49 165.123 126.726
8880.13 77.6323 123.713
8882.78 128.385 115.291
8885.42 139.856 126.95
8888.06 112.608 127.444
8890.7 129.867 114.751
8893.35 101.779 100.625
8895.99 70.2286 121.47
8898.63 192.401 176.199
8901.27 265.969 194.047
8903.91 123.77 177.723
8906.55 143.431 106.238
8909.19 51.5121 97.8066
8911.83 98.4763 77.4912
8914.47 82.4852 107.861
8917.11 142.621 178.53
8919.75 310.483 267.01
8922.38 347.927 290.803
8925.02 214.001 244.239
8927.66 170.791 198.491
8930.3 210.681 218.008
8932.93 272.553 258.519
8935.57 292.321 277.042
8938.21 266.251 272.184
8940.84 257.979 248.551
8943.48 221.423 219.032
8946.11 177.693 236.296
8948.75 309.773 241.527
8951.38 237.116 278.218
8954.02 287.764 276.64
8956.65 305.04 298.831
8959.29 303.689 261.168
8961.92 174.777 217.153
8964.55 172.992 190.929
8967.18 225.017 211.87
8969.82 237.602 254.757
8972.45 301.651 247.331
8975.08 202.739 254.931
8977.71 260.402 232.892
8980.34 235.536 244.583
8982.97 237.812 217.513
8985.6 179.192 208.637
8988.23 208.908 239.338
8990.86 329.914 245.419
8993.49 197.436 241.112
8996.12 195.986 205.541
8998.75 223.201 191.99
9001.38 156.783 195.106
9004.01 205.336 155.499
9006.63 104.379 179.33
9009.26 228.274 182.721
9011.89 215.51 219.32
9014.51 214.177 238.552
9017.14 285.97 228.233
9019.77 184.553 222.61
9022.39 197.308 232.005
9025.02 314.156 234.557
9027.64 192.207 226.717
9030.27 173.787 210.944
9032.89 266.837 207.102
9035.51 180.681 247.889
9038.14 296.15 218.924
9040.76 179.94 252.652
9043.38 281.866 243.834
9046.01 269.696 263.001
9048.63 237.442 236.92
9051.25 203.623 207.921
9053.87 182.697 182.151
9056.49 160.132 163.515
9059.11 147.714 176.238
9061.73 220.867 186.021
9064.35 189.483 214.239
9066.97 232.368 208.366
9069.59 203.248 197.802
9072.21 157.791 169.606
9074.83 147.78 101.857
