wavelength spectrum_sum 3smoothed_sum spectrum_optimal 3smoothed_optimal
3511.3 18.4041 14.1403 19.9678 12.0598
3514.22 24.0169 30.5815 16.2117 23.8144
3517.14 49.3235 33.4799 35.2636 22.9526
3520.06 27.0993 42.4805 17.3824 22.3291
3522.98 51.0185 39.8561 14.3413 23.3318
3525.9 41.4504 43.1109 38.2718 25.3726
3528.82 36.8637 43.0716 23.5047 31.8705
3531.74 50.9007 40.4128 33.8351 27.8863
3534.66 33.474 41.751 26.3192 29.8373
3537.58 40.8784 33.7555 29.3576 30.5095
3540.5 26.9139 40.9425 35.8517 40.0143
3543.42 55.0351 42.7155 54.8335 44.2523
3546.34 46.1974 48.831 42.0718 45.9555
3549.26 45.2605 44.2985 40.9614 40.1971
3552.18 41.4376 44.3221 37.5581 44.0403
3555.1 46.2681 39.6141 53.6014 43.4517
3558.02 31.1365 31.6403 39.1954 41.8353
3560.94 17.5162 29.7526 32.7091 36.9961
3563.86 40.6052 34.7842 39.0838 42.3761
3566.78 46.2313 41.2372 55.3354 45.7679
3569.7 36.8751 31.4196 42.8845 39.6852
3572.62 11.1524 22.0702 20.8357 34.6096
3575.54 18.1832 20.7467 40.1085 29.1454
3578.46 32.9044 30.244 26.492 28.0461
3581.38 39.6444 31.5712 17.5379 23.374
3584.3 22.1648 26.4706 26.092 23.6841
3587.22 17.6025 27.2937 27.4223 30.967
3590.14 42.1137 39.7051 39.3868 44.5429
3593.06 59.3992 42.1894 66.8195 47.4678
3595.98 25.0554 42.6072 36.1972 49.5642
3598.89 43.367 41.0994 45.676 44.1142
3601.81 54.8756 46.7441 50.4695 45.0091
3604.73 41.9897 53.4805 38.8819 50.8561
3607.65 63.5762 50.9987 63.217 47.1464
3610.57 47.4303 55.5695 39.3401 52.5922
3613.49 55.702 48.1752 55.2196 42.4686
3616.41 41.3934 57.9936 32.8461 56.3484
3619.33 76.8855 63.1126 80.9795 64.6161
3622.25 71.0589 70.9562 80.0226 71.4879
3625.17 64.9242 64.2377 53.4615 68.4274
3628.09 56.73 66.0084 71.7979 63.0986
3631.01 76.3711 63.1607 64.0363 65.7247
3633.93 56.3811 70.6162 61.3398 66.4697
3636.85 79.0963 77.6152 74.0331 73.6259
3639.77 97.3681 87.3495 85.5047 77.489
3642.69 85.5842 81.7173 72.9291 74.8085
3645.61 62.1995 84.2679 65.9917 74.2744
3648.53 105.02 84.4986 83.9025 78.3499
3651.44 86.2764 101.11 85.1555 90.6777
3654.36 112.034 100.935 102.975 95.4993
3657.28 104.493 98.4021 98.3674 95.5274
3660.2 78.6791 80.5778 85.2396 82.8574
3663.12 58.5613 80.6507 64.9652 82.535
3666.04 104.712 86.4492 97.4002 88.1651
3668.96 96.0747 105.536 102.13 104.213
3671.88 115.822 93.8062 113.109 94.481
3674.8 69.5217 89.6237 68.204 86.8337
3677.72 83.5269 75.2754 79.1878 72.9542
3680.64 72.7776 81.481 71.4709 79.9723
3683.55 88.1384 77.6671 89.2583 77.8778
3686.47 72.0853 91.4351 72.9041 84.5738
3689.39 114.082 91.7063 91.559 81.4405
3692.31 88.9521 102.781 79.8583 92.8045
3695.23 105.308 104.582 106.996 99.7128
3698.15 119.484 105.634 112.284 106.684
3701.07 92.1085 100.306 100.77 100.477
3703.99 89.3265 90.2951 88.3762 87.2595
3706.91 89.4502 93.0478 72.632 83.2711
3709.82 100.367 100.943 88.8052 91.7382
3712.74 113.013 105.629 113.777 95.6295
3715.66 103.506 109.566 84.3058 96.9466
3718.58 112.18 108.886 92.7565 95.828
3721.5 110.973 101.092 110.422 102.281
3724.42 80.1212 84.7367 103.663 97.3435
3727.34 63.1154 70.711 77.9455 89.9946
3730.26 68.8964 67.6133 88.3748 80.0579
3733.17 70.8281 76.4769 73.8533 86.2519
3736.09 89.7062 89.4289 96.5275 101.092
3739.01 107.753 94.7225 132.894 109.284
3741.93 86.7088 92.8593 98.4313 103.752
3744.85 84.1165 83.3179 79.9319 89.0009
3747.77 79.1283 87.8636 88.6397 85.2276
3750.69 100.346 84.919 87.1113 83.0273
3753.6 75.2826 84.4817 73.331 80.1841
3756.52 77.8164 84.8695 80.1099 87.7165
3759.44 101.509 87.6966 109.708 93.2125
3762.36 83.764 96.8049 89.8191 102.723
3765.28 105.141 109.356 108.643 112.512
3768.2 139.163 123.281 139.074 127.784
3771.11 125.537 134.892 135.635 138.479
3774.03 139.974 132.464 140.729 144.55
3776.95 131.88 137.615 157.285 147.676
3779.87 140.991 137.234 145.014 152.864
3782.79 138.832 121.41 156.294 143.401
3785.71 84.4068 115.194 128.895 144.7
3788.62 122.343 113.926 148.912 139.194
3791.54 135.027 126.076 139.775 141.671
3794.46 120.858 133.778 136.325 136.828
3797.38 145.448 129.996 134.384 134.03
3800.3 123.681 134.471 131.381 137.534
3803.21 134.282 114.829 146.836 125.854
3806.13 86.5223 110.567 99.3459 130.833
3809.05 110.897 91.8362 146.316 110.181
3811.97 78.0895 114.23 84.8803 137.271
3814.89 153.705 104.125 180.615 124.144
3817.8 80.5812 114.646 106.937 142.513
3820.72 109.651 92.8701 139.987 117.086
3823.64 88.3784 106.147 104.335 124.262
3826.56 120.412 94.6834 128.463 104.064
3829.47 75.2601 101.321 79.3923 105.453
3832.39 108.291 90.8105 108.503 90.4498
3835.31 88.8798 101.424 83.4543 97.3642
3838.23 107.102 98.8229 100.136 89.6229
3841.14 100.487 98.0946 85.279 89.124
3844.06 86.695 99.7449 81.9575 94.6329
3846.98 112.053 115.786 116.662 110.994
3849.9 148.61 119.022 134.362 115.593
3852.82 96.4028 113.04 95.756 108.182
3855.73 94.1085 90.194 94.4283 94.5085
3858.65 80.0708 93.9134 93.3411 108.777
3861.57 107.561 98.7321 138.56 107.807
3864.49 108.565 106.881 91.5181 114.384
3867.4 104.519 91.909 113.074 95.5231
3870.32 62.6435 89.6785 81.9777 112.901
3873.24 101.873 94.2691 143.652 127.8
3876.15 118.291 104.764 157.769 138.036
3879.07 94.1291 112.773 112.688 133.881
3881.99 125.9 109.733 131.186 126.585
3884.91 109.171 122.243 135.881 133.831
3887.82 131.657 137.329 134.426 145.891
3890.74 171.159 163.038 167.365 160.212
3893.66 186.298 180.747 178.845 176.22
3896.57 184.783 188.032 182.451 185.607
3899.49 193.014 186.289 195.525 185.406
3902.41 181.071 204.498 178.243 203.466
3905.33 239.409 206.687 236.631 216.494
3908.24 199.58 221.281 234.608 229.732
3911.16 224.855 206.616 217.955 227.693
3914.08 195.413 193.528 230.516 217.336
3916.99 160.317 168.779 203.535 224.334
3919.91 150.608 151.472 238.951 214.293
3922.83 143.492 137.544 200.393 201.172
3925.74 118.533 138.252 164.171 172.771
3928.66 152.73 127.365 153.749 152.437
3931.58 110.832 115.04 139.391 127.074
3934.49 81.5585 99.7039 88.0822 106.946
3937.41 106.721 119.147 93.3643 121.471
3940.33 169.162 149.547 182.965 155.823
3943.24 172.757 175.155 191.14 196.954
3946.16 183.547 178.098 216.756 211.272
3949.08 177.991 190.63 225.918 235.178
3951.99 210.351 188.365 262.861 241.578
3954.91 176.753 190.295 235.954 239.722
3957.83 183.781 179.519 220.35 229.477
3960.74 178.023 159.528 232.127 197.283
3963.66 116.781 132.724 139.371 159.905
3966.58 103.367 126.702 108.216 134.3
3969.49 159.957 147.812 155.313 151.089
3972.41 180.111 192.927 189.738 195.775
3975.32 238.713 211.107 242.274 215.461
3978.24 214.497 232.958 214.37 235.04
3981.16 245.665 235.745 248.477 241.071
3984.07 247.072 257.173 260.366 271.539
3986.99 278.781 268.451 305.775 296.394
3989.9 279.501 293.632 323.041 334.657
3992.82 322.614 295.059 375.155 339.137
3995.74 283.062 308.256 319.217 338.687
3998.65 319.093 320.669 321.689 328.532
4001.57 359.854 335.75 344.691 336.865
4004.48 328.304 343.635 344.215 357.022
4007.4 342.746 338.822 382.159 367.372
4010.32 345.416 333.527 375.742 368.221
4013.23 312.419 325.757 346.763 358.297
4016.15 319.435 324.502 352.384 360.124
4019.06 341.651 338.67 381.225 378.903
4021.98 354.924 353.917 403.099 387.82
4024.89 365.176 357.561 379.137 391.628
4027.81 352.585 357.488 392.647 384.12
4030.73 354.704 345.611 380.578 392.317
4033.64 329.545 342.089 403.726 401.768
4036.56 342.017 338.65 420.999 407.087
4039.47 344.389 352.936 396.535 426.575
4042.39 372.402 352.751 462.191 423.779
4045.3 341.462 356.321 412.612 438.421
4048.22 355.1 336.36 440.461 407.534
4051.13 312.517 333.277 369.53 410.085
4054.05 332.214 310.718 420.264 377.567
4056.96 287.423 303.102 342.906 364.462
4059.88 289.669 317.863 330.217 362.316
4062.79 376.498 324.022 413.825 366.89
4065.71 305.899 316.684 356.628 362.741
4068.62 267.656 318.533 317.771 365.115
4071.54 382.044 359.403 420.947 403.388
4074.45 428.509 402.979 471.447 449.492
4077.37 398.384 396.461 456.083 450.733
4080.28 362.489 400.91 424.67 455.956
4083.2 441.858 397.227 487.116 462.16
4086.11 387.333 402.172 474.695 472.351
4089.03 377.324 393.736 455.241 473.816
4091.94 416.552 382.153 491.513 452.723
4094.86 352.583 389.675 411.415 457.139
4097.77 399.892 380.641 468.49 451.963
4100.69 389.448 374.532 475.986 442.333
4103.6 334.258 375.888 382.524 443.75
4106.52 403.957 378.035 472.739 435.428
4109.43 395.89 421.962 451.021 478.864
4112.35 466.038 416.395 512.833 476.128
4115.26 387.256 419.938 464.531 482.229
4118.17 406.521 399.117 469.324 457.087
4121.09 403.573 411.431 437.406 467.1
4124 424.199 434.738 494.57 487.719
4126.92 476.443 431.326 531.181 507.09
4129.83 393.337 441.179 495.518 513.296
4132.75 453.758 428.147 513.19 508.593
4135.66 437.345 434.764 517.071 506.593
4138.57 413.189 416.693 489.517 492.601
4141.49 399.544 417.781 471.213 493.026
4144.4 440.609 418.443 518.347 494.606
4147.32 415.176 405.35 494.258 485.956
4150.23 360.265 387.338 445.263 477.356
4153.14 386.575 374.17 492.547 463.495
4156.06 375.67 408.843 452.675 501.845
4158.97 464.286 426.293 560.313 520.287
4161.89 438.922 436.246 547.872 527.245
4164.8 405.531 422.925 473.552 515.603
4167.71 424.323 425.636 525.385 505.749
4170.63 447.054 420.562 518.311 500.153
4173.54 390.308 422.298 456.762 495.399
4176.45 429.53 427.175 511.123 506.32
4179.37 461.687 435.602 551.074 523.07
4182.28 415.588 439.852 507.012 530.355
4185.2 442.28 448.786 532.979 530.649
4188.11 488.489 442.262 551.956 531.754
4191.02 396.017 434.112 510.328 524.437
4193.94 417.831 400.059 511.028 502.253
4196.85 386.33 401.902 485.403 492.631
4199.76 401.545 434.564 481.462 518.169
4202.67 515.818 451.045 587.641 529.852
4205.59 435.771 468.08 520.452 554.031
4208.5 452.65 456.672 554.001 559.639
4211.41 481.596 456.029 604.464 572.123
4214.33 433.842 477.354 557.906 602.953
4217.24 516.622 483.378 646.49 605.684
4220.15 499.669 487.666 612.657 605.641
4223.07 446.708 472.118 557.777 573.057
4225.98 469.976 459.547 548.738 563.819
4228.89 461.958 469.012 584.942 568.586
4231.8 475.102 483.696 572.078 585.815
4234.72 514.029 507.915 600.426 593.444
4237.63 534.613 522.308 607.828 597.96
4240.54 518.281 533.238 585.626 605.075
4243.46 546.819 503.246 621.771 581.43
4246.37 444.637 503.866 536.892 595.737
4249.28 520.142 471.482 628.547 582.491
4252.19 449.668 467.243 582.035 585.431
4255.11 431.92 470.157 545.709 587.228
4258.02 528.884 489.195 633.938 603.104
4260.93 506.78 529.685 629.664 637.578
4263.84 553.392 515.207 649.133 624.245
4266.75 485.449 509.908 593.936 625.46
4269.67 490.882 492.952 633.31 618.064
4272.58 502.523 507.804 626.946 647.192
4275.49 530.006 503.169 681.319 633.521
4278.4 476.977 496.066 592.298 629.915
4281.32 481.217 465.925 616.128 595.186
4284.23 439.581 464.079 577.131 586.557
4287.14 471.439 479.544 566.412 581.627
4290.05 527.611 491.423 601.337 575.847
4292.96 475.22 478.935 559.793 566.039
4295.87 433.974 446.572 536.987 545.595
4298.79 430.523 424.077 540.004 526.704
4301.7 407.735 409.076 503.122 506.475
4304.61 388.97 386.145 476.299 476.213
4307.52 361.731 407.275 449.22 483.519
4310.43 471.125 452.621 525.038 538.523
4313.34 525.007 499.9 641.313 608.574
4316.26 503.569 512.587 659.372 638.74
4319.17 509.184 507.877 615.536 621.171
4322.08 510.877 536.948 588.605 630.211
4324.99 590.783 569.193 686.491 669.143
4327.9 605.919 630.39 732.334 758.268
4330.81 694.469 629.087 855.981 785.53
4333.72 586.874 600.166 768.276 763.302
4336.63 519.156 540.827 665.648 697.371
4339.55 516.451 543.779 658.189 683.499
4342.46 595.729 596.702 726.658 711.33
4345.37 677.927 639.142 749.142 747.936
4348.28 643.769 649.64 768.008 755.637
4351.19 627.225 625.215 749.762 749.189
4354.1 604.649 613.858 729.798 749.4
4357.01 609.698 602.303 768.641 746.131
4359.92 592.561 619 739.955 770.947
4362.83 654.74 608.839 804.245 758.331
4365.74 579.217 629.163 730.793 780.468
4368.65 653.533 605.939 806.365 762.749
4371.56 585.067 633.893 751.09 784.931
4374.47 663.079 639.386 797.337 793.547
4377.38 670.011 620.472 832.213 769.619
4380.29 528.325 597.953 679.306 749.462
4383.21 595.523 566.554 736.868 718.913
4386.12 575.815 605.123 740.565 757.746
4389.03 644.029 616.418 795.806 767.468
4391.94 629.408 613.75 766.034 758.013
4394.85 567.813 599.362 712.201 738.235
4397.76 600.866 600.815 736.472 732.853
4400.67 633.765 619.923 749.885 749.773
4403.58 625.139 627.382 762.96 759.816
4406.49 623.242 648.365 766.603 784.176
4409.4 696.713 660.868 822.966 794.099
4412.31 662.651 692.51 792.728 832.638
4415.22 718.167 703.652 882.221 858.033
4418.12 730.137 709.913 899.151 879.9
4421.03 681.436 675.126 858.329 844.314
4423.94 613.806 673.377 775.462 843.068
4426.85 724.888 668.731 895.412 839.642
4429.76 667.5 694.357 848.053 869.051
4432.67 690.684 697.811 863.688 883.483
4435.58 735.25 698.39 938.708 887.386
4438.49 669.236 714.064 859.761 899.673
4441.4 737.705 714.191 900.55 901.459
4444.31 735.631 747.346 944.067 938.01
4447.22 768.702 732.878 969.412 935.463
4450.13 694.301 725.004 892.908 925.238
4453.04 712.007 696.633 913.394 907.754
4455.95 683.59 680.43 916.959 894.103
4458.85 645.692 684.744 851.955 890.038
4461.76 724.95 711.103 901.201 903.275
4464.67 762.667 746.527 956.668 937.534
4467.58 751.962 744.406 954.734 938.03
4470.49 718.589 741.435 902.689 948.534
4473.4 753.753 734.946 988.179 947.606
4476.31 732.496 740.712 951.95 968.118
4479.22 735.887 768.843 964.226 987.953
4482.12 838.145 775.311 1047.68 1006.54
4485.03 751.901 809.245 1007.71 1029.32
4487.94 837.69 779.855 1032.56 1002.04
4490.85 749.975 791.69 965.835 995.683
4493.76 787.405 802.87 988.653 1021.78
4496.67 871.23 834.644 1110.84 1046.33
4499.57 845.297 859.222 1039.51 1071.4
4502.48 861.139 856.538 1063.86 1067.26
4505.39 863.177 849.402 1098.4 1074.06
4508.3 823.89 850.426 1059.92 1088.4
4511.21 864.211 856.506 1106.88 1093.84
4514.11 881.418 883.355 1114.72 1121.38
4517.02 904.434 874.406 1142.55 1121.41
4519.93 837.364 856.947 1106.98 1103.38
4522.84 829.042 822.019 1060.63 1060.1
4525.75 799.651 822.856 1012.7 1045.22
4528.65 839.873 819.508 1062.33 1034.74
4531.56 818.999 838.566 1029.21 1054.8
4534.47 856.826 839.54 1072.88 1060.66
4537.38 842.794 820.177 1079.88 1052.04
4540.28 760.912 822.204 1003.34 1062.02
4543.19 862.907 805.551 1102.83 1052.49
4546.1 792.834 859.321 1051.3 1098.53
4549 922.222 875.005 1141.47 1111.8
4551.91 909.959 912.157 1142.62 1150.34
4554.82 904.288 880.361 1166.93 1138.45
4557.73 826.835 890.542 1105.8 1153.15
4560.63 940.502 875.136 1186.71 1142.82
4563.54 858.072 909.453 1135.96 1182.13
4566.45 929.784 894.948 1223.71 1180.15
4569.35 896.988 906.225 1180.78 1194.76
4572.26 891.905 888.858 1179.78 1173.73
4575.17 877.683 865.595 1160.64 1138.51
4578.07 827.199 852.857 1075.11 1132.1
4580.98 853.689 833.369 1160.56 1119.73
4583.89 819.219 838.782 1123.52 1141.43
4586.79 843.44 872.615 1140.23 1163.06
4589.7 955.187 879.101 1225.43 1162.88
4592.61 838.676 876.802 1122.99 1158.78
4595.51 836.544 854.467 1127.91 1152.25
4598.42 888.181 854.667 1205.85 1154.18
4601.32 839.275 877.396 1128.77 1180.46
4604.23 904.73 873.727 1206.77 1173.05
4607.14 877.176 901.541 1183.6 1202.68
4610.04 922.717 900.271 1217.66 1203.72
4612.95 900.921 916.472 1209.91 1210.14
4615.85 925.779 918.993 1202.86 1206.39
4618.76 930.279 932.382 1206.39 1214.01
4621.67 941.087 933.578 1232.79 1245.08
4624.57 929.367 947.96 1296.08 1279.89
4627.48 973.426 922.077 1310.8 1258.9
4630.38 863.439 944.013 1169.83 1256.61
4633.29 995.175 907.377 1289.2 1216.25
4636.19 863.516 928.77 1189.73 1241.24
4639.1 927.617 922.895 1244.78 1241.07
4642 977.553 935.029 1288.71 1256.42
4644.91 899.916 919.937 1235.78 1247.73
4647.81 882.343 890.999 1218.72 1223.43
4650.72 890.739 904.798 1215.81 1234.81
4653.63 941.311 914.562 1269.91 1248.2
4656.53 911.636 917.439 1258.87 1247.7
4659.44 899.371 876.95 1214.32 1199.73
4662.34 819.843 858.649 1126 1181
4665.24 856.732 835.596 1202.67 1151.91
4668.15 830.214 843.466 1127.04 1170.2
4671.05 843.453 857.828 1180.87 1176.48
4673.96 899.816 874.842 1221.53 1200.37
4676.86 881.259 907.378 1198.71 1232.78
4679.77 941.06 902.954 1278.08 1218.69
4682.67 886.544 917.683 1179.26 1233.13
4685.58 925.445 901.976 1242.06 1212.18
4688.48 893.938 899.012 1215.21 1216.72
4691.39 877.654 895.366 1192.89 1221.91
4694.29 914.506 857.418 1257.64 1179.87
4697.19 780.096 887.365 1089.08 1219.02
4700.1 967.494 861.385 1310.34 1192.97
4703 836.565 912.627 1179.48 1253.46
4705.91 933.823 870.828 1270.56 1208.54
4708.81 842.095 885.643 1175.6 1216.46
4711.71 881.01 845.248 1203.23 1175.34
4714.62 812.64 896.032 1147.19 1244.61
4717.52 994.446 937.185 1383.41 1298.99
4720.42 1004.47 994.915 1366.37 1361.39
4723.33 985.829 974.179 1334.39 1327.14
4726.23 932.239 936.85 1280.65 1280.65
4729.13 892.482 946.004 1226.91 1281.26
4732.04 1013.29 968.211 1336.22 1307.59
4734.94 998.859 989.386 1359.64 1332.5
4737.84 956.008 983.713 1301.63 1328.5
4740.75 996.271 1000.52 1324.24 1336.06
4743.65 1049.29 1023.71 1382.32 1357.88
4746.55 1025.57 1001.92 1367.08 1362.08
4749.46 930.907 956.405 1336.83 1326.71
4752.36 912.741 925.423 1276.24 1297.19
4755.26 932.62 941.1 1278.51 1301.63
4758.16 977.938 974.078 1350.14 1330.79
4761.07 1011.67 978.158 1363.72 1342.79
4763.97 944.861 983.15 1314.52 1330.79
4766.87 992.913 942.468 1314.14 1289.04
4769.78 889.629 980.291 1238.48 1321.65
4772.68 1058.33 990.583 1412.34 1360.65
4775.58 1023.79 1059.68 1431.12 1436.2
4778.48 1096.92 1035.41 1465.14 1426.83
4781.38 985.508 1016.43 1384.25 1404.05
4784.29 966.868 987.693 1362.76 1390.55
4787.19 1010.7 1006.36 1424.66 1404.59
4790.09 1041.51 1040.95 1426.36 1428.53
4792.99 1070.63 1057.2 1434.58 1429.06
4795.89 1059.46 1067.62 1426.24 1432.74
4798.8 1072.78 1023.74 1437.42 1410.36
4801.7 938.992 972.586 1367.42 1364.2
4804.6 905.985 951.163 1287.75 1346.3
4807.5 1008.51 981.925 1383.73 1368.92
4810.4 1031.28 1003.54 1435.29 1395.74
4813.3 970.835 1034.56 1368.21 1422.61
4816.21 1101.57 1049.25 1464.34 1431.74
4819.11 1075.34 1066.56 1462.67 1447.73
4822.01 1022.79 1074.43 1416.18 1468.56
4824.91 1125.15 1041.64 1526.82 1442
4827.81 976.982 1044.74 1383 1432.14
4830.71 1032.11 999.248 1386.59 1390.7
4833.61 988.656 1033.05 1402.52 1413.3
4836.51 1078.39 1041.61 1450.78 1423.84
4839.41 1057.8 1050.88 1418.22 1421.11
4842.31 1016.47 1038.22 1394.34 1410.59
4845.22 1040.41 1038.93 1419.2 1420
4848.12 1059.92 1005.5 1446.46 1387.13
4851.02 916.168 953.875 1295.72 1337.81
4853.92 885.537 874.731 1271.24 1249.8
4856.82 822.487 844.008 1182.44 1217.51
4859.72 823.999 842.587 1198.85 1195.98
4862.62 881.276 881.086 1206.65 1232.76
4865.52 937.984 896.32 1292.79 1243.11
4868.42 869.7 897.66 1229.89 1253.19
4871.32 885.295 888.909 1236.87 1233.78
4874.22 911.733 932.522 1234.57 1283.74
4877.12 1000.54 957.796 1379.79 1311.89
4880.02 961.116 977.299 1321.32 1345.62
4882.92 970.241 979.961 1335.75 1356.05
4885.82 1008.53 970.979 1411.09 1345.97
4888.72 934.17 979.242 1291.07 1366.75
4891.62 995.029 971.134 1398.08 1360.09
4894.52 984.202 983.004 1391.13 1399.04
4897.42 969.781 989.68 1407.92 1415.84
4900.31 1015.06 991.436 1448.48 1413.68
4903.21 989.469 1023.82 1384.65 1438.42
4906.11 1066.93 1047.31 1482.13 1449.49
4909.01 1085.52 1052.59 1481.71 1454.54
4911.91 1005.33 1032.32 1399.8 1444.57
4914.81 1006.1 980.879 1452.21 1388.9
4917.71 931.204 954.586 1314.67 1368.28
4920.61 926.45 943.434 1337.97 1352.02
4923.51 972.647 985.647 1403.41 1405.65
4926.41 1057.84 1007.97 1475.56 1428.02
4929.3 993.427 1041.18 1405.09 1454.2
4932.2 1072.28 1021.07 1481.95 1426.47
4935.1 997.497 1052.36 1392.37 1450.72
4938 1087.29 1025.69 1477.85 1422.34
4940.9 992.292 1065.38 1396.79 1460.79
4943.8 1116.55 1053.67 1507.73 1465.36
4946.69 1052.18 1085.61 1491.57 1502.13
4949.59 1088.09 1072.03 1507.1 1496.64
4952.49 1075.81 1060.27 1491.26 1485.91
4955.39 1016.93 1070.19 1459.38 1484.28
4958.29 1117.85 1075.04 1502.18 1503.24
4961.18 1090.36 1101.06 1548.15 1523.73
4964.08 1094.99 1071.01 1520.87 1505.69
4966.98 1027.68 1057.04 1448.05 1504.69
4969.88 1048.46 1078.98 1545.15 1537.59
4972.77 1160.79 1124.08 1619.57 1578.55
4975.67 1162.98 1126.08 1570.94 1547.46
4978.57 1054.47 1093.3 1451.87 1500.37
4981.47 1062.44 1062.23 1478.3 1476.5
4984.36 1069.78 1083.9 1499.34 1522.07
4987.26 1119.48 1097.82 1588.58 1533.1
4990.16 1104.19 1103.54 1511.39 1538.03
4993.05 1086.95 1084.78 1514.14 1500.63
4995.95 1063.19 1095.92 1476.36 1505.82
4998.85 1137.63 1107.14 1526.95 1515.45
5001.74 1120.6 1093.55 1543.03 1502.84
5004.64 1022.43 1061.04 1438.55 1493.04
5007.54 1040.11 1027.46 1497.54 1474.09
5010.43 1019.84 1007.45 1486.18 1448.92
5013.33 962.4 994.107 1363.05 1413.88
5016.23 1000.08 999.129 1392.42 1410.38
5019.12 1034.91 1020.28 1475.68 1448.17
5022.02 1025.86 1008.61 1476.41 1437.97
5024.91 965.055 1035.11 1361.82 1467.04
5027.81 1114.41 1025.32 1562.89 1442.38
5030.71 996.477 1057.9 1402.42 1493.26
5033.6 1062.81 1027.72 1514.46 1439.86
5036.5 1023.88 1036.82 1402.7 1447.29
5039.39 1023.76 1006.38 1424.69 1422.17
5042.29 971.496 1043.16 1439.13 1464.5
5045.18 1134.22 1049.97 1529.69 1480.21
5048.08 1044.18 1076.45 1471.82 1509.72
5050.98 1050.94 1075.1 1527.66 1546.86
5053.87 1130.19 1076.95 1641.11 1560.84
5056.77 1049.73 1082.81 1513.76 1571.31
5059.66 1068.5 1064.8 1559.04 1542.42
5062.56 1076.17 1078.83 1554.45 1538.54
5065.45 1091.82 1110.89 1502.12 1550.3
5068.35 1164.68 1130.89 1594.34 1556.49
5071.24 1136.17 1154.48 1573 1587.04
5074.14 1162.59 1119.67 1593.79 1570.58
5077.03 1060.24 1110.16 1544.96 1564.56
5079.92 1107.64 1088.31 1554.92 1570.82
5082.82 1097.05 1094.3 1612.58 1555.15
5085.71 1078.2 1114.95 1497.95 1581.2
5088.61 1169.6 1150.63 1633.07 1612.62
5091.5 1204.1 1188.01 1706.86 1657.54
5094.4 1190.32 1128.32 1632.69 1592.17
5097.29 990.532 1092.92 1436.96 1563.53
5100.18 1097.89 1087.9 1620.93 1547.82
5103.08 1175.28 1112.15 1585.59 1576.64
5105.97 1063.29 1086.95 1523.42 1531.34
5108.87 1022.29 1084.21 1485.02 1543.47
5111.76 1167.06 1111.62 1621.97 1571.01
5114.65 1145.51 1144.85 1606.05 1615.25
5117.55 1121.98 1114.78 1617.72 1597.2
5120.44 1076.86 1104.73 1567.82 1597.18
5123.33 1115.36 1090.71 1605.99 1577.22
5126.23 1079.9 1084.64 1557.85 1575.99
5129.12 1058.65 1085.3 1564.13 1577.76
5132.01 1117.35 1070.02 1611.29 1562.41
5134.91 1034.05 1064.39 1511.8 1567.49
5137.8 1041.78 1065.4 1579.39 1554.01
5140.69 1120.37 1088.4 1570.85 1590.28
5143.58 1103.06 1090.25 1620.61 1570.87
5146.48 1047.32 1042.35 1521.15 1543.38
5149.37 976.676 1032.74 1488.39 1528
5152.26 1074.24 1067.58 1574.45 1566.13
5155.15 1151.83 1143.99 1635.57 1638.38
5158.05 1205.9 1104.78 1705.12 1592.93
5160.94 956.612 1042.23 1438.1 1514.41
5163.83 964.17 933.117 1400.02 1381.43
5166.72 878.569 894.143 1306.17 1329.1
5169.62 839.689 908.974 1281.1 1339.65
5172.51 1008.66 958.1 1431.68 1407.55
5175.4 1025.95 1016.58 1509.87 1480.24
5178.29 1015.13 988.383 1499.17 1463.21
5181.18 924.076 1000.7 1380.59 1463.44
5184.07 1062.89 1010.22 1510.57 1469.18
5186.97 1043.69 1036.47 1516.39 1506.71
5189.86 1002.84 1052.68 1493.18 1530.17
5192.75 1111.52 1055.65 1580.94 1556.85
5195.64 1052.58 1121.62 1596.44 1621.58
5198.53 1200.76 1131.22 1687.37 1650.35
5201.42 1140.32 1161.25 1667.24 1676.66
5204.31 1142.69 1116.28 1675.36 1634.88
5207.2 1065.83 1093.82 1562.03 1624.31
5210.09 1072.95 1096.21 1635.54 1630.1
5212.98 1149.85 1142.7 1692.73 1697.17
5215.88 1205.31 1168.32 1763.25 1727
5218.77 1149.81 1158.14 1725.01 1732.64
5221.66 1119.29 1102.79 1709.67 1670.04
5224.55 1039.28 1084.2 1575.43 1638.88
5227.44 1094.04 1084.75 1631.54 1614.36
5230.33 1120.94 1116.26 1636.12 1636.58
5233.22 1133.81 1116.08 1642.08 1641.79
5236.11 1093.5 1146.61 1647.17 1684.92
5239 1212.53 1188.48 1765.52 1737.33
5241.89 1259.4 1204.94 1799.29 1746.22
5244.78 1142.89 1163.13 1673.84 1715.6
5247.67 1087.11 1126.53 1673.66 1700.26
5250.56 1149.59 1120.89 1753.27 1705.43
5253.45 1125.96 1171.65 1689.37 1754.76
5256.33 1239.41 1182.29 1821.65 1748.47
5259.22 1181.5 1160.91 1734.39 1710.07
5262.11 1061.83 1091.29 1574.15 1605.33
5265 1030.53 1048.07 1507.46 1543.91
5267.89 1051.83 1032.84 1550.12 1544.56
5270.78 1016.17 977.287 1576.12 1592.77
5273.67 863.86 974.694 1652.07 1624.52
5276.56 1044.06 982.651 1645.37 1668.07
5279.45 1040.04 996.889 1706.77 1671.61
5282.33 906.572 1012.57 1662.69 1689.41
5285.22 1091.11 1066.02 1698.78 1735.29
5288.11 1200.38 1143.78 1844.39 1773.04
5291 1139.84 1161.36 1775.93 1812.93
5293.89 1143.86 1118.89 1818.48 1766.36
5296.78 1072.96 1092.36 1704.66 1744.86
5299.66 1060.26 1027.5 1711.45 1736.33
5302.55 949.274 1083.71 1792.87 1806.96
5305.44 1241.59 1132.58 1916.56 1872.78
5308.33 1206.86 1200.13 1908.92 1884.73
5311.22 1151.93 1170.06 1828.72 1858.35
5314.1 1151.4 1064.09 1837.42 1817.3
5316.99 888.948 1028.51 1785.76 1776.45
5319.88 1045.17 1023.07 1706.16 1762.72
5322.77 1135.09 1079.35 1796.25 1740.01
5325.65 1057.79 1014.23 1717.61 1727.09
5328.54 849.804 985.981 1667.41 1691.5
5331.43 1050.35 994.346 1689.49 1714.5
5334.31 1082.88 1087.06 1786.58 1746.34
5337.2 1127.95 1102.07 1762.93 1758.56
5340.09 1095.38 1037.53 1726.15 1731.79
5342.97 889.276 1058.81 1706.28 1759.79
5345.86 1191.79 1000.37 1846.92 1790.09
5348.75 920.031 1103.69 1817.07 1837.83
5351.63 1199.24 1124.4 1849.48 1875.3
5354.52 1253.94 1221.32 1959.35 1907.73
5357.41 1210.79 1185.45 1914.34 1884.75
5360.29 1091.63 1144.49 1780.54 1834.67
5363.18 1131.04 1120 1809.14 1786.11
5366.06 1137.32 1151.12 1768.65 1792.68
5368.95 1185 1096.99 1800.26 1804.05
5371.84 968.648 1037.82 1843.24 1815.92
5374.72 959.799 1039.58 1804.25 1842.65
5377.61 1190.3 1114.38 1880.47 1840.68
5380.49 1193.03 1200.55 1837.31 1868.8
5383.38 1218.32 1189.71 1888.62 1872.99
5386.26 1157.78 1185.09 1893.03 1882.21
5389.15 1179.17 1131.15 1864.98 1840.96
5392.03 1056.5 1090.75 1764.86 1770.67
5394.92 1036.58 1006.17 1682.17 1742.51
5397.8 925.425 985.205 1780.5 1713.05
5400.69 993.608 980.441 1676.47 1699.9
5403.57 1022.29 1036.05 1642.73 1688.05
5406.46 1092.26 1002.11 1744.95 1693.33
5409.34 891.776 1046.12 1692.3 1762.97
5412.23 1154.32 1069.14 1851.67 1787.38
5415.11 1161.31 1124.86 1818.18 1789.69
5417.99 1058.96 1098.07 1699.23 1760.42
5420.88 1073.95 1068.36 1763.84 1744.29
5423.76 1072.18 1024.48 1769.79 1766.8
5426.65 927.311 1022.16 1766.77 1749.99
5429.53 1066.98 1028.77 1713.4 1751.88
5432.41 1092.02 1089.02 1775.46 1773.75
5435.3 1108.07 1137.89 1832.38 1840.51
5438.18 1213.57 1161.89 1913.7 1865.11
5441.06 1164.03 1157.26 1849.25 1841.59
5443.95 1094.17 1154.42 1761.82 1846.91
5446.83 1205.07 1161.4 1929.66 1858.73
5449.71 1184.96 1172.21 1884.69 1888.43
5452.6 1126.62 1158.41 1850.93 1851.95
5455.48 1163.65 1163.99 1820.22 1847.84
5458.36 1201.7 1075.17 1872.37 1814.61
5461.25 860.156 1080 1751.25 1829.98
5464.13 1178.16 1018.48 1866.33 1846.41
5467.01 1017.14 1089.15 1921.65 1852.44
5469.89 1072.15 1072.24 1769.33 1834.18
5472.78 1127.44 1049.93 1811.56 1807.31
5475.66 950.206 1018.89 1841.04 1846.14
5478.54 979.033 1056.09 1885.83 1876.38
5481.42 1239.03 1127.97 1902.27 1884.95
5484.3 1165.85 1093.76 1866.73 1870.37
5487.19 876.407 1090.42 1842.1 1878.08
5490.07 1228.99 1048.72 1925.4 1898.76
5492.95 1040.77 1141.37 1928.77 1907.31
5495.83 1154.36 1121.31 1867.76 1897.21
5498.71 1168.81 1093.69 1895.1 1874.82
5501.59 957.91 1099.29 1861.61 1887.92
5504.47 1171.14 1101.41 1907.04 1891.27
5507.36 1175.17 1172.27 1905.16 1874.76
5510.24 1170.48 1173.48 1812.1 1857.57
5513.12 1174.79 1173.45 1855.47 1850.15
5516 1175.08 1228.98 1882.9 1920.15
5518.88 1337.06 1238.34 2022.07 1925.93
5521.76 1202.86 1237.45 1872.83 1911.42
5524.64 1172.43 1193.62 1839.36 1859.51
5527.52 1205.56 1173.73 1866.34 1851.36
5530.4 1143.2 1194.75 1848.38 1873.24
5533.28 1235.49 1188.22 1905 1874.46
5536.16 1185.97 1219.4 1869.99 1909.36
5539.04 1236.75 1193.09 1953.08 1900.69
5541.92 1156.54 1204.15 1878.99 1931.21
5544.8 1219.17 1122.98 1961.54 1917.41
5547.68 993.227 1161.14 1911.69 1965.67
5550.56 1271.04 1154.25 2023.78 1932.87
5553.44 1198.49 1211.2 1863.15 1904.53
5556.32 1164.08 1188.87 1826.66 1875.58
5559.2 1204.06 1165.13 1936.93 1846.24
5562.08 1127.26 1156.09 1775.13 1852.11
5564.96 1136.94 1120.7 1844.28 1791.63
5567.84 1097.89 1151.37 1755.48 1845.42
5570.72 1219.29 1042.43 1936.51 1851.87
5573.59 810.119 1076.26 1863.64 1895.78
5576.47 1199.37 1054.7 1887.2 1845.87
5579.35 1154.61 1173.69 1786.78 1828.47
5582.23 1167.08 1153.02 1811.44 1793.53
5585.11 1137.37 1124.76 1782.39 1758.45
5587.99 1069.84 1032.57 1681.53 1752.12
5590.86 890.511 1034.33 1792.42 1753.22
5593.74 1142.64 1061.54 1785.71 1806.78
5596.62 1151.48 1140.22 1842.22 1796.55
5599.5 1126.55 1148.68 1761.71 1814.23
5602.38 1168.02 1159.09 1838.76 1819.93
5605.25 1182.68 1153.77 1859.31 1838.31
5608.13 1110.6 1095.7 1816.86 1855.8
5611.01 993.824 1100.15 1891.24 1856.55
5613.89 1196.04 1100.06 1861.56 1854.08
5616.76 1110.33 1163.88 1809.43 1843.06
5619.64 1185.28 1120.13 1858.2 1797.07
5622.52 1064.78 1173.68 1723.58 1848.01
5625.4 1270.96 1157.1 1962.25 1843.83
5628.27 1135.54 1197.9 1845.65 1895.69
5631.15 1187.19 1186.66 1879.17 1887.26
5634.03 1237.26 1219.58 1936.97 1909.61
5636.9 1234.3 1159.63 1912.7 1919.97
5639.78 1007.34 1151.73 1910.23 1907.94
5642.65 1213.54 1063.59 1900.88 1891.52
5645.53 969.896 1153.54 1863.43 1905.45
5648.41 1277.18 1127.74 1952.05 1874.62
5651.28 1136.14 1180.25 1808.36 1851.06
5654.16 1127.42 1106.84 1792.77 1760.41
5657.03 1056.96 1111.18 1680.08 1753.7
5659.91 1149.15 1125.89 1788.24 1758.63
5662.79 1171.57 1156.95 1807.58 1810.13
5665.66 1150.13 1154.52 1834.57 1810.66
5668.54 1141.86 1161.37 1789.82 1828.5
5671.41 1192.11 1177.12 1861.13 1832.53
5674.29 1197.4 1230.38 1846.66 1888.99
5677.16 1301.63 1236.59 1959.19 1905.88
5680.04 1210.75 1251.19 1911.78 1917.37
5682.91 1241.2 1210.52 1881.14 1892.77
5685.79 1179.62 1204.54 1885.39 1871.39
5688.66 1192.79 1221.18 1847.65 1873.51
5691.54 1291.13 1216.12 1887.49 1855.32
5694.41 1164.43 1138.62 1830.81 1860.12
5697.28 960.308 1024.88 1862.05 1851.31
5700.16 949.908 1027.19 1861.06 1848.57
5703.03 1171.34 1094.22 1822.6 1843.34
5705.91 1161.41 1131.54 1846.36 1788.45
5708.78 1061.88 1127.59 1696.39 1783.06
5711.65 1159.48 1041.57 1806.44 1752.75
5714.53 903.335 1101.07 1755.42 1820.28
5717.4 1240.38 1115.72 1898.99 1831.21
5720.27 1203.44 1195.14 1839.22 1857.76
5723.15 1141.59 1172.2 1835.07 1837.82
5726.02 1171.57 1162.27 1839.18 1827.33
5728.89 1173.65 1211.3 1807.75 1870.6
5731.77 1288.67 1222.76 1964.88 1891.25
5734.64 1205.97 1251.26 1901.11 1912.48
5737.51 1259.14 1143.87 1871.44 1866.04
5740.38 966.513 1078.3 1825.56 1838.56
5743.26 1009.25 1059.66 1818.69 1822.83
5746.13 1203.21 1129.07 1824.24 1813.39
5749 1174.76 1178.71 1797.24 1820.34
5751.87 1158.17 1169.46 1839.54 1820.94
5754.75 1175.45 1161.39 1826.04 1814.46
5757.62 1150.56 1056.32 1777.81 1772.23
5760.49 842.93 990.845 1712.85 1776.36
5763.36 979.044 988.767 1838.41 1764.72
5766.23 1144.33 1129.3 1742.91 1814.14
5769.1 1264.52 1202.06 1861.1 1821.56
5771.98 1197.32 1216.02 1860.67 1847.4
5774.85 1186.23 1151.09 1820.43 1785.94
5777.72 1069.73 1133.58 1676.74 1745.05
5780.59 1144.77 1108.12 1737.99 1720.92
5783.46 1109.86 1040.05 1748.04 1728.26
5786.33 865.527 1058.06 1698.76 1752.48
5789.2 1198.8 1087.67 1810.63 1774.2
5792.07 1198.68 1145.35 1813.22 1835.6
5794.94 1038.59 1153.88 1882.96 1834.76
5797.81 1224.37 1151.22 1808.11 1826.05
5800.68 1190.71 1188.7 1787.08 1790.61
5803.55 1151 1119.38 1776.64 1797.66
5806.42 1016.43 1132.87 1829.26 1813.08
5809.29 1231.17 1162.55 1833.33 1842.03
5812.16 1240.06 1122.55 1863.51 1808.43
5815.03 896.406 1060.47 1728.45 1829.71
5817.9 1044.95 1066.76 1897.17 1836
5820.77 1258.93 1188.81 1882.4 1903.16
5823.64 1262.55 1241.59 1929.92 1882.24
5826.51 1203.3 1165.26 1834.41 1877.73
5829.38 1029.94 1145.68 1868.85 1843.52
5832.25 1203.8 1164 1827.31 1865.94
5835.12 1258.25 1234.89 1901.67 1861.99
5837.99 1242.61 1284.62 1857 1903.6
5840.85 1352.99 1232.84 1952.13 1925.42
5843.72 1102.91 1216.82 1967.13 1910.22
5846.59 1194.55 1199.71 1811.42 1902.29
5849.46 1301.67 1222.68 1928.33 1832.63
5852.33 1171.83 1229.68 1758.13 1857.01
5855.2 1215.55 1174.62 1884.56 1806.35
5858.06 1136.47 1130.38 1776.36 1839.99
5860.93 1039.12 1153.54 1859.07 1847.11
5863.8 1285.02 1195.44 1905.91 1860.89
5866.67 1262.19 1236.08 1817.7 1850.19
5869.53 1161.02 1190.48 1826.96 1812.99
5872.4 1148.24 1131.13 1794.31 1846.21
5875.27 1084.14 1135.01 1917.36 1844.78
5878.14 1172.64 1155.34 1822.68 1869.79
5881 1209.24 1168.1 1869.33 1801.8
5883.87 1122.41 1134.45 1713.39 1748.19
5886.74 1071.71 941.126 1661.83 1631.45
5889.6 629.259 907.25 1519.14 1583.83
5892.47 1020.78 895.207 1570.51 1521.17
5895.34 1035.58 1030.25 1473.86 1540.53
5898.2 1034.4 1035.44 1577.22 1544.68
5901.07 1036.35 1097.01 1582.96 1660.79
5903.93 1220.28 1167.98 1822.18 1778.28
5906.8 1247.32 1219.1 1929.69 1840.57
5909.67 1189.71 1241.41 1769.85 1862.06
5912.53 1287.19 1220.12 1886.65 1808.19
5915.4 1183.46 1244 1768.08 1845.36
5918.26 1261.35 1213.11 1881.34 1817.3
5921.13 1194.51 1118.66 1802.46 1808.76
5923.99 900.106 1117.25 1742.49 1797.74
5926.86 1257.13 1093.76 1848.26 1849.5
5929.72 1124.03 1069.76 1957.77 1823.42
5932.59 828.122 1064.46 1664.24 1811.75
5935.45 1241.22 1028.08 1813.24 1768.49
5938.32 1014.9 1080.27 1827.99 1826.2
5941.18 984.708 997.802 1837.37 1850.25
5944.05 993.801 1045.5 1885.4 1827.55
5946.91 1157.98 1014.79 1759.89 1801.91
5949.77 892.575 1069.43 1760.44 1722.84
5952.64 1157.74 1068.84 1648.18 1706.83
5955.5 1156.21 1091.97 1711.85 1722.54
5958.37 961.948 1111.32 1807.59 1781.81
5961.23 1215.8 1137.56 1825.99 1808.68
5964.09 1234.95 1121.89 1792.44 1800.66
5966.96 914.925 1129.36 1783.54 1795.94
5969.82 1238.2 1028.27 1811.84 1785.21
5972.68 931.685 1134.07 1760.24 1798.17
5975.55 1232.32 1130.71 1822.42 1793.9
5978.41 1228.12 1207.03 1799.04 1785.9
5981.27 1160.66 1192.56 1736.24 1763.33
5984.13 1188.91 1082.67 1754.71 1734.18
5987 898.46 1103.31 1711.59 1740.02
5989.86 1222.56 1109.01 1753.78 1743.87
5992.72 1206.02 1098.81 1766.25 1737.43
5995.58 867.841 1084.16 1692.26 1736.33
5998.45 1178.63 1050.03 1750.48 1706.92
6001.31 1103.6 1080.92 1678.03 1727.69
6004.17 960.525 1085.79 1754.56 1723.73
6007.03 1193.24 1042.81 1738.6 1750.62
6009.89 974.649 1133.47 1758.7 1768.87
6012.75 1232.51 1043.73 1809.3 1757.5
6015.62 924.026 1101.27 1704.51 1741.57
6018.48 1147.29 1086.59 1710.9 1716.98
6021.34 1188.46 1165.01 1735.52 1714.87
6024.2 1159.29 1092.8 1698.2 1708.38
6027.06 930.638 1081.52 1691.43 1702.48
6029.92 1154.63 1104.89 1717.81 1733.98
6032.78 1229.41 1130.03 1792.7 1767.07
6035.64 1006.05 1142.93 1790.7 1788.92
6038.5 1193.34 1039.91 1783.38 1774
6041.36 920.357 1094.62 1747.91 1763.38
6044.22 1170.15 1107.19 1758.85 1771.85
6047.08 1231.07 1199.14 1808.78 1769.75
6049.94 1196.2 1204.89 1741.63 1752.71
6052.8 1187.38 1191.55 1707.71 1725.21
6055.66 1191.08 1176.93 1726.3 1699.36
6058.52 1152.33 1175.68 1664.08 1710.61
6061.38 1183.63 1188.79 1741.46 1738.49
6064.24 1230.41 1218.91 1809.93 1780.66
6067.1 1242.7 1249.05 1790.61 1806.03
6069.96 1274.03 1233.48 1817.54 1783.09
6072.82 1183.72 1221.13 1741.11 1775.97
6075.67 1205.63 1193.64 1769.25 1739.34
6078.53 1191.58 1182.16 1707.67 1712.32
6081.39 1149.27 1159.05 1660.06 1701.73
6084.25 1136.31 1168.85 1737.46 1722.96
6087.11 1220.98 1169.84 1771.36 1735.57
6089.97 1152.24 1181.18 1697.9 1724.75
6092.82 1170.32 1174.61 1704.98 1725.55
6095.68 1201.27 1165.51 1773.76 1713.48
6098.54 1124.93 1154.95 1661.69 1696.91
6101.4 1138.65 1111.33 1655.28 1640.3
6104.25 1070.43 1140.14 1603.92 1663.91
6107.11 1211.34 1151.85 1732.53 1690.05
6109.97 1173.77 1207.09 1733.69 1740.31
6112.83 1236.16 1195.61 1754.7 1738.41
6115.68 1176.89 1189.05 1726.85 1716.49
6118.54 1154.1 1155.93 1667.91 1683.27
6121.4 1136.79 1067.17 1655.05 1675.86
6124.25 910.613 1069.12 1704.63 1675.27
6127.11 1159.95 975.08 1666.12 1653.95
6129.96 854.676 1039.1 1591.1 1630.47
6132.82 1102.68 1033.02 1634.19 1633.92
6135.68 1141.7 1141.4 1676.47 1666.5
6138.53 1179.81 1143.22 1688.85 1656.45
6141.39 1108.15 1121.56 1604.02 1635.5
6144.24 1076.71 1117.29 1613.62 1626.79
6147.1 1167 1074.94 1662.73 1679.18
6149.95 981.098 1068.09 1761.19 1656.77
6152.81 1056.17 1060.37 1546.41 1650.92
6155.66 1143.85 1089.59 1645.16 1568
6158.52 1068.75 1079.3 1512.42 1566.75
6161.37 1025.29 969.765 1542.68 1521.85
6164.23 815.25 995.173 1510.46 1575.14
6167.08 1144.98 1042.61 1672.28 1625.02
6169.94 1167.61 1150.67 1692.31 1679.17
6172.79 1139.41 1138.55 1672.92 1675.52
6175.65 1108.62 1050.82 1661.32 1674.3
6178.5 904.415 1012.66 1688.65 1690.09
6181.35 1024.95 1014.56 1720.31 1696.16
6184.21 1114.31 1077.6 1679.53 1648.24
6187.06 1093.54 1101.07 1544.89 1604.31
6189.91 1095.37 1112.56 1588.51 1596.14
6192.77 1148.77 1123.8 1655.01 1617.65
6195.62 1127.27 1120.94 1609.42 1624.63
6198.47 1086.77 1057.02 1609.47 1624.47
6201.33 957.017 1014.05 1654.53 1654.07
6204.18 998.356 1043.22 1698.22 1676.56
6207.03 1174.3 1098.62 1676.93 1661.88
6209.89 1123.22 1141.04 1610.5 1644.68
6212.74 1125.62 1070.77 1646.62 1645.39
6215.59 963.474 1071.43 1679.04 1656.27
6218.44 1125.19 1088.64 1643.14 1659.12
6221.29 1177.27 1142.54 1655.18 1643.4
6224.15 1125.16 1062.17 1631.86 1634.46
6227 884.086 1017.34 1616.35 1593.56
6229.85 1042.79 927.231 1532.47 1587.61
6232.7 854.82 1026.43 1614.01 1611.51
6235.55 1181.67 1065.26 1688.03 1648.66
6238.4 1159.29 1118.46 1643.92 1613.79
6241.25 1014.43 1092.75 1509.4 1600.15
6244.11 1104.53 1081.51 1647.12 1580.45
6246.96 1125.58 1095.43 1584.82 1580.05
6249.81 1056.19 1115.11 1508.2 1571.22
6252.66 1163.57 1113.13 1620.65 1577.9
6255.51 1119.62 1123.02 1604.85 1600.69
6258.36 1085.86 1084.41 1576.57 1568.79
6261.21 1047.75 1072.1 1524.94 1569.45
6264.06 1082.69 1068.1 1606.83 1582.04
6266.91 1073.87 1092.42 1614.36 1617
6269.76 1120.7 1045.91 1629.8 1657.74
6272.61 943.155 951.436 1729.08 1630.76
6275.46 790.449 846.266 1533.41 1573.77
6278.31 805.193 893.379 1458.84 1508.09
6281.16 1084.5 1019.6 1532.01 1543.7
6284 1169.12 1047.15 1640.26 1582.03
6286.85 887.839 1024.91 1573.83 1588.78
6289.7 1017.77 1015.06 1552.25 1543.44
6292.55 1139.57 1086.41 1504.24 1531.24
6295.4 1101.89 1102.29 1537.22 1495.42
6298.25 1065.41 1042.65 1444.8 1435.33
6301.1 960.642 1029.22 1323.96 1407.32
6303.94 1061.62 1081.9 1453.19 1470.38
6306.79 1223.45 1132.3 1634 1571.31
6309.64 1111.84 1154.69 1626.73 1602.96
6312.49 1128.79 1065.78 1548.16 1553.71
6315.33 956.707 1032.09 1486.24 1513.41
6318.18 1010.77 1025.38 1505.82 1523.95
6321.03 1108.65 1067.37 1579.79 1550.98
6323.88 1082.7 1124.48 1567.31 1609
6326.72 1182.11 1129.82 1679.9 1625.42
6329.57 1124.65 1158.32 1629.05 1643.33
6332.42 1168.21 1121.02 1621.03 1601.34
6335.26 1070.2 1097.75 1553.94 1571.48
6338.11 1054.84 1075.02 1539.48 1563.76
6340.96 1100.01 1079.2 1597.87 1561.13
6343.8 1082.75 1114.31 1546.03 1598.29
6346.65 1160.16 1127.05 1650.96 1609.87
6349.49 1138.23 1143.35 1632.62 1640.83
6352.34 1131.65 1118.08 1638.91 1605.21
6355.18 1084.36 1098.98 1544.09 1564.74
6358.03 1080.93 1091.32 1511.22 1531.52
6360.88 1108.68 1110.6 1539.26 1536.46
6363.72 1142.17 1099.31 1558.9 1528.93
6366.57 1047.06 1099.4 1488.62 1546.93
6369.41 1108.96 1060.24 1593.26 1500.22
6372.25 1024.71 1086.84 1418.76 1550.66
6375.1 1126.83 1038.7 1639.96 1533.65
6377.94 964.56 1040.16 1542.22 1582.17
6380.79 1029.1 1002.57 1564.32 1560.81
6383.63 1014.05 1025.84 1575.88 1574.2
6386.48 1034.37 1015.2 1582.4 1567.06
6389.32 997.186 943.111 1542.9 1539.91
6392.16 797.78 934.428 1494.43 1519.86
6395.01 1008.32 929.767 1522.25 1499.44
6397.85 983.205 933.03 1481.65 1489.08
6400.69 807.571 910.33 1463.34 1473.06
6403.54 940.214 925.538 1474.19 1502.54
6406.38 1028.83 926.225 1570.09 1542.89
6409.22 809.632 937.668 1584.39 1563.05
6412.07 974.543 933.186 1534.68 1552.91
6414.91 1015.38 1009.29 1539.66 1543.98
6417.75 1037.94 945.749 1557.6 1531.15
6420.59 783.923 953.553 1496.2 1548.09
6423.43 1038.79 942.923 1590.47 1527.1
6426.28 1006.05 998.222 1494.64 1531.1
6429.12 949.82 935.439 1508.19 1514.65
6431.96 850.445 947.639 1541.12 1545.99
6434.8 1042.65 951.987 1588.67 1541.65
6437.64 962.863 933.977 1495.16 1536.87
6440.48 796.415 924.805 1526.78 1536.19
6443.33 1015.14 953.472 1586.62 1557.49
6446.17 1048.86 1021.01 1559.05 1553.55
6449.01 999.026 1002.74 1514.98 1522.07
6451.85 960.346 988.05 1492.18 1507.19
6454.69 1004.78 941.361 1514.41 1524.03
6457.53 858.959 934.727 1565.51 1516.41
6460.37 940.444 968.263 1469.32 1545.97
6463.21 1105.39 1000.41 1603.07 1524.74
6466.05 955.39 997.157 1501.84 1503.28
6468.89 930.694 979.801 1404.93 1494.3
6471.73 1053.32 990.44 1576.12 1478.29
6474.57 987.308 1017.23 1453.84 1525.63
6477.41 1011.08 1004.73 1546.94 1518.24
6480.25 1015.8 1010.45 1553.94 1538.25
6483.09 1004.47 1029.43 1513.88 1552.67
6485.92 1068.01 963.454 1590.2 1528.75
6488.76 817.882 963.12 1482.17 1518.15
6491.6 1003.47 837.089 1482.08 1454.33
6494.44 689.915 877.098 1398.74 1442.47
6497.28 937.909 867.391 1446.57 1449.48
6500.12 974.349 952.678 1503.13 1469.69
6502.95 945.775 981.688 1459.37 1504.65
6505.79 1024.94 997.156 1551.44 1493.29
6508.63 1020.75 1008.86 1469.05 1467.64
6511.47 980.89 1005.66 1382.42 1476.04
6514.31 1015.34 985.003 1576.64 1459
6517.14 958.78 995.236 1417.93 1488
6519.98 1011.59 929.894 1469.43 1465.95
6522.82 819.312 942.124 1510.49 1480.38
6525.65 995.47 944.18 1461.22 1493.71
6528.49 1017.76 1014.85 1509.42 1498.25
6531.33 1031.31 1027.65 1524.11 1552.55
6534.16 1033.89 1011.54 1624.1 1542.31
6537 969.434 999.73 1478.73 1553.6
6539.84 995.866 969.031 1557.97 1501.83
6542.67 941.794 945.736 1468.78 1492.19
6545.51 899.548 944.496 1449.82 1463.45
6548.34 992.145 944.514 1471.75 1445.72
6551.18 941.849 884.618 1415.6 1415.24
6554.01 719.86 829.476 1358.38 1343.22
6556.85 826.717 800.199 1255.67 1278.58
6559.68 854.021 867.945 1221.69 1286.24
6562.52 923.097 878.453 1381.37 1297.37
6565.35 858.24 915.062 1289.04 1352.64
6568.19 963.849 897.716 1387.52 1337.13
6571.02 871.059 939.176 1334.82 1406.07
6573.86 982.619 857.541 1495.86 1418.35
6576.69 718.944 875.672 1424.36 1454.22
6579.53 925.454 841.517 1442.43 1409.19
6582.36 880.153 926.021 1360.78 1426.44
6585.19 972.457 935.879 1476.11 1422.13
6588.03 955.028 967.056 1429.5 1463.47
6590.86 973.683 975.989 1484.81 1467.27
6593.69 999.258 896.871 1487.49 1460.67
6596.53 717.671 917.604 1409.72 1459.9
6599.36 1035.88 907.701 1482.5 1459.79
6602.19 969.549 1018.54 1487.14 1505.89
6605.02 1050.19 988.254 1548.03 1496.44
6607.86 945.028 987.866 1454.14 1487.86
6610.69 968.383 991.579 1461.41 1487.54
6613.52 1061.33 949.948 1547.08 1493.25
6616.35 820.137 873.409 1471.27 1493.05
6619.18 738.765 844.275 1460.81 1462.61
6622.02 973.922 896.976 1455.74 1476.86
6624.85 978.24 931.331 1514.04 1493.37
6627.68 841.831 861.891 1510.33 1487.56
6630.51 765.601 837.877 1438.32 1441.2
6633.34 906.199 891.365 1374.96 1435.08
6636.17 1002.29 962.994 1491.95 1442.17
6639 980.49 929.05 1459.58 1465.96
6641.83 804.366 941.324 1446.35 1471.34
6644.66 1039.11 943.494 1508.09 1487.56
6647.49 987.002 969.406 1508.23 1465.05
6650.32 882.1 873.981 1378.81 1432.12
6653.15 752.839 879.501 1409.32 1421.1
6655.98 1003.56 945.319 1475.18 1469.84
6658.81 1079.56 1021.83 1525.01 1486.85
6661.64 982.382 1005.41 1460.36 1466.36
6664.47 954.302 900.739 1413.7 1423.19
6667.3 765.534 906.125 1395.51 1424.46
6670.13 998.54 841.488 1464.16 1417.03
6672.96 760.392 889.709 1391.42 1413.22
6675.79 910.194 908.84 1384.08 1411.62
6678.62 1055.93 950.156 1459.38 1434.57
6681.45 884.338 1010.34 1460.25 1483.95
6684.27 1090.76 957.957 1532.22 1448.79
6687.1 898.778 1004.75 1353.9 1432.95
6689.93 1024.72 955.889 1412.74 1379.74
6692.76 944.169 960.605 1372.6 1394.16
6695.59 912.927 923.383 1397.15 1382.66
6698.41 913.053 873.817 1378.22 1394.01
6701.24 795.473 923.418 1406.66 1424.06
6704.07 1061.73 934.407 1487.31 1434.86
6706.89 946.02 998.265 1410.63 1463.71
6709.72 987.045 941.979 1493.2 1422.41
6712.55 892.871 940.552 1363.39 1409.22
6715.37 941.74 868.863 1371.08 1392.35
6718.2 771.979 881.924 1442.58 1400.39
6721.03 932.054 874.979 1387.5 1399.13
6723.85 920.904 880.072 1367.31 1384.47
6726.68 787.257 908.158 1398.61 1404.24
6729.5 1016.31 940.548 1446.82 1437.14
6732.33 1018.07 988.336 1466.01 1449.3
6735.16 930.621 903.625 1435.06 1420.79
6737.98 762.181 844.598 1361.28 1405.28
6740.81 840.993 859.745 1419.48 1398.88
6743.63 976.062 883.423 1415.88 1424.45
6746.46 833.214 944.138 1438 1410.22
6749.28 1023.14 947.915 1376.8 1408.93
6752.1 987.395 1001.76 1411.98 1409.35
6754.93 994.745 992.516 1439.27 1419.22
6757.75 995.408 987.106 1406.39 1428.47
6760.58 971.163 993.211 1439.76 1426.39
6763.4 1013.06 957.949 1433.01 1388.34
6766.22 889.621 957.821 1292.26 1375.77
6769.05 970.78 941.278 1402.05 1362.92
6771.87 963.432 941.975 1394.46 1363.82
6774.69 891.713 951.251 1294.96 1362.95
6777.52 998.607 963.436 1399.44 1384.24
6780.34 999.988 987.469 1458.31 1408.49
6783.16 963.813 964.214 1367.72 1385.66
6785.99 928.841 938.668 1330.95 1339.78
6788.81 923.351 932.086 1320.67 1332.11
6791.63 944.067 947.022 1344.72 1348.45
6794.45 973.648 971.738 1379.97 1371.94
6797.27 997.499 989.777 1391.14 1390.24
6800.1 998.185 941.557 1399.62 1385.93
6802.92 828.987 863.616 1367.04 1360.18
6805.74 763.675 785.464 1313.88 1331.75
6808.56 763.729 774.485 1314.32 1337.09
6811.38 796.051 833.593 1383.09 1345.37
6814.2 940.997 870.99 1338.72 1342.79
6817.02 875.922 885.14 1306.56 1372.17
6819.84 838.5 881.489 1471.23 1360.43
6822.66 930.044 835.874 1303.49 1370.44
6825.48 739.08 888.52 1336.61 1315.7
6828.3 996.436 884.536 1306.98 1328.31
6831.12 918.093 972.582 1341.35 1342.91
6833.94 1003.22 960.826 1380.39 1337.79
6836.76 961.17 959.861 1291.62 1333
6839.58 915.197 875.225 1326.97 1320.74
6842.4 749.307 805.715 1343.62 1330.72
6845.22 752.642 835.511 1321.57 1345.45
6848.04 1004.58 901.491 1371.16 1330.42
6850.86 947.249 981.045 1298.54 1347.47
6853.68 991.302 991.471 1372.69 1356.53
6856.49 1035.86 977.886 1398.37 1347.28
6859.31 906.496 908.044 1270.79 1290.38
6862.13 781.774 791.653 1201.99 1174.41
6864.95 686.688 734.022 1050.45 1091.94
6867.77 733.604 711.161 1023.38 1028.71
6870.58 713.189 726.234 1012.31 1025.99
6873.4 731.91 753.876 1042.27 1049.91
6876.22 816.529 792.229 1095.15 1089.67
6879.04 828.247 815.68 1131.59 1115.16
6881.85 802.265 823.592 1118.75 1131.51
6884.67 840.265 820.332 1144.2 1121.07
6887.49 818.467 830.329 1100.26 1125.39
6890.3 832.255 820.855 1131.72 1120.71
6893.12 811.843 850.549 1130.13 1138.87
6895.93 907.55 834.942 1154.77 1121.97
6898.75 785.432 870.491 1081 1144.44
6901.57 918.491 880.004 1197.54 1167.53
6904.38 936.09 912.5 1224.04 1195.4
6907.2 882.92 890.056 1164.62 1178
6910.01 851.157 873.981 1145.33 1167.54
6912.83 887.867 799.602 1192.66 1164.23
6915.64 659.783 731.967 1154.7 1167.37
6918.46 648.251 737.266 1154.75 1183.77
6921.27 903.764 813.256 1241.87 1183.79
6924.09 887.753 873.391 1154.76 1191.47
6926.9 828.657 878.371 1177.77 1192.04
6929.71 918.703 780.518 1243.59 1164.55
6932.53 594.192 804.203 1072.3 1170.52
6935.34 899.712 786.892 1195.67 1128.46
6938.15 866.772 892.088 1117.4 1173.72
6940.97 909.778 854.165 1208.08 1140.96
6943.78 785.944 861.633 1097.39 1166.88
6946.59 889.176 862.748 1195.18 1159.56
6949.41 913.125 868.585 1186.11 1159.83
6952.22 803.455 835.754 1098.2 1127.69
6955.03 790.683 813.582 1098.76 1111.1
6957.84 846.607 843.418 1136.35 1130.63
6960.66 892.964 809.791 1156.79 1167.89
6963.47 689.801 838.095 1210.52 1211.01
6966.28 931.52 857.683 1265.71 1240.69
6969.09 951.728 914.133 1245.84 1205.64
6971.9 859.149 880.752 1105.38 1162.91
6974.71 831.377 775.126 1137.5 1139.98
6977.53 634.852 775.502 1177.06 1156.22
6980.34 860.278 815.887 1154.09 1182.61
6983.15 952.531 932.979 1216.67 1213.59
6985.96 986.127 940.236 1270 1225.72
6988.77 882.049 869.026 1190.49 1202.85
6991.58 738.902 836.702 1148.05 1170.29
6994.39 889.155 817.107 1172.32 1151.09
6997.2 823.265 804.249 1132.89 1156.13
7000.01 700.326 766.208 1163.17 1126.82
7002.82 775.034 791.616 1084.41 1142.02
7005.63 899.487 780.205 1178.47 1129.26
7008.44 666.095 790.195 1124.89 1119.76
7011.25 805.003 773.898 1055.91 1100.35
7014.05 850.595 757.907 1120.24 1087.46
7016.86 618.123 768.191 1086.25 1113.07
7019.67 835.854 770.048 1132.72 1115.79
7022.48 856.166 762.375 1128.41 1099.51
7025.29 595.104 718.629 1037.41 1106.55
7028.1 704.617 714.176 1153.82 1087.87
7030.9 842.807 741.255 1072.37 1097.82
7033.71 676.34 793.861 1067.26 1087.94
7036.52 862.436 801.906 1124.18 1109.38
7039.33 866.941 842.343 1136.69 1094.8
7042.13 797.653 835.681 1023.54 1062.66
7044.94 842.448 815.228 1027.75 1042.33
7047.75 805.583 834.008 1075.7 1060.73
7050.55 853.992 826.793 1078.74 1082.4
7053.36 820.803 833.112 1092.74 1067.01
7056.17 824.541 835.655 1029.53 1072.24
7058.97 861.622 794.581 1094.46 1062.55
7061.78 697.58 812.533 1063.65 1100.43
7064.58 878.398 811.855 1143.18 1099.12
7067.39 859.586 811.409 1090.51 1105.86
7070.19 696.243 813.751 1083.89 1085.32
7073 885.425 805.281 1081.56 1076.86
7075.8 834.175 850.741 1065.13 1066.06
7078.61 832.622 841.844 1051.49 1051.74
7081.41 858.735 780.177 1038.6 1043.25
7084.22 649.173 788.953 1039.65 1055.74
7087.02 858.952 766.522 1088.97 1043.95
7089.83 791.44 810.377 1003.23 1042.8
7092.63 780.739 808.631 1036.21 1043.94
7095.43 853.715 817.946 1092.37 1050.01
7098.24 819.385 833.567 1021.47 1054.35
7101.04 827.602 817.459 1049.2 1020.82
7103.84 805.388 818.308 991.782 1016.96
7106.65 821.933 801.766 1009.91 983.027
7109.45 777.977 830.581 947.389 1012.88
7112.25 891.831 821.76 1081.35 1018.76
7115.06 795.472 849.354 1027.53 1046.68
7117.86 860.758 807.422 1031.14 1005.5
7120.66 766.035 784.609 957.827 988.087
7123.46 727.034 774.276 975.291 974.337
7126.26 829.758 798.336 989.893 1007.89
7129.07 838.216 757.497 1058.5 1012.83
7131.87 604.516 689.811 990.089 1007.52
7134.67 626.702 681.558 973.984 977.253
7137.47 813.455 744.612 967.686 985.373
7140.27 793.677 816.797 1014.45 992.703
7143.07 843.259 808.471 995.973 1001.36
7145.87 788.476 811.796 993.669 1001.31
7148.67 803.652 727.784 1014.3 983.007
7151.47 591.225 673.506 941.055 985.637
7154.27 625.642 662.105 1001.56 970.781
7157.07 769.449 727.193 969.729 989.276
7159.87 786.487 787.077 996.538 987.699
7162.67 805.293 781.83 996.831 975.661
7165.47 753.71 713.707 933.612 935.422
7168.27 582.116 728.354 875.824 946.04
7171.07 849.236 674.108 1028.68 934.832
7173.87 590.972 733.896 899.991 965.647
7176.66 761.481 723.744 968.268 943.687
7179.46 818.778 761.334 962.802 941.336
7182.26 703.745 737.484 892.936 925.884
7185.06 689.929 695.574 921.914 893.877
7187.86 693.048 720.37 866.782 900.434
7190.65 778.134 751.892 912.607 924.979
7193.45 784.494 775.27 995.549 945.009
7196.25 763.181 759.918 926.869 945.941
7199.05 732.079 740.566 915.405 909.186
7201.84 726.438 729.112 885.283 897.659
7204.64 728.818 758.429 892.289 905.355
7207.44 820.03 755.347 938.492 906.725
7210.23 717.192 779.632 889.395 926.935
7213.03 801.674 743.87 952.919 895.588
7215.82 712.744 707.764 844.452 902.5
7218.62 608.873 660.476 910.129 871.038
7221.41 659.811 690.688 858.532 891.963
7224.21 803.381 666.704 907.228 888.245
7227.01 536.92 692.366 898.974 886.005
7229.8 736.795 668.818 851.813 862.919
7232.6 732.738 654.225 837.971 858.7
7235.39 493.142 660.315 886.316 858.259
7238.18 755.065 645.753 850.489 854.361
7240.98 689.052 720.635 826.279 833.782
7243.77 717.788 698.215 824.577 810.538
7246.57 687.804 697.554 780.757 827.979
7249.36 687.068 718.26 878.602 847.8
7252.15 779.908 698.644 884.04 903.138
7254.95 628.957 709.953 946.773 885.904
7257.74 720.995 696.263 826.9 885.26
7260.53 738.836 672.544 882.106 849.885
7263.33 557.802 677.542 840.65 867.818
7266.12 735.988 655.898 880.698 845.735
7268.91 673.904 704.501 815.858 827.693
7271.7 703.61 674.234 786.522 801.643
7274.49 645.19 711.945 802.549 822.216
7277.29 787.035 691.823 877.577 821.129
7280.08 643.243 708.265 783.261 840.476
7282.87 694.515 694.441 860.591 830.991
7285.66 745.566 724.399 849.122 856.004
7288.45 733.116 716.964 858.3 833.752
7291.24 672.21 717.765 793.833 832.741
7294.03 747.971 704.897 846.089 822.001
7296.82 694.509 657.008 826.082 831.232
7299.61 528.546 628.668 821.524 811.579
7302.4 662.948 644.318 787.13 821.198
7305.19 741.462 681.123 854.941 804.605
7307.98 638.96 688.556 771.744 810.101
7310.77 685.245 667.269 803.62 782.756
7313.56 677.601 699.175 772.903 797.772
7316.35 734.677 720.953 816.792 819.437
7319.14 750.582 714.126 868.616 808.087
7321.93 657.118 705.902 738.854 806.73
7324.72 710.007 689.421 812.718 801.246
7327.51 701.139 705.168 852.165 833.722
7330.29 704.358 719.154 836.284 846.148
7333.08 751.963 725.77 849.997 798.877
7335.87 720.988 640.534 710.351 806.691
7338.66 448.651 500.195 859.724 786.104
7341.45 330.945 474.653 788.238 808.188
7344.23 644.362 517.816 776.603 767.286
7347.02 578.142 632.521 737.018 775.933
7349.81 675.059 637.962 814.18 774.509
7352.59 660.684 671.843 772.329 784.81
7355.38 679.786 657.825 767.921 767.44
7358.17 633.004 662.498 762.072 769.949
7360.95 674.704 634.043 779.855 743.853
7363.74 594.421 642.624 689.634 739.681
7366.52 658.748 652.017 749.554 735.947
7369.31 702.883 596.543 768.655 763.774
7372.09 427.998 604.388 773.112 775.136
7374.88 682.283 547.147 783.64 790.074
7377.66 531.159 606.029 813.471 787.101
7380.45 604.645 530.725 764.192 765.732
7383.23 456.371 547.575 719.532 735.65
7386.02 581.709 522.624 723.226 726.701
7388.8 529.793 584.515 737.346 735.015
7391.59 642.043 526.196 744.473 732.548
7394.37 406.75 551.287 715.826 723.04
7397.15 605.067 537.312 708.822 729.019
7399.94 600.12 616.894 762.41 747.747
7402.72 645.495 634.073 772.008 768.406
7405.5 656.605 632.535 770.8 747.234
7408.29 595.506 610.661 698.894 712.001
7411.07 579.873 615.421 666.308 698.532
7413.85 670.885 631.148 730.395 713.002
7416.63 642.687 640.541 742.301 728.045
7419.42 608.052 622.258 711.44 725.35
7422.2 616.036 613.122 722.307 746.386
7424.98 615.279 568.863 805.411 754.616
7427.76 475.274 571.342 736.129 759.48
7430.54 623.475 590.519 736.899 741.679
7433.32 672.81 649.53 752.007 740.994
7436.1 652.305 651.302 734.076 722.031
7438.88 628.79 635.952 680.01 733.023
7441.66 626.761 619.822 784.984 721.051
7444.44 603.913 634.833 698.158 752.845
7447.22 673.824 637.662 775.392 727.814
7450 635.249 657.937 709.891 739.116
7452.78 664.737 627.763 732.064 710.402
7455.56 583.301 592.394 689.251 730.572
7458.34 529.142 576.775 770.4 724.105
7461.12 617.881 579.713 712.663 731.423
7463.9 592.116 556.123 711.205 700.569
7466.68 458.372 545.264 677.839 678.16
7469.46 585.303 545.701 645.436 675.244
7472.24 593.426 593.626 702.458 677.399
7475.01 602.149 544.705 684.304 682.355
7477.79 438.541 556.726 660.304 668.924
7480.57 629.487 559.414 662.165 672.484
7483.35 610.212 621.601 694.982 678.754
7486.12 625.103 557.885 679.115 681
7488.9 438.34 554.471 668.902 676.507
7491.68 599.97 549.274 681.503 670.964
7494.45 609.512 615.879 662.488 677.336
7497.23 638.154 571.034 688.018 657.924
7500.01 465.435 552.718 623.264 655.844
7502.78 554.564 556.384 656.249 656.835
7505.56 649.153 596.975 690.992 665.717
7508.34 587.208 608.01 649.909 672.879
7511.11 587.669 557.847 677.735 660.772
7513.89 498.663 542.15 654.672 686.87
7516.66 540.117 530.293 728.204 674.146
7519.44 552.1 573.922 639.562 669.211
7522.21 629.549 576.654 639.868 649.01
7524.98 548.314 588.985 667.6 645.831
7527.76 589.093 584.445 630.024 667.411
7530.53 615.93 628.655 704.609 682.714
7533.31 680.943 587.603 713.508 703.451
7536.08 465.935 577.736 692.237 689.021
7538.85 586.33 507.417 661.319 664.728
7541.63 469.988 549.149 640.628 651.261
7544.4 591.129 555.84 651.838 642.994
7547.17 606.404 591.908 636.517 658.202
7549.95 578.19 582.371 686.251 662.905
7552.72 562.519 569.599 665.946 650.091
7555.49 568.089 561.75 598.076 653.976
7558.26 554.642 577.529 697.906 646.328
7561.03 609.856 569.061 643.003 625.79
7563.81 542.686 598.223 536.46 601.288
7566.58 642.127 599.773 624.4 593.422
7569.35 614.507 624.741 619.407 628.175
7572.12 617.59 612.711 640.72 646.601
7574.89 606.037 601.831 679.675 647.025
7577.66 581.866 580.201 620.678 639.601
7580.43 552.7 571.93 618.448 610.1
7583.2 581.224 530.503 591.173 599.708
7585.97 457.587 497.259 589.503 557.976
7588.74 452.967 401.937 493.251 481.462
7591.51 295.256 332 361.632 387.017
7594.28 247.775 254.523 306.167 308.54
7597.05 220.538 178.666 257.82 237.259
7599.82 67.6859 130.543 147.791 186.268
7602.59 103.405 95.0431 153.195 152.812
7605.36 114.038 138.844 157.45 170.358
7608.12 199.089 201.792 200.43 207.898
7610.89 292.249 294.263 265.813 274.365
7613.66 391.451 347.855 356.851 322.148
7616.43 359.864 349.992 343.779 341.492
7619.19 298.661 306.868 323.845 337.946
7621.96 262.079 238.752 346.215 318.774
7624.73 155.516 239.142 286.262 316.338
7627.5 299.83 248.62 316.535 293.212
7630.26 290.514 300.789 276.837 307.115
7633.03 312.023 304.552 327.972 304.54
7635.8 311.119 316.444 308.81 318.429
7638.56 326.191 330.37 318.505 322.895
7641.33 353.8 364.823 341.37 355.819
7644.09 414.477 393.136 407.582 389.637
7646.86 411.129 429 419.96 411.843
7649.62 461.393 393.594 407.988 410.301
7652.39 308.259 390.74 402.956 409.283
7655.15 402.567 389.382 416.907 418.156
7657.92 457.319 413.737 434.606 413.42
7660.68 381.325 432.915 388.748 422.965
7663.45 460.101 447.25 445.542 430.39
7666.21 500.325 482.861 456.881 466.947
7668.97 488.158 506.969 498.418 487.631
7671.74 532.424 482.563 507.595 496.889
7674.5 427.108 501.702 484.654 505.059
7677.26 545.573 500.831 522.929 511.153
7680.03 529.813 532.988 525.876 522.128
7682.79 523.578 524.718 517.578 515.276
7685.55 520.763 529.345 502.375 534.214
7688.31 543.692 528.172 582.69 535.164
7691.08 520.059 523.174 520.426 542.683
7693.84 505.77 509.181 524.933 503.769
7696.6 501.714 523.137 465.947 496.297
7699.36 561.927 534.972 498.01 476.708
7702.12 541.274 510.825 466.166 498.651
7704.88 429.273 490.829 531.777 481.13
7707.64 501.941 387.978 445.448 470.055
7710.41 232.719 418.814 432.939 443.586
7713.17 521.781 414.313 452.37 479.484
7715.93 488.439 433.307 553.143 506.828
7718.69 289.701 428.236 514.971 519.581
7721.45 506.567 381.338 490.63 515.237
7724.2 347.746 446.48 540.109 512.029
7726.96 485.126 385.75 505.347 529.766
7729.72 324.379 437.696 543.842 526.262
7732.48 503.584 406.464 529.596 512.054
7735.24 391.429 460.737 462.725 493.353
7738 487.197 454.097 487.738 469.092
7740.76 483.665 487.973 456.812 454.633
7743.52 493.057 487.538 419.348 405.042
7746.27 485.893 368.964 338.965 402.477
7749.03 127.944 280.165 449.118 418.959
7751.79 226.659 259.894 468.794 457.495
7754.55 425.079 368.278 454.574 446.802
7757.3 453.095 454.347 417.038 450.711
7760.06 484.867 466.997 480.521 453.096
7762.82 463.031 455.288 461.73 475.873
7765.57 417.965 440.007 485.368 467.955
7768.33 439.026 442.801 456.767 488.455
7771.08 471.413 435.077 523.23 485.42
7773.84 394.792 453.844 476.263 484.655
7776.59 495.327 459.398 454.473 452.017
7779.35 488.075 485.163 425.315 448.998
7782.11 472.085 431.067 467.208 428.261
7784.86 333.04 431.816 392.261 436.046
7787.61 490.323 438.065 448.669 433.793
7790.37 490.832 490.554 460.448 453.315
7793.12 490.509 496.307 450.829 440.852
7795.88 507.581 477.612 411.277 437.042
7798.63 434.745 485.76 449.02 451.601
7801.38 514.953 430.087 494.507 455.162
7804.14 340.563 375.444 421.959 420.336
7806.89 270.816 374.457 344.544 404.549
7809.64 511.992 410.525 447.145 410.024
7812.4 448.767 485.36 438.384 427.837
7815.15 495.321 492.099 397.981 422.46
7817.9 532.21 520.568 431.014 431.758
7820.65 534.174 498.998 466.278 440.379
7823.4 430.612 480.336 423.844 450.928
7826.16 476.222 405.603 462.662 434.133
7828.91 309.976 421.177 415.892 438.342
7831.66 477.332 420.999 436.474 430.358
7834.41 475.688 483.748 438.708 422.627
7837.16 498.224 461.102 392.701 439.373
7839.91 409.394 457.576 486.709 419.576
7842.66 465.111 443.4 379.317 430.316
7845.41 455.695 462.898 424.921 384.008
7848.16 467.889 360.689 347.785 395.754
7850.91 158.483 364.435 414.555 391.824
7853.66 466.931 348.539 413.13 407.522
7856.41 420.202 352.748 394.879 399.548
7859.16 171.112 338.114 390.635 383.23
7861.91 423.027 362.262 364.177 372.198
7864.65 492.648 386.176 361.781 344.322
7867.4 242.852 340.563 307.009 354.14
7870.15 286.189 323.399 393.631 388.255
7872.9 441.157 372.251 464.126 405.095
7875.65 389.408 437.334 357.528 408.293
7878.39 481.438 464.986 403.225 390.449
7881.14 524.111 481.021 410.596 396.601
7883.89 437.515 414.243 375.981 399.791
7886.63 281.102 389.392 412.795 378.695
7889.38 449.559 336.775 347.308 385.337
7892.13 279.664 398.647 395.91 393.605
7894.87 466.718 357.002 437.599 404.313
7897.62 324.622 373.577 379.43 385.821
7900.36 329.389 373.379 340.433 370.612
7903.11 466.126 431.473 391.972 365.485
7905.85 498.902 476.764 364.05 359.696
7908.6 465.265 359.13 323.067 329.89
7911.34 113.224 210.669 302.554 318.085
7914.09 53.5187 183.415 328.635 309.912
7916.83 383.502 286.61 298.547 328.856
7919.58 422.81 407.949 359.387 346.684
7922.32 417.536 357.069 382.119 384.654
7925.06 230.863 347.486 412.457 372.608
7927.81 394.061 291.254 323.249 345.859
7930.55 248.838 365.638 301.871 328.684
7933.29 454.016 386.043 360.931 336.16
7936.04 455.274 439.531 345.679 339.883
7938.78 409.302 419.254 313.041 316.271
7941.52 393.187 408.768 290.093 313.443
7944.26 423.815 417.372 337.195 317.399
7947.01 435.112 390.061 324.908 326.127
7949.75 311.254 391.613 316.278 342.394
7952.49 428.472 381.712 385.996 342.588
7955.23 405.409 363.417 325.489 339.942
7957.97 256.371 372.513 308.341 337.517
7960.71 455.76 288.471 378.721 343.259
7963.45 153.282 336.754 342.716 343.194
7966.19 401.221 325.56 308.144 335.254
7968.93 422.177 408.845 354.902 315.433
7971.67 403.136 437.825 283.252 326.906
7974.41 488.161 438.967 342.564 323.555
7977.15 425.604 457.158 344.848 337.26
7979.89 457.71 434.547 324.369 334.264
7982.63 420.328 425.672 333.574 333.317
7985.37 398.977 425.042 342.007 355.432
7988.1 455.82 433.084 390.715 397.037
7990.84 444.454 461.901 458.39 413.079
7993.58 485.428 348.565 390.132 379.691
7996.32 115.814 273.86 290.551 350.373
7999.06 220.339 271.865 370.437 350.577
8001.79 479.443 368.75 390.743 354.082
8004.53 406.468 407.559 301.067 338.993
8007.27 336.767 380.657 325.17 327.833
8010 398.737 380.751 357.264 330.446
8012.74 406.749 356.68 308.906 325.786
8015.48 264.554 359.684 311.188 322.851
8018.21 407.747 365.142 348.458 306.205
8020.95 423.124 430.753 258.969 316.336
8023.68 461.388 428.086 341.581 307.043
8026.42 399.747 401.706 320.579 326.116
8029.15 343.984 398.786 316.187 332.154
8031.89 452.625 416.014 359.696 336.655
8034.62 451.434 431.279 334.08 334.941
8037.36 389.779 408.476 311.046 323.743
8040.09 384.215 396.535 326.103 310.605
8042.82 415.61 414.673 294.666 318.113
8045.56 444.196 435.242 333.57 323.266
8048.29 445.922 413.149 341.562 313.412
8051.02 349.33 374.656 265.102 299.514
8053.76 328.716 327.507 291.876 298.626
8056.49 304.475 348.091 338.9 327.77
8059.22 411.082 375.288 352.534 317.782
8061.95 410.306 428.522 261.912 309.063
8064.69 464.179 386.308 312.742 286.405
8067.42 284.439 351.247 284.561 297.712
8070.15 305.123 313.061 295.832 282.293
8072.88 349.621 372.856 266.487 293.349
8075.61 463.825 404.298 317.727 284.055
8078.34 399.448 413.656 267.952 293.358
8081.07 377.695 360.058 294.396 285.866
8083.8 303.03 369.333 295.251 295.905
8086.53 427.274 329.18 298.069 273.115
8089.26 257.235 368.088 226.027 277.53
8091.99 419.754 333.933 308.495 256.178
8094.72 324.81 385.472 234.012 283.223
8097.45 411.852 358.392 307.161 293.33
8100.18 338.516 391.437 338.817 297.994
8102.91 423.943 378.289 248.003 281.043
8105.64 372.409 395.431 256.308 263.49
8108.37 389.942 369.132 286.159 272.021
8111.09 345.046 359.553 273.596 295.998
8113.82 343.67 347.424 328.239 298.042
8116.55 353.556 357.021 292.292 302.272
8119.28 373.838 376.558 286.284 292.905
8122 402.279 380.697 300.139 274.407
8124.73 365.975 396.921 236.799 289.952
8127.46 422.508 377.845 332.918 284.45
8130.18 345.052 355.616 283.632 303.497
8132.91 299.289 346.675 293.942 284.532
8135.63 395.683 321.22 276.023 280.269
8138.36 268.687 338.435 270.841 269.474
8141.09 350.934 313.228 261.558 281.791
8143.81 320.063 300.843 312.973 274.95
8146.54 231.532 283.195 250.318 255.806
8149.26 297.989 296.374 204.127 221.798
8151.98 359.601 320.778 210.948 223.127
8154.71 304.744 338.058 254.305 245.921
8157.43 349.829 340.816 272.511 272.941
8160.16 367.876 351.699 292.007 262.956
8162.88 337.393 333.861 224.35 257.278
8165.6 296.314 309.587 255.477 235.239
8168.33 295.053 327.013 225.889 244.929
8171.05 389.672 341.908 253.419 226.995
8173.77 340.999 363.334 201.677 236.73
8176.49 359.33 341.977 255.093 232.034
8179.22 325.603 342.668 239.331 249.978
8181.94 343.071 323.572 255.511 258.039
8184.66 302.04 325.683 279.275 262.659
8187.38 331.939 323.647 253.19 257.87
8190.1 336.96 305.446 241.144 234.336
8192.82 247.438 308.328 208.673 227.021
8195.54 340.586 308.113 231.247 225.401
8198.26 336.315 348.923 236.282 229.216
8200.98 369.868 339.23 220.119 216.987
8203.7 311.508 327.442 194.561 222.618
8206.42 300.951 330.566 253.174 233.63
8209.14 379.238 339.049 253.153 240.166
8211.86 336.958 348.954 214.171 224.435
8214.58 330.667 335.602 205.982 217.214
8217.3 339.182 314.529 231.49 209.471
8220.02 273.738 300.352 190.941 215.994
8222.74 288.135 291.891 225.551 208.11
8225.45 313.8 317.515 207.836 218.679
8228.17 350.61 329.909 222.65 221.382
8230.89 325.317 326.546 233.661 221.771
8233.61 303.709 323.868 209.003 225.832
8236.32 342.576 312.174 234.832 215.346
8239.04 290.236 315.178 202.203 227.402
8241.76 312.72 306.364 245.171 225.54
8244.47 316.136 315.578 229.245 229.164
8247.19 317.879 320.826 213.076 230.481
8249.9 328.462 326.539 249.123 227.84
8252.62 333.276 333.576 221.323 249.881
8255.34 338.99 328.26 279.197 247.66
8258.05 312.515 313.959 242.459 236.814
8260.77 290.372 305.519 188.785 211.287
8263.48 313.671 316.091 202.616 204.578
8266.19 344.23 327.431 222.332 215.516
8268.91 324.392 334.226 221.601 219.743
8271.62 334.057 317.548 215.297 212.883
8274.34 294.194 315.329 201.75 202.331
8277.05 317.736 314.78 189.946 191.431
8279.76 332.41 319.956 182.596 182.494
8282.48 309.722 326.63 174.94 190.296
8285.19 337.756 314.863 213.351 197.586
8287.9 297.11 319.737 204.468 211.558
8290.61 324.345 311.584 216.856 189.99
8293.32 313.298 317.036 148.646 181.09
8296.04 313.465 304.139 177.768 180.172
8298.75 285.652 300.597 214.101 197.261
8301.46 302.674 304.1 199.914 213.438
8304.17 323.974 307.008 226.3 205.023
8306.88 294.375 286.646 188.855 195.361
8309.59 241.589 283.324 170.928 174.959
8312.3 314.007 287.087 165.094 187.511
8315.01 305.665 323.654 226.512 196.763
8317.72 351.289 317.424 198.684 209.013
8320.43 295.318 322.271 201.843 190.896
8323.14 320.207 311.482 172.16 189.203
8325.85 318.921 319.831 193.605 198.056
8328.56 320.366 324.573 228.402 204.091
8331.26 334.432 312.594 190.267 207.926
8333.97 282.984 285.083 205.109 189.589
8336.68 237.833 284.527 173.391 171.132
8339.39 332.764 298.882 134.894 172.808
8342.1 326.048 310.979 210.138 169.02
8344.8 274.126 260.659 162.027 150.535
8347.51 181.803 233.106 79.4383 128.792
8350.22 243.39 234.103 144.912 141.876
8352.92 277.115 276.829 201.279 196.817
8355.63 309.982 298.04 244.261 210.202
8358.34 307.024 294.185 185.066 209.364
8361.04 265.548 296.509 198.764 181.416
8363.75 316.954 288.242 160.418 164.68
8366.45 282.223 298.02 134.857 158.255
8369.16 294.884 295.009 179.488 166.961
8371.86 307.921 288.032 186.538 171.074
8374.57 261.292 314.772 147.197 181.929
8377.27 375.104 315.577 212.053 184.7
8379.97 310.336 323.703 194.849 199.221
8382.68 285.669 291.467 190.762 174.098
8385.38 278.397 294.406 136.683 170.098
8388.08 319.15 282.152 182.848 152.238
8390.79 248.907 299.004 137.184 162.888
8393.49 328.953 315.938 168.634 148.849
8396.19 369.955 358.689 140.729 159.397
8398.89 377.159 350.495 168.829 175.191
8401.6 304.371 325.366 216.016 178.314
8404.3 294.569 299.91 150.098 185.63
8407 300.79 313.098 190.777 176.768
8409.7 343.935 318.612 189.43 191.393
8412.4 311.111 323.39 193.973 178.29
8415.1 315.124 306.293 151.468 183.558
8417.8 292.643 300.663 205.232 176.145
8420.5 294.223 282.967 171.736 170.694
8423.2 262.036 287.868 135.113 143.61
8425.9 307.344 281.443 123.982 118.662
8428.6 274.948 291.18 96.8909 95.1205
8431.3 291.249 273.158 64.4887 97.0816
8434 253.277 279.885 129.865 122.455
8436.7 295.13 254.706 173.01 155.063
8439.4 215.711 268.3 162.315 168.708
8442.1 294.059 270.922 170.799 176.664
8444.79 302.995 293.808 196.88 155.303
8447.49 284.371 289.537 98.2322 165.646
8450.19 281.246 297.068 201.825 153.384
8452.89 325.587 287.744 160.094 167.842
8455.58 256.4 294.702 141.606 154.039
8458.28 302.121 282.682 160.417 149.956
8460.97 289.525 314.563 147.845 142.126
8463.67 352.043 316.127 118.117 127.634
8466.37 306.814 287.794 116.941 134.174
8469.06 204.525 285.394 167.463 152.455
8471.76 344.842 290.146 172.959 162.299
8474.45 321.07 310.5 146.474 149.47
8477.15 265.588 296.343 128.977 148.37
8479.84 302.37 305.947 169.659 160.446
8482.54 349.884 328.864 182.703 170.825
8485.23 334.338 345.01 160.113 163.863
8487.92 350.81 331.452 148.774 166.437
8490.62 309.207 312.219 190.425 149.626
8493.31 276.639 298.898 109.679 146.993
8496 310.847 271.532 140.875 122.701
8498.7 227.11 270.768 117.547 108.147
8501.39 274.347 270.422 66.0195 111.419
8504.08 309.809 296.14 150.691 123.076
8506.77 304.264 295.18 152.517 160.085
8509.47 271.467 297.287 177.049 155.38
8512.16 316.132 284.626 136.575 145.389
8514.85 266.28 290.827 122.542 137.681
8517.54 290.069 294.01 153.927 138.572
8520.23 325.68 306.006 139.246 148.865
8522.92 302.268 309.503 153.422 144.536
8525.61 300.56 304.458 140.939 142.035
8528.3 310.547 296.947 131.743 138.235
8530.99 279.733 289.824 142.025 144.372
8533.68 279.193 286.504 159.347 152.866
8536.37 300.586 276.111 157.225 152.525
8539.06 248.553 245.205 141.003 139.479
8541.75 186.475 220.224 120.208 122.906
8544.43 225.643 225.23 107.507 115.74
8547.12 263.572 251.029 119.504 109.193
8549.81 263.871 269.571 100.568 111.542
8552.5 281.27 285.721 114.555 118.758
8555.19 312.023 288.087 141.15 122.954
8557.87 270.969 301.401 113.157 127.665
8560.56 321.211 296.486 128.688 132.438
8563.25 297.278 308.332 155.468 150.672
8565.93 306.507 303.991 167.859 153.206
8568.62 308.187 300.383 136.29 145.568
8571.3 286.455 295.271 132.555 139.243
8573.99 291.17 311.191 148.885 167.794
8576.67 355.948 307.137 221.943 183.65
8579.36 274.292 313.248 180.121 185.492
8582.04 309.504 292.295 154.412 154.801
8584.73 293.091 318.24 129.869 134.316
8587.41 352.126 298.525 118.668 127.267
8590.1 250.358 288.805 133.263 129.052
8592.78 263.931 254.246 135.224 128.858
8595.46 248.449 274 118.087 144.92
8598.15 309.62 291.278 181.448 162.481
8600.83 315.764 298.985 187.907 174.677
8603.51 271.572 311.088 154.675 154.96
8606.19 345.93 302.123 122.297 131.151
8608.88 288.867 309.43 116.48 110.901
8611.56 293.494 278.423 93.9243 105.035
8614.24 252.907 284.702 104.699 119.374
8616.92 307.704 299.146 159.497 175.109
8619.6 336.827 320.45 261.132 179.291
8622.28 316.819 323.625 117.242 170.849
8624.96 317.23 319.758 134.171 129.254
8627.64 325.224 316.024 136.347 105.618
8630.32 305.618 298.828 46.3367 83.0981
8633 265.643 301.674 66.6107 71.3318
8635.68 333.761 292.493 101.048 84.87
8638.36 278.076 310.753 86.9515 101.418
8641.04 320.423 305.503 116.253 108.656
8643.72 318.011 303.007 122.764 133.53
8646.4 270.585 308.827 161.573 134.091
8649.08 337.883 307.421 117.935 127.377
8651.75 313.794 312.628 102.622 110.598
8654.43 286.208 297.544 111.237 102.991
8657.11 292.628 260.25 95.1138 88.4339
8659.79 201.914 230.529 58.9508 82.7473
8662.46 197.044 233.017 94.1771 73.0496
8665.14 300.094 257.128 66.0209 101.597
8667.81 274.246 273.075 144.592 86.7449
8670.49 244.885 272.651 49.6215 99.293
8673.17 298.821 274.896 103.665 94.542
8675.84 280.983 284.993 130.339 110.499
8678.52 275.174 294.463 97.491 114.444
8681.19 327.233 307.422 115.501 95.8172
8683.87 319.859 319.204 74.4593 100.211
8686.54 310.52 310.331 110.673 91.9719
8689.21 300.614 308.242 90.7835 119.657
8691.89 313.591 311.399 157.515 115.27
8694.56 319.991 314.223 97.5117 121.053
8697.24 309.088 322.348 108.132 92.3227
8699.91 337.965 303.182 71.3239 85.7364
8702.58 262.493 317.682 77.753 83.2815
8705.25 352.59 303.456 100.768 102.496
8707.93 295.285 319.329 128.967 126.47
8710.6 310.113 287.451 149.675 132.382
8713.27 256.955 290.644 118.504 114.607
8715.94 304.863 278.618 75.6412 106.539
8718.61 274.037 305.349 125.473 114.309
8721.28 337.146 302.153 141.811 116.265
8723.95 295.276 303.156 81.5107 108.17
8726.62 277.047 296.815 101.187 99.1043
8729.29 318.123 305.05 114.615 106.981
8731.96 319.98 309.542 105.142 116.019
8734.63 290.523 301.714 128.299 115.491
8737.3 294.638 300.182 113.031 121.92
8739.97 315.386 307.834 124.431 107.397
8742.64 313.477 300.044 84.7278 103.18
8745.31 271.27 303.261 100.382 98.0044
8747.98 325.035 297.89 108.904 106.243
8750.64 297.365 295.368 109.444 88.2339
8753.31 263.704 282.544 46.3544 82.5481
8755.98 286.564 273.537 91.8464 38.929
8758.64 270.343 287.537 -21.4136 33.7488
8761.31 305.705 309.196 30.8136 33.8448
8763.98 351.541 321.741 92.1345 73.8508
8766.64 307.978 324.749 98.6043 90.7355
8769.31 314.729 302.807 81.4677 84.4957
8771.98 285.714 286.982 73.4153 61.8365
8774.64 260.502 267.887 30.6264 49.8492
8777.31 257.445 251.149 45.5059 -7.15654
8779.97 235.502 260.416 -97.602 -51.9432
8782.64 288.302 254.186 -103.734 -60.4098
8785.3 238.756 268.807 20.1062 -0.886206
8787.96 279.363 265.63 80.9689 50.1986
8790.63 278.772 278.564 49.5207 57.3134
8793.29 277.558 278.614 41.4506 56.7522
8795.95 279.51 281.973 79.2855 67.4384
8798.62 288.849 291.99 81.5792 80.1911
8801.28 307.609 283.486 79.7087 66.6834
8803.94 253.998 282.817 38.7625 55.5807
8806.6 286.842 267.984 48.2708 57.5533
8809.27 263.113 269.712 85.6267 64.8488
8811.93 259.18 268.807 60.6489 58.1528
8814.59 284.129 289.214 28.183 49.0466
8817.25 324.334 305.001 58.3079 43.1465
8819.91 306.54 332.533 42.9488 52.022
8822.57 366.726 337.021 54.8092 -15.5683
8825.23 337.797 341.125 -144.463 -75.8954
8827.89 318.851 273.214 -138.033 -193.611
8830.55 162.994 257.892 -298.336 -185.441
8833.21 291.83 257.465 -119.955 -165.727
8835.87 317.571 277.807 -78.891 -60.0593
8838.53 224.02 263.483 18.6683 -11.7996
8841.19 248.859 246.859 24.8239 29.8963
8843.84 267.698 280.521 46.1968 34.2448
8846.5 325.006 313.618 31.7137 21.5991
8849.16 348.15 338.089 -13.113 3.94211
8851.82 341.111 319.034 -6.77433 -10.1179
8854.47 267.84 296.422 -10.4665 17.5732
8857.13 280.316 275.699 69.9604 34.9926
8859.79 278.942 280.333 45.484 36.5907
8862.44 281.741 283.698 -5.67231 17.8584
8865.1 290.411 291.398 13.7636 -18.5583
8867.75 302.041 287.376 -63.7662 -39.1375
8870.41 269.678 292.465 -67.4099 -59.1721
8873.07 305.676 265.201 -46.3403 -47.4823
8875.72 220.248 270.124 -28.6967 -16.5954
8878.37 284.447 253.479 25.2509 -19.6972
8881.03 255.743 311.391 -55.6458 -12.5569
8883.68 393.985 323.034 -7.27584 -53.2369
8886.34 319.376 336.759 -96.789 -100.008
8888.99 296.916 284.082 -195.958 -101.736
8891.64 235.954 282.927 -12.4621 -24.9862
8894.3 315.913 281.205 133.461 44.8172
8896.95 291.749 312.405 13.4526 64.3705
8899.6 329.553 313.741 46.1978 28.0898
8902.25 319.921 334.728 24.6192 0.434494
8904.9 354.708 321.396 -69.5135 -35.8621
8907.56 289.559 290.076 -62.6919 -19.9181
8910.21 225.961 257.8 72.451 7.36994
8912.86 257.881 234.996 12.3507 26.3639
8915.51 221.147 252.621 -5.71011 -19.9186
8918.16 278.835 265.114 -66.3963 -52.0813
8920.81 295.361 319.527 -84.1376 -105.006
8923.46 384.383 311.956 -164.484 -71.9177
8926.11 256.123 277.843 32.868 -8.02541
8928.76 193.022 249.254 107.539 71.2203
8931.41 298.617 258.833 73.2533 68.5947
8934.05 284.859 287.275 24.9913 37.9429
8936.7 278.35 290.21 15.5842 11.2267
8939.35 307.422 297.342 -6.89549 -12.1783
8942 306.254 288.772 -45.2236 -19.5094
8944.65 252.639 274.143 -6.40898 -21.6551
8947.29 263.537 260.226 -13.3328 -19.5807
8949.94 264.501 264.926 -39.0002 -31.8271
8952.59 266.74 261.139 -43.1484 -30.2754
8955.23 252.176 268.732 -8.67761 -26.7608
8957.88 287.28 288.438 -28.4564 -23.7274
8960.52 325.859 267.611 -34.0482 -15.1444
8963.17 189.695 245.064 17.0713 0.0777714
8965.82 219.639 194.825 17.2102 11.9721
8968.46 175.14 224.883 1.63496 19.6631
8971.1 279.869 230.808 40.1442 6.94579
8973.75 237.416 254.175 -20.9418 4.34392
8976.39 245.242 250.149 -6.17067 -11.1403
8979.04 267.791 272.786 -6.3083 -16.336
8981.68 305.326 282.698 -36.529 -27.7932
8984.32 274.977 276.296 -40.5424 -30.784
8986.97 248.584 256.452 -15.2806 -25.2282
8989.61 245.794 254.866 -19.8615 -12.6455
8992.25 270.219 250.98 -2.79435 -42.3233
8994.89 236.926 254.973 -104.314 -46.7811
8997.53 257.773 233.41 -33.2351 -52.4624
9000.18 205.531 239.096 -19.8381 -32.4102
9002.82 253.984 242.937 -44.1575 -42.56
9005.46 269.297 260.82 -63.6843 -42.4404
9008.1 259.179 248.199 -19.4793 -45.5305
9010.74 216.119 236.961 -53.4279 -42.9747
9013.38 235.583 228.05 -56.0167 -53.5404
9016.02 232.446 239.983 -51.1764 -42.1559
9018.66 251.919 245.827 -19.2745 -45.8611
9021.3 253.116 241.857 -67.1325 -57.2125
9023.94 220.536 249.688 -85.2306 -75.6959
9026.57 275.41 261.026 -74.7248 -81.8339
9029.21 287.132 276.544 -85.5462 -65.15
9031.85 267.088 268.526 -35.1791 -52.6865
9034.49 251.357 270.805 -37.334 -38.0672
9037.13 293.97 266.131 -41.6886 -47.7708
9039.76 253.068 264.85 -64.2899 -47.456
9042.4 247.513 261.995 -36.3895 -62.9358
9045.04 285.405 271.772 -88.128 -78.3778
9047.67 282.398 271.632 -110.616 -93.3143
9050.31 247.094 254.315 -81.1989 -100.709
9052.94 233.453 231.424 -110.311 -102.839
9055.58 213.726 222.567 -117.007 -116.92
9058.21 220.522 209.855 -123.442 -103.311
9060.85 195.318 223.438 -69.4829 -99.0769
9063.48 254.475 234.024 -104.306 -83.4068
9066.12 252.278 236.465 -76.4319 -73.8681
9068.75 202.641 226.743 -40.8667 -55.1987
9071.38 225.311 208.191 -48.2973 -46.5072
9074.02 196.622 175.17 -50.3575 -19.6225
9076.65 103.577 100.066 39.7874 -3.52336
