wavelength spec_sum spec_optimal
3531.74 23.889 15.8797
3534.66 15.4521 12.1494
3537.58 18.5876 13.349
3540.5 12.0705 16.079
3543.42 24.3732 24.2839
3546.34 20.2237 18.4176
3549.26 19.6028 17.7408
3552.18 17.7698 16.1061
3555.1 19.658 22.7737
3558.02 13.1139 16.5081
3560.94 7.31629 13.6622
3563.86 16.8253 16.1949
3566.78 19.0083 22.7515
3569.7 15.046 17.498
3572.62 4.51599 8.43708
3575.54 7.30674 16.1172
3578.46 13.1193 10.5626
3581.38 15.6798 6.93646
3584.3 8.69337 10.2337
3587.22 6.84379 10.6617
3590.14 16.2248 15.1742
3593.06 22.6682 25.5
3595.98 9.46846 13.679
3598.89 16.2242 17.088
3601.81 20.3178 18.6864
3604.73 15.3825 14.2439
3607.65 23.0391 22.9089
3610.57 16.9992 14.0996
3613.49 19.7409 19.57
3616.41 14.5039 11.509
3619.33 26.6316 28.0497
3622.25 24.3288 27.3978
3625.17 21.9694 18.0906
3628.09 18.9714 24.0104
3631.01 25.2387 21.1624
3633.93 18.4122 20.0316
3636.85 25.5242 23.8904
3639.77 31.0481 27.2651
3642.69 26.9672 22.9796
3645.61 19.3671 20.5479
3648.53 32.3147 25.8168
3651.44 26.2367 25.8958
3654.36 33.6718 30.9491
3657.28 31.0409 29.2212
3660.2 23.1033 25.0297
3663.12 16.9994 18.8583
3666.04 30.0516 27.9532
3668.96 27.263 28.9813
3671.88 32.5009 31.7396
3674.8 19.2935 18.9279
3677.72 22.9275 21.7364
3680.64 19.7614 19.4066
3683.55 23.678 23.9788
3686.47 19.1613 19.3789
3689.39 30.009 24.0844
3692.31 23.1582 20.7907
3695.23 27.1384 27.5734
3698.15 30.4838 28.6468
3701.07 23.2679 25.4559
3703.99 22.346 22.1083
3706.91 22.163 17.9959
3709.82 24.6345 21.7968
3712.74 27.4816 27.6674
3715.66 24.9407 20.3142
3718.58 26.789 22.1506
3721.5 26.2679 26.1375
3724.42 18.8016 24.3261
3727.34 14.6857 18.1364
3730.26 15.898 20.3926
3733.17 16.2113 16.9037
3736.09 20.3682 21.917
3739.01 24.2733 29.9368
3741.93 19.3809 22.0011
3744.85 18.6567 17.7286
3747.77 17.4161 19.5096
3750.69 21.9179 19.0271
3753.6 16.3189 15.8958
3756.52 16.7397 17.2331
3759.44 21.6696 23.4199
3762.36 17.7441 19.0267
3765.28 22.0999 22.836
3768.2 29.0222 29.0036
3771.11 25.9738 28.0631
3774.03 28.7281 28.8831
3776.95 26.846 32.0176
3779.87 28.4624 29.2745
3782.79 27.7895 31.2848
3785.71 16.7496 25.5778
3788.62 24.0644 29.2904
3791.54 26.3201 27.2456
3794.46 23.3412 26.3283
3797.38 27.8254 25.7087
3800.3 23.4327 24.8915
3803.21 25.1903 27.5454
3806.13 16.0666 18.4479
3809.05 20.3803 26.8896
3811.97 14.2007 15.4356
3814.89 27.6553 32.4971
3817.8 14.3442 19.0358
3820.72 19.3094 24.6515
3823.64 15.3959 18.1757
3826.56 20.751 22.1385
3829.47 12.8315 13.5361
3832.39 18.2669 18.3027
3835.31 14.8347 13.9291
3838.23 17.6901 16.5395
3841.14 16.4278 13.9415
3844.06 14.0301 13.2634
3846.98 17.9545 18.693
3849.9 23.5818 21.3209
3852.82 15.1532 15.0515
3855.73 14.6573 14.7071
3858.65 12.3601 14.4086
3861.57 16.461 21.205
3864.49 16.4772 13.8899
3867.4 15.7377 17.0258
3870.32 9.36088 12.25
3873.24 15.1133 21.3114
3876.15 17.4297 23.2467
3879.07 13.7805 16.4975
3881.99 18.3202 19.0894
3884.91 15.7954 19.6599
3887.82 18.9468 19.3453
3890.74 24.507 23.9637
3893.66 26.5474 25.4853
3896.57 26.2134 25.8826
3899.49 27.2648 27.6195
3902.41 25.4751 25.0772
3905.33 33.5549 33.1655
3908.24 27.8722 32.764
3911.16 31.2947 30.3344
3914.08 27.1086 31.9783
3916.99 22.1712 28.148
3919.91 20.7666 32.9477
3922.83 19.7289 27.5523
3925.74 16.2526 22.5102
3928.66 20.8856 21.0249
3931.58 15.1167 19.012
3934.49 11.0958 11.9834
3937.41 14.4828 12.6702
3940.33 22.8996 24.7682
3943.24 23.3288 25.8112
3946.16 24.7246 29.198
3949.08 23.9165 30.3564
3951.99 28.1937 35.2317
3954.91 23.63 31.5445
3957.83 24.5056 29.3818
3960.74 23.6751 30.8703
3963.66 15.4885 18.4846
3966.58 13.6714 14.3127
3969.49 21.096 20.4835
3972.41 23.6846 24.9505
3975.32 31.2966 31.7634
3978.24 28.0346 28.018
3981.16 32.0055 32.3719
3984.07 32.083 33.8092
3986.99 36.077 39.5703
3989.9 36.0431 41.6578
3992.82 41.451 48.2018
3995.74 36.232 40.8598
3998.65 40.685 41.016
4001.57 45.6965 43.771
4004.48 41.5162 43.5282
4007.4 43.1546 48.1171
4010.32 43.2956 47.0968
4013.23 38.9784 43.2633
4016.15 39.6622 43.7533
4019.06 42.2104 47.0997
4021.98 43.6247 49.5461
4024.89 44.6475 46.3544
4027.81 42.8731 47.7445
4030.73 42.8902 46.0188
4033.64 39.6222 48.5412
4036.56 40.8842 50.3256
4039.47 40.9278 47.1249
4042.39 43.9956 54.6032
4045.3 40.1014 48.4573
4048.22 41.4543 51.4193
4051.13 36.266 42.8821
4054.05 38.3219 48.4787
4056.96 32.9589 39.3212
4059.88 33.0206 37.6428
4062.79 42.6686 46.8989
4065.71 34.4674 40.1833
4068.62 29.9872 35.6019
4071.54 42.5632 46.8974
4074.45 47.4787 52.2363
4077.37 43.904 50.2628
4080.28 39.7399 46.5569
4083.2 48.195 53.1314
4086.11 42.0405 51.5226
4089.03 40.7595 49.1763
4091.94 44.7922 52.8528
4094.86 37.7478 44.0464
4097.77 42.6343 49.9478
4100.69 41.3542 50.5434
4103.6 35.3571 40.4626
4106.52 42.5702 49.8186
4109.43 41.5693 47.3582
4112.35 48.762 53.6582
4115.26 40.379 48.4364
4118.17 42.2435 48.7697
4121.09 41.7953 45.2992
4124 43.784 51.0473
4126.92 49.0105 54.6412
4129.83 40.3247 50.8002
4132.75 46.3591 52.4311
4135.66 44.5267 52.6437
4138.57 41.9178 49.6612
4141.49 40.3851 47.6293
4144.4 44.3686 52.1967
4147.32 41.6447 49.5771
4150.23 35.9915 44.483
4153.14 38.4585 49.0012
4156.06 37.2105 44.838
4158.97 45.7794 55.2478
4161.89 43.0727 53.7643
4164.8 39.5988 46.2408
4167.71 41.2191 51.0364
4170.63 43.1919 50.0763
4173.54 37.4984 43.8829
4176.45 41.0289 48.8227
4179.37 43.8393 52.327
4182.28 39.2245 47.8533
4185.2 41.4877 49.9957
4188.11 45.5391 51.4558
4191.02 36.6886 47.2789
4193.94 38.4669 47.0469
4196.85 35.3446 44.4086
4199.76 36.5079 43.7739
4202.67 46.6075 53.0972
4205.59 39.133 46.7375
4208.5 40.4035 49.45
4211.41 42.7322 53.6344
4214.33 38.2706 49.2147
4217.24 45.3147 56.7059
4220.15 43.5863 53.4423
4223.07 38.7582 48.395
4225.98 40.5677 47.3664
4228.89 39.6795 50.2431
4231.8 40.6171 48.9077
4234.72 43.7492 51.1025
4237.63 45.3111 51.5164
4240.54 43.7557 49.4413
4243.46 45.9971 52.3019
4246.37 37.2756 45.0097
4249.28 43.4683 52.5277
4252.19 37.4681 48.4974
4255.11 35.8895 45.3446
4258.02 43.8322 52.5387
4260.93 41.8967 52.0559
4263.84 45.6428 53.5394
4266.75 39.9488 48.8765
4269.67 40.3076 52.0028
4272.58 41.1758 51.3708
4275.49 43.3369 55.7093
4278.4 38.9199 48.3297
4281.32 39.1837 50.169
4284.23 35.7178 46.8943
4287.14 38.2237 45.9239
4290.05 42.6828 48.647
4292.96 38.3555 45.1815
4295.87 34.9418 43.236
4298.79 34.5755 43.3679
4301.7 32.6574 40.2973
4304.61 31.0656 38.0403
4307.52 28.8026 35.7689
4310.43 37.392 41.671
4313.34 41.5251 50.7243
4316.26 39.6837 51.9618
4319.17 39.9724 48.3213
4322.08 39.945 46.0225
4324.99 46.0017 53.454
4327.9 46.9793 56.7807
4330.81 53.6102 66.0783
4333.72 45.1032 59.0446
4336.63 39.7194 50.9272
4339.55 39.3326 50.1273
4342.46 45.1637 55.0897
4345.37 51.1611 56.5355
4348.28 48.3628 57.6962
4351.19 46.9078 56.0719
4354.1 45.0183 54.3361
4357.01 45.1957 56.9778
4359.92 43.7372 54.6164
4362.83 48.1248 59.1138
4365.74 42.4012 53.4972
4368.65 47.6544 58.7986
4371.56 42.5019 54.5625
4374.47 47.9966 57.7148
4377.38 48.334 60.0352
4380.29 37.9917 48.8486
4383.21 42.6967 52.8306
4386.12 41.1713 52.9511
4389.03 45.934 56.7591
4391.94 44.7889 54.5112
4394.85 40.3216 50.5749
4397.76 42.5875 52.1989
4400.67 44.8411 53.057
4403.58 44.1601 53.8959
4406.49 43.9615 54.0737
4409.4 49.0772 57.9706
4412.31 46.619 55.7703
4415.22 50.4651 61.993
4418.12 51.2491 63.1123
4421.03 47.7795 60.1825
4423.94 42.9929 54.3158
4426.85 50.7215 62.6533
4429.76 46.6582 59.2789
4432.67 48.2287 60.3091
4435.58 51.2857 65.4774
4438.49 46.6289 59.9037
4441.4 51.3389 62.6717
4444.31 51.1302 65.6176
4447.22 53.3567 67.2882
4450.13 48.1221 61.8876
4453.04 49.2712 63.2073
4455.95 47.2233 63.3448
4458.85 44.522 58.7444
4461.76 49.886 62.0144
4464.67 52.3679 65.6888
4467.58 51.5144 65.4057
4470.49 49.1093 61.691
4473.4 51.3824 67.3629
4476.31 49.8021 64.7227
4479.22 49.8966 65.3791
4482.12 56.6715 70.8393
4485.03 50.6939 67.9408
4487.94 56.3119 69.4116
4490.85 50.2645 64.7318
4493.76 52.6128 66.0598
4496.67 58.0347 73.9957
4499.57 56.1331 69.0301
4502.48 57.0066 70.4265
4505.39 56.9625 72.4853
4508.3 54.1995 69.7267
4511.21 56.6742 72.5882
4514.11 57.6234 72.8757
4517.02 58.9454 74.4644
4519.93 54.4074 71.9256
4522.84 53.7042 68.7061
4525.75 51.6464 65.4065
4528.65 54.0867 68.4126
4531.56 52.592 66.0907
4534.47 54.8676 68.7027
4537.38 53.8213 68.9618
4540.28 48.4622 63.9023
4543.19 54.8129 70.0531
4546.1 50.2305 66.6058
4549 58.278 72.1329
4551.91 57.3565 72.0215
4554.82 56.8549 73.3678
4557.73 51.8545 69.3497
4560.63 58.8359 74.2381
4563.54 53.545 70.8856
4566.45 57.8748 76.1703
4569.35 55.6938 73.3144
4572.26 55.2386 73.0677
4575.17 54.2199 71.6998
4578.07 50.9708 66.2467
4580.98 52.467 71.327
4583.89 50.2166 68.8697
4586.79 51.5644 69.7089
4589.7 58.2385 74.7155
4592.61 50.9943 68.2816
4595.51 50.7229 68.3895
4598.42 53.7001 72.9066
4601.32 50.5957 68.0479
4604.23 54.3791 72.5334
4607.14 52.5628 70.9246
4610.04 55.1218 72.7413
4612.95 53.652 72.053
4615.85 54.9598 71.409
4618.76 55.053 71.393
4621.67 55.5172 72.7255
4624.57 54.6543 76.22
4627.48 57.067 76.8455
4630.38 50.4636 68.3706
4633.29 57.9863 75.1183
4636.19 50.1653 69.1165
4639.1 53.7321 72.1037
4642 56.4644 74.4371
4644.91 51.8369 71.1833
4647.81 50.6901 70.0147
4650.72 51.0419 69.6695
4653.63 53.8087 72.5925
4656.53 51.9926 71.7961
4659.44 51.1819 69.1051
4662.34 46.562 63.9499
4665.24 48.5667 68.1773
4668.15 46.9835 63.7815
4671.05 47.6603 66.7265
4673.96 50.7773 68.9318
4676.86 49.6735 67.5672
4679.77 52.9934 71.9718
4682.67 49.8837 66.3541
4685.58 52.0381 69.8415
4688.48 50.2392 68.2946
4691.39 49.3019 67.0102
4694.29 51.353 70.6213
4697.19 43.7914 61.1365
4700.1 54.2956 73.5361
4703 46.9351 66.1742
4705.91 52.3768 71.264
4708.81 47.2172 65.9172
4711.71 49.3813 67.4419
4714.62 45.5292 64.2728
4717.52 55.6857 77.4665
4720.42 56.2111 76.4633
4723.33 55.1251 74.6157
4726.23 52.0801 71.5443
4729.13 49.8041 68.4665
4732.04 56.4721 74.4695
4734.94 55.5838 75.6602
4737.84 53.1064 72.3058
4740.75 55.2321 73.4143
4743.65 58.0393 76.4602
4746.55 56.5821 75.4236
4749.46 51.2117 73.5427
4752.36 50.0545 69.9886
4755.26 50.9715 69.8758
4758.16 53.2565 73.5259
4761.07 54.8862 73.986
4763.97 51.0629 71.0403
4766.87 53.447 70.7382
4769.78 47.6945 66.3969
4772.68 56.5102 75.4127
4775.58 54.4468 76.1092
4778.48 58.1054 77.6105
4781.38 52.0022 73.0425
4784.29 50.8273 71.639
4787.19 52.9415 74.6251
4790.09 54.3707 74.4613
4792.99 55.7142 74.6537
4795.89 54.9729 74.0042
4798.8 55.5181 74.3888
4801.7 48.4831 70.6042
4804.6 46.6883 66.3619
4807.5 51.8913 71.1977
4810.4 53.0031 73.7673
4813.3 49.8628 70.2723
4816.21 56.5668 75.1954
4819.11 55.2383 75.1348
4822.01 52.5853 72.8109
4824.91 57.9293 78.6097
4827.81 50.3955 71.3391
4830.71 53.3623 71.6897
4833.61 51.2535 72.7089
4836.51 56.0752 75.4391
4839.41 55.1874 73.9912
4842.31 53.2205 73.0051
4845.22 54.6798 74.5876
4848.12 55.9233 76.3178
4851.02 48.5327 68.6389
4853.92 47.1007 67.6158
4856.82 43.9248 63.1481
4859.72 44.182 64.2812
4862.62 47.4377 64.9521
4865.52 50.6794 69.8496
4868.42 47.1562 66.6861
4871.32 48.1588 67.284
4874.22 49.7433 67.357
4877.12 54.7292 75.474
4880.02 52.6855 72.4309
4882.92 53.2741 73.3435
4885.82 55.4386 77.5672
4888.72 51.3782 71.0072
4891.62 54.7189 76.8835
4894.52 54.0798 76.4397
4897.42 53.209 77.2484
4900.31 55.5777 79.3087
4903.21 54.0331 75.6132
4906.11 58.079 80.6807
4909.01 58.8771 80.3659
4911.91 54.3081 75.6174
4914.81 54.1113 78.1045
4917.71 49.8481 70.3754
4920.61 49.3482 71.2682
4923.51 51.5417 74.3684
4926.41 55.7583 77.7761
4929.3 52.0799 73.6611
4932.2 55.905 77.2638
4935.1 51.7195 72.1934
4938 56.0659 76.2051
4940.9 50.8902 71.6351
4943.8 56.9591 76.9146
4946.69 53.3998 75.6996
4949.59 54.9485 76.1085
4952.49 54.0718 74.953
4955.39 50.8851 73.0244
4958.29 55.7036 74.8552
4961.18 54.129 76.8551
4964.08 54.1744 75.2447
4966.98 50.6933 71.4292
4969.88 51.5859 76.0238
4972.77 56.9885 79.5121
4975.67 56.9914 76.9833
4978.57 51.5957 71.0406
4981.47 51.9221 72.2454
4984.36 52.2308 73.2036
4987.26 54.6177 77.5043
4990.16 53.8438 73.7001
4993.05 52.9852 73.8093
4995.95 51.8173 71.9542
4998.85 55.4418 74.4151
5001.74 54.6138 75.2014
5004.64 49.8345 70.1168
5007.54 50.7037 73.0027
5010.43 49.7237 72.4607
5013.33 46.9302 66.4673
5016.23 48.773 67.9071
5019.12 50.4739 71.9708
5022.02 50.0301 72.0029
5024.91 47.0567 66.4032
5027.81 54.322 76.1832
5030.71 48.5494 68.3273
5033.6 51.7452 73.7348
5036.5 49.8037 68.2303
5039.39 49.7395 69.2188
5042.29 47.1334 69.8212
5045.18 54.9382 74.0936
5048.08 50.484 71.1595
5050.98 50.7082 73.7101
5053.87 54.4137 79.0123
5056.77 50.4229 72.7121
5059.66 51.2 74.7055
5062.56 51.437 74.297
5065.45 52.0493 71.6092
5068.35 55.3747 75.8028
5071.24 53.8736 74.5867
5074.14 54.9763 75.3667
5077.03 50.0004 72.8596
5079.92 52.0952 73.1319
5082.82 51.4597 75.6419
5085.71 50.4443 70.0825
5088.61 54.5821 76.211
5091.5 56.0559 79.4614
5094.4 55.2857 75.8321
5097.29 45.9059 66.5955
5100.18 50.7779 74.9687
5103.08 54.2553 73.1968
5105.97 49.0027 70.2083
5108.87 47.0431 68.3367
5111.76 53.637 74.5443
5114.65 52.5914 73.7352
5117.55 51.4679 74.2086
5120.44 49.3671 71.8744
5123.33 51.1103 73.593
5126.23 49.4742 71.3709
5129.12 48.4992 71.6564
5132.01 51.1965 73.8286
5134.91 47.3962 69.2941
5137.8 47.7758 72.4304
5140.69 51.4162 72.0897
5143.58 50.6664 74.4389
5146.48 48.157 69.9442
5149.37 44.9635 68.5214
5152.26 49.5235 72.5837
5155.15 53.1825 75.5178
5158.05 55.7741 78.8635
5160.94 44.3263 66.6369
5163.83 44.7661 65.0025
5166.72 40.8794 60.7755
5169.62 39.1603 59.7463
5172.51 47.1551 66.9314
5175.4 48.0867 70.7683
5178.29 47.7083 70.4568
5181.18 43.5521 65.0678
5184.07 50.2428 71.4046
5186.97 49.4874 71.9008
5189.86 47.7012 71.0248
5192.75 53.0425 75.4436
5195.64 50.3964 76.4358
5198.53 57.6843 81.061
5201.42 54.9666 80.3657
5204.31 55.2684 81.0321
5207.2 51.7263 75.8076
5210.09 52.2478 79.6433
5212.98 56.1794 82.7035
5215.88 59.083 86.4326
5218.77 56.5431 84.8292
5221.66 55.2135 84.3363
5224.55 51.4203 77.9473
5227.44 54.2847 80.9547
5230.33 55.7704 81.4023
5233.22 56.5542 81.9065
5236.11 54.6718 82.3538
5239 60.753 88.4602
5241.89 63.2222 90.3248
5244.78 57.4691 84.1673
5247.67 54.7408 84.2761
5250.56 57.9514 88.3832
5253.45 56.8061 85.2308
5256.33 62.5603 91.9493
5259.22 59.6478 87.5604
5262.11 53.6002 79.4616
5265 52 76.0656
5267.89 53.0406 78.1678
5270.78 51.1972 79.4089
5273.67 43.4757 83.1441
5276.56 52.4766 82.6996
5279.45 52.1974 85.6592
5282.33 45.4248 83.311
5285.22 54.5743 84.9682
5288.11 59.9257 92.0762
5291 56.7896 88.4812
5293.89 56.8711 90.4123
5296.78 53.2314 84.5711
5299.66 52.4862 84.7221
5302.55 46.8875 88.5552
5305.44 61.1887 94.453
5308.33 59.3446 93.8668
5311.22 56.5188 89.7251
5314.1 56.3712 89.9579
5316.99 43.4305 87.2452
5319.88 50.9597 83.1877
5322.77 55.2373 87.4116
5325.65 51.3826 83.4337
5328.54 41.21 80.8586
5331.43 50.8556 81.8014
5334.31 52.3552 86.3777
5337.2 54.4614 85.1204
5340.09 52.8234 83.2416
5342.97 42.8355 82.1897
5345.86 57.3466 88.8701
5348.75 44.2267 87.3481
5351.63 57.5962 88.8254
5354.52 60.1721 94.0223
5357.41 58.0553 91.7894
5360.29 52.3028 85.3102
5363.18 54.1526 86.619
5366.06 54.4164 84.6231
5368.95 56.6606 86.0792
5371.84 46.2862 88.078
5374.72 45.8346 86.1607
5377.61 56.8062 89.7441
5380.49 56.9005 87.6288
5383.38 58.0689 90.0175
5386.26 55.1466 90.1675
5389.15 56.1261 88.7693
5392.03 50.2504 83.9423
5394.92 49.2646 79.947
5397.8 43.9455 84.5503
5400.69 47.1415 79.5397
5403.57 48.4568 77.8657
5406.46 51.7219 82.6288
5409.34 42.1845 80.0524
5412.23 54.5444 87.4959
5415.11 54.813 85.8169
5417.99 49.9241 80.1094
5420.88 50.5701 83.0557
5423.76 50.425 83.2338
5426.65 43.557 82.9875
5429.53 50.0537 80.3782
5432.41 51.1622 83.182
5435.3 51.8461 85.7362
5438.18 56.7075 89.4231
5441.06 54.3205 86.2969
5443.95 50.9922 82.1071
5446.83 56.0858 89.8094
5449.71 55.0766 87.5999
5452.6 52.2955 85.9166
5455.48 53.9435 84.3802
5458.36 55.635 86.6849
5461.25 39.7713 80.9731
5464.13 54.4062 86.1851
5467.01 46.9122 88.6298
5469.89 49.3894 81.5056
5472.78 51.8748 83.3519
5475.66 43.6696 84.6107
5478.54 44.9439 86.5717
5481.42 56.817 87.2305
5484.3 53.4039 85.5091
5487.19 40.1033 84.2922
5490.07 56.1794 88.0137
5492.95 47.5279 88.0794
5495.83 52.6634 85.2096
5498.71 53.2713 86.3737
5501.59 43.6178 84.7673
5504.47 53.2777 86.7554
5507.36 53.4122 86.5907
5510.24 53.1514 82.2872
5513.12 53.3 84.1823
5516 53.2667 85.3524
5518.88 60.5571 91.5821
5521.76 54.4327 84.7507
5524.64 53.011 83.166
5527.52 54.4635 84.3155
5530.4 51.6034 83.4349
5533.28 55.7234 85.9198
5536.16 53.4461 84.2716
5539.04 55.6889 87.9441
5541.92 52.0347 84.5389
5544.8 54.8077 88.1809
5547.68 44.614 85.8698
5550.56 57.0463 90.8305
5553.44 53.7463 83.553
5556.32 52.1606 81.8498
5559.2 53.9082 86.7203
5562.08 50.4287 79.4115
5564.96 50.8204 82.4381
5567.84 49.0352 78.4052
5570.72 54.4133 86.4207
5573.59 36.1241 83.1018
5576.47 53.4383 84.0847
5579.35 51.4027 79.5466
5582.23 51.9163 80.5799
5585.11 50.5543 79.2244
5587.99 47.5149 74.682
5590.86 39.5192 79.5442
5593.74 50.6682 79.1839
5596.62 51.0201 81.6256
5599.5 49.8765 77.9973
5602.38 51.6722 81.3452
5605.25 52.2804 82.1909
5608.13 49.0563 80.2525
5611.01 43.8646 83.474
5613.89 52.7496 82.1014
5616.76 48.9326 79.7421
5619.64 52.1964 81.8299
5622.52 46.8549 75.845
5625.4 55.8865 86.2837
5628.27 49.8954 81.0975
5631.15 52.1272 82.5107
5634.03 54.2869 84.9879
5636.9 54.1191 83.8642
5639.78 44.1372 83.6979
5642.65 53.1359 83.2317
5645.53 42.4394 81.5374
5648.41 55.8484 85.3591
5651.28 49.6493 79.0252
5654.16 49.2373 78.2948
5657.03 46.132 73.3287
5659.91 50.1259 78.0029
5662.79 51.0743 78.8009
5665.66 50.1116 79.9329
5668.54 49.7243 77.9408
5671.41 51.8854 81.0039
5674.29 52.0894 80.3336
5677.16 56.5965 85.188
5680.04 52.6206 83.0882
5682.91 53.9205 81.7209
5685.79 51.224 81.8715
5688.66 51.7757 80.2013
5691.54 56.0237 81.9005
5694.41 50.5086 79.4137
5697.28 41.6411 80.7426
5700.16 41.1776 80.6752
5703.03 50.7621 78.9857
5705.91 50.3185 79.9942
5708.78 45.995 73.4787
5711.65 50.2111 78.2276
5714.53 39.1105 76.0021
5717.4 53.6926 82.202
5720.27 52.0842 79.6004
5723.15 49.3991 79.4075
5726.02 50.6887 79.5733
5728.89 50.7716 78.2025
5731.77 55.7401 84.9889
5734.64 52.1569 82.221
5737.51 54.4507 80.9292
5740.38 41.7921 78.9374
5743.26 43.6362 78.6334
5746.13 52.0181 78.8669
5749 50.7844 77.6939
5751.87 50.0638 79.5172
5754.75 50.8076 78.9287
5757.62 49.7289 76.8396
5760.49 36.4307 74.028
5763.36 42.3113 79.4505
5766.23 49.4519 75.3194
5769.1 54.6431 80.4228
5771.98 51.7363 80.3997
5774.85 51.254 78.6561
5777.72 46.2172 72.4428
5780.59 49.4555 75.0833
5783.46 47.9432 75.511
5786.33 37.3849 73.3749
5789.2 51.7742 78.1981
5792.07 51.7623 78.2998
5794.94 44.8426 81.2995
5797.81 52.8551 78.0547
5800.68 51.3924 77.1324
5803.55 49.668 76.6656
5806.42 43.8506 78.9176
5809.29 53.101 79.0724
5812.16 53.4688 80.3507
5815.03 38.6387 74.5032
5817.9 45.0256 81.7468
5820.77 54.2248 81.0789
5823.64 54.3576 83.0905
5826.51 51.7828 78.942
5829.38 44.3003 80.3839
5832.25 51.7505 78.5547
5835.12 54.0599 81.704
5837.99 53.3552 79.7359
5840.85 58.0574 83.7668
5843.72 47.2946 84.3538
5846.59 51.1887 77.6227
5849.46 55.7391 82.5735
5852.33 50.1425 75.2303
5855.2 51.9747 80.5803
5858.06 48.5569 75.8969
5860.93 44.3639 79.3706
5863.8 54.8206 81.3086
5866.67 53.8059 77.4867
5869.53 49.456 77.8231
5872.4 48.8753 76.3755
5875.27 46.1131 81.5536
5878.14 49.8418 77.471
5881 51.3619 79.3988
5883.87 47.6418 72.7265
5886.74 45.4605 70.4925
5889.6 26.676 64.4004
5892.47 43.2484 66.5394
5895.34 43.8516 62.4106
5898.2 43.7797 66.7539
5901.07 43.8421 66.9661
5903.93 51.602 77.0546
5906.8 52.7262 81.571
5909.67 50.2747 74.7902
5912.53 54.3786 79.7034
5915.4 49.9841 74.6758
5918.26 53.2624 79.4425
5921.13 50.4307 76.0976
5923.99 37.9954 73.5542
5926.86 53.0591 78.0086
5929.72 47.4361 82.6214
5932.59 34.9449 70.2272
5935.45 52.3725 76.5085
5938.32 42.8201 77.1255
5941.18 41.5437 77.5165
5944.05 41.9249 79.5383
5946.91 48.8484 74.2395
5949.77 37.6504 74.2585
5952.64 48.8326 69.519
5955.5 48.7648 72.1997
5958.37 40.5684 76.2318
5961.23 51.2695 77.0007
5964.09 52.0714 75.5778
5966.96 38.5727 75.1929
5969.82 52.1939 76.3745
5972.68 39.2664 74.1864
5975.55 51.9262 76.7912
5978.41 51.7372 75.7884
5981.27 48.8828 73.1241
5984.13 50.0587 73.8815
5987 37.8181 72.0446
5989.86 51.4442 73.7975
5992.72 50.7318 74.2981
5995.58 36.494 71.162
5998.45 49.5462 73.5851
6001.31 46.3762 70.5153
6004.17 40.3499 73.7059
6007.03 50.1087 73.0104
6009.89 40.9154 73.8296
6012.75 51.7233 75.9287
6015.62 38.7651 71.5083
6018.48 48.1169 71.7545
6021.34 49.8292 72.766
6024.2 48.5931 71.1821
6027.06 38.9992 70.8809
6029.92 48.3751 71.9704
6032.78 51.4982 75.0935
6035.64 42.1351 74.9976
6038.5 49.9727 74.6814
6041.36 38.5377 73.1894
6044.22 48.9946 73.6436
6047.08 51.5448 75.7334
6049.94 50.0862 72.9239
6052.8 49.72 71.5081
6055.66 49.8793 72.293
6058.52 48.262 69.6951
6061.38 49.5793 72.9453
6064.24 51.546 75.824
6067.1 52.0684 75.0255
6069.96 53.3889 76.165
6072.82 49.6114 72.9725
6075.67 50.5363 74.1615
6078.53 49.9531 71.5885
6081.39 48.1839 69.5991
6084.25 47.6437 72.8489
6087.11 51.1955 74.2728
6089.97 48.313 71.1924
6092.82 49.0688 71.4859
6095.68 50.3616 74.3625
6098.54 47.1541 69.6536
6101.4 47.7192 69.3704
6104.25 44.8479 67.1995
6107.11 50.734 72.5628
6109.97 49.1398 72.5808
6112.83 51.7257 73.4234
6115.68 49.2167 72.2156
6118.54 48.2309 69.7035
6121.4 47.4715 69.1137
6124.25 37.9955 71.1261
6127.11 48.3576 69.4595
6129.96 35.5995 66.2735
6132.82 45.8886 68.0077
6135.68 47.4707 69.7059
6138.53 49.0137 70.1612
6141.39 45.9997 66.5835
6144.24 44.6617 66.9327
6147.1 48.3751 68.9244
6149.95 40.6464 72.9653
6152.81 43.7374 64.0388
6155.66 47.3539 68.1074
6158.52 44.238 62.6025
6161.37 42.4398 63.8561
6164.23 33.7525 62.5352
6167.08 47.4231 69.263
6169.94 48.391 70.1369
6172.79 47.2634 69.3938
6175.65 46.0384 68.9908
6178.5 37.6112 70.2245
6181.35 42.6965 71.6631
6184.21 46.5131 70.1063
6187.06 45.7538 64.6383
6189.91 45.9545 66.6435
6192.77 48.3423 69.6458
6195.62 47.597 67.955
6198.47 46.0543 68.2049
6201.33 40.7146 70.3891
6204.18 42.6489 72.5465
6207.03 50.3826 71.9476
6209.89 48.4091 69.4102
6212.74 48.7384 71.2973
6215.59 41.9167 73.048
6218.44 49.1901 71.8334
6221.29 51.7198 72.7153
6224.15 49.6755 72.0462
6227 39.2247 71.7134
6229.85 46.4924 68.3247
6232.7 38.2957 72.3072
6235.55 53.1883 75.9801
6238.4 52.42 74.3336
6241.25 46.072 68.5519
6244.11 50.3755 75.1219
6246.96 51.5386 72.5665
6249.81 48.5392 69.3122
6252.66 53.6539 74.7305
6255.51 51.7828 74.2248
6258.36 50.3532 73.1083
6261.21 48.6932 70.8701
6264.06 50.4073 74.81
6266.91 50.0671 75.2663
6269.76 52.305 76.0656
6272.61 44.0498 80.7562
6275.46 36.9323 71.6457
6278.31 37.6252 68.1689
6281.16 50.669 71.5771
6284 54.6015 76.6052
6286.85 41.4402 73.4591
6289.7 47.468 72.3958
6292.55 53.0993 70.0914
6295.4 51.2893 71.5524
6298.25 49.5338 67.1726
6301.1 44.6077 61.4785
6303.94 49.2336 67.3929
6306.79 56.6644 75.6791
6309.64 51.4279 75.2441
6312.49 52.1453 71.5184
6315.33 44.142 68.5743
6318.18 46.5831 69.3983
6321.03 51.041 72.7317
6323.88 49.801 72.0917
6326.72 54.3328 77.2125
6329.57 51.6622 74.8325
6332.42 53.6434 74.4366
6335.26 49.1346 71.3439
6338.11 48.4303 70.6813
6340.96 50.5138 73.3762
6343.8 49.7386 71.0205
6346.65 53.3212 75.8784
6349.49 52.3461 75.0827
6352.34 52.0826 75.4285
6355.18 49.9487 71.1252
6358.03 49.838 69.6772
6360.88 51.1701 71.0431
6363.72 52.7734 72.0281
6366.57 48.4344 68.8599
6369.41 51.3585 73.7875
6372.25 47.514 65.7855
6375.1 52.3132 76.1353
6377.94 44.8344 71.6851
6380.79 47.8922 72.8002
6383.63 47.2472 73.4244
6386.48 48.2488 73.8119
6389.32 46.5643 72.0468
6392.16 37.2903 69.8536
6395.01 47.175 71.2197
6397.85 46.0378 69.3771
6400.69 37.8407 68.5683
6403.54 44.0818 69.1172
6406.38 48.2586 73.6472
6409.22 37.9898 74.3432
6412.07 45.7381 72.027
6414.91 47.6604 72.2693
6417.75 48.7202 73.1127
6420.59 36.794 70.2252
6423.43 48.7482 74.6374
6426.28 47.2 70.1227
6429.12 44.5473 70.7353
6431.96 39.8707 72.2511
6434.8 48.8591 74.4459
6437.64 45.0968 70.0276
6440.48 37.2797 71.4676
6443.33 47.4885 74.2225
6446.17 49.0336 72.8847
6449.01 46.6715 70.7753
6451.85 44.8321 69.6599
6454.69 46.8716 70.6451
6457.53 40.0388 72.9734
6460.37 43.8033 68.4369
6463.21 51.4462 74.6089
6466.05 44.4308 69.8436
6468.89 43.2492 65.2869
6471.73 48.9109 73.1872
6474.57 45.8122 67.4598
6477.41 46.882 71.7288
6480.25 47.0684 72.0038
6483.09 46.5123 70.1007
6485.92 49.4226 73.5872
6488.76 37.8241 68.545
6491.6 46.3787 68.4992
6494.44 31.8679 64.6093
6497.28 43.2984 66.7806
6500.12 44.9559 69.3536
6502.95 43.6145 67.2989
6505.79 47.241 71.5081
6508.63 47.0246 67.6772
6511.47 45.1669 63.656
6514.31 46.7318 72.5661
6517.14 44.1093 65.2328
6519.98 46.5193 67.5737
6522.82 37.6619 69.4339
6525.65 45.7419 67.1432
6528.49 46.7489 69.3324
6531.33 47.3547 69.9826
6534.16 47.4573 74.5489
6537 44.4845 67.8546
6539.84 45.6836 71.4691
6542.67 43.1909 67.3585
6545.51 41.2423 66.4711
6548.34 45.4762 67.4595
6551.18 43.1606 64.8704
6554.01 32.9805 62.2345
6556.85 37.8684 57.5169
6559.68 39.1116 55.9497
6562.52 42.2676 63.2514
6565.35 39.2915 59.0142
6568.19 44.12 63.5134
6571.02 39.8672 61.093
6573.86 44.9679 68.4554
6576.69 32.8978 65.1766
6579.53 42.3435 65.9975
6582.36 40.2677 62.2568
6585.19 44.4879 67.529
6588.03 43.6884 65.3934
6590.86 44.5401 67.9211
6593.69 45.709 68.0421
6596.53 32.828 64.484
6599.36 47.3837 67.8132
6602.19 44.3502 68.0264
6605.02 48.0402 70.8136
6607.86 43.2314 66.5212
6610.69 44.302 66.8572
6613.52 48.5572 70.7809
6616.35 37.5251 67.3175
6619.18 33.8048 66.8446
6622.02 44.5696 66.619
6624.85 44.772 69.2945
6627.68 38.5334 69.1329
6630.51 35.0486 65.8452
6633.34 41.4909 62.9534
6636.17 45.8972 68.3199
6639 44.9059 66.8479
6641.83 36.8455 66.2527
6644.66 47.6064 69.0925
6647.49 45.2269 69.1109
6650.32 40.4273 63.1918
6653.15 34.5094 64.6019
6655.98 46.0108 67.6334
6658.81 49.5045 69.9312
6661.64 45.0568 66.9793
6664.47 43.7773 64.8515
6667.3 35.1245 64.0293
6670.13 45.824 67.1918
6672.96 34.9017 63.8657
6675.79 41.7853 63.5405
6678.62 48.4846 67.0096
6681.45 40.6129 67.0615
6684.27 50.1014 70.3788
6687.1 41.2901 62.1985
6689.93 47.0835 64.9121
6692.76 43.389 63.0775
6695.59 41.9594 64.215
6698.41 41.9709 63.3536
6701.24 36.5706 64.669
6704.07 48.8168 68.3844
6706.89 43.5008 64.8649
6709.72 45.3907 68.667
6712.55 41.0622 62.7009
6715.37 43.3109 63.0564
6718.2 35.5037 66.3449
6721.03 42.8644 63.81
6723.85 42.3492 62.8778
6726.68 36.1998 64.3111
6729.5 46.726 66.5192
6732.33 46.7988 67.3898
6735.16 42.7698 65.9529
6737.98 35.0194 62.5458
6740.81 38.6286 65.1998
6743.63 44.8165 65.0111
6746.46 38.2418 65.9995
6749.28 46.9368 63.161
6752.1 45.2732 64.7409
6754.93 45.5833 65.9533
6757.75 45.5841 64.4047
6760.58 44.4418 65.8855
6763.4 46.3227 65.5252
6766.22 40.6436 59.0388
6769.05 44.3102 63.9951
6771.87 43.9311 63.5853
6774.69 40.6179 58.9859
6777.52 45.4364 63.6741
6780.34 45.4467 66.2762
6783.16 43.7505 62.0851
6785.99 42.1113 60.342
6788.81 41.8104 59.8014
6791.63 42.6946 60.8137
6794.45 43.9765 62.3288
6797.27 44.9967 62.7536
6800.1 44.9706 63.0562
6802.92 37.3013 61.5116
6805.74 34.3203 59.0471
6808.56 34.2816 58.9961
6811.38 35.6909 62.0108
6814.2 42.1423 59.9542
6817.02 39.1859 58.4512
6819.84 37.4737 65.7513
6822.66 41.5254 58.1993
6825.48 32.97 59.6256
6828.3 44.4149 58.257
6831.12 40.8934 59.746
6833.94 44.6572 61.4464
6836.76 42.7628 57.4646
6839.58 40.7002 59.0124
6842.4 33.3122 59.7338
6845.22 33.4532 58.7408
6848.04 44.6461 60.9378
6850.86 42.0972 57.7092
6853.68 44.0582 61.0088
6856.49 46.0459 62.1602
6859.31 40.3054 56.503
6862.13 34.7715 53.4617
6864.95 30.5549 46.7409
6867.77 32.6586 45.5588
6870.58 31.7677 45.0915
6873.4 32.6225 46.4558
6876.22 36.42 48.8474
6879.04 36.9714 50.512
6881.85 35.8417 49.9808
6884.67 37.5733 51.164
6887.49 36.6338 49.2466
6890.3 37.2888 50.7062
6893.12 36.4132 50.6892
6895.93 40.7515 51.8524
6898.75 35.3093 48.5967
6901.57 41.3412 53.9012
6904.38 42.1862 55.163
6907.2 39.8416 52.5533
6910.01 38.4593 51.7515
6912.83 40.1729 53.9637
6915.64 29.8945 52.3189
6918.46 29.4138 52.3958
6921.27 41.0668 56.4302
6924.09 40.3986 52.5492
6926.9 37.7654 53.676
6929.71 41.9321 56.7608
6932.53 27.1618 49.0171
6935.34 41.1905 54.74
6938.15 39.7433 51.2351
6940.97 41.7796 55.4785
6943.78 36.1483 50.4728
6946.59 40.9592 55.055
6949.41 42.1271 54.7212
6952.22 37.1239 50.7427
6955.03 36.5891 50.8455
6957.84 39.2358 52.6638
6960.66 41.4457 53.6909
6963.47 32.063 56.2668
6966.28 43.3608 58.9168
6969.09 44.364 58.0738
6971.9 40.1039 51.5976
6974.71 38.8599 53.1686
6977.53 29.7131 55.0902
6980.34 40.3151 54.084
6983.15 44.6933 57.0869
6985.96 46.3245 59.6598
6988.77 41.4825 55.9883
6991.58 34.7882 54.0512
6994.39 41.9059 55.2515
6997.2 38.8393 53.4465
7000.01 33.071 54.9276
7002.82 36.6326 51.2555
7005.63 42.5525 55.7505
7008.44 31.538 53.2609
7011.25 38.1461 50.0357
7014.05 40.3381 53.1256
7016.86 29.3358 51.5528
7019.67 39.6983 53.7977
7022.48 40.6919 53.6311
7025.29 28.3036 49.3401
7028.1 33.5347 54.9135
7030.9 40.1378 51.0705
7033.71 32.2307 50.8598
7036.52 41.125 53.6062
7039.33 41.3656 54.2365
7042.13 38.083 48.8677
7044.94 40.2463 49.0988
7047.75 38.5087 51.4209
7050.55 40.8477 51.5977
7053.36 39.2844 52.2996
7056.17 39.4879 49.3049
7058.97 41.2896 52.4474
7061.78 33.4502 51.0038
7064.58 42.1487 54.8539
7067.39 41.2749 52.3632
7070.19 33.4562 52.0835
7073 42.5801 52.0123
7075.8 40.149 51.2649
7078.61 40.1103 50.654
7081.41 41.4083 50.0814
7084.22 31.336 50.1847
7087.02 41.5092 52.6249
7089.83 38.2937 48.5411
7092.63 37.8261 50.2035
7095.43 41.4213 53.0006
7098.24 39.8179 49.6382
7101.04 40.285 51.0717
7103.84 39.2752 48.3648
7106.65 40.1612 49.3462
7109.45 38.0942 46.3895
7112.25 43.7689 53.0701
7115.06 39.1362 50.5531
7117.86 42.4599 50.8646
7120.66 37.8943 47.3819
7123.46 36.074 48.3921
7126.26 41.3044 49.2758
7129.07 41.8704 52.8739
7131.87 30.3074 49.6381
7134.67 31.5408 49.0189
7137.47 41.1045 48.8979
7140.27 40.2724 51.4747
7143.07 42.9722 50.7544
7145.87 40.3574 50.8601
7148.67 41.3189 52.1492
7151.47 30.5357 48.6038
7154.27 32.4618 51.9666
7157.07 40.1077 50.5473
7159.87 41.185 52.1845
7162.67 42.3633 52.4394
7165.47 39.8298 49.3367
7168.27 30.8993 46.4896
7171.07 45.2753 54.842
7173.87 31.6403 48.1851
7176.66 40.9359 52.0524
7179.46 44.1891 51.962
7182.26 38.1225 48.3711
7185.06 37.5052 50.1161
7187.86 37.7974 47.2725
7190.65 42.5639 49.9196
7193.45 43.0268 54.6024
7196.25 41.9563 50.9551
7199.05 40.3269 50.4255
7201.84 40.0823 48.8468
7204.64 40.2674 49.2992
7207.44 45.354 51.9058
7210.23 39.6966 49.228
7213.03 44.3956 52.7714
7215.82 39.4823 46.7782
7218.62 33.7315 50.421
7221.41 36.5503 47.5585
7224.21 44.4928 50.244
7227.01 29.7248 49.7687
7229.8 40.7711 47.1357
7232.6 40.5243 46.3443
7235.39 27.257 48.9885
7238.18 41.7076 46.9785
7240.98 38.0369 45.612
7243.77 39.5985 45.4898
7246.57 37.9224 43.0474
7249.36 37.8624 48.4173
7252.15 42.9604 48.6964
7254.95 34.6347 52.1358
7257.74 39.6962 45.527
7260.53 40.6781 48.5661
7263.33 30.7164 46.2919
7266.12 40.5442 48.516
7268.91 37.1471 44.9719
7271.7 38.8173 43.3914
7274.49 35.6319 44.3223
7277.29 43.52 48.5266
7280.08 35.6195 43.373
7282.87 38.5197 47.7307
7285.66 41.4226 47.176
7288.45 40.8064 47.7744
7291.24 37.4898 44.2729
7294.03 41.8009 47.2843
7296.82 38.896 46.2647
7299.61 29.6661 46.1103
7302.4 37.2929 44.2785
7305.19 41.8037 48.2017
7307.98 36.1062 43.6095
7310.77 38.8089 45.5131
7313.56 38.4613 43.8708
7316.35 41.7918 46.4629
7319.14 42.7867 49.5152
7321.93 37.5347 42.2035
7324.72 40.6338 46.512
7327.51 40.1987 48.8575
7330.29 40.4502 48.0266
7333.08 43.2492 48.8876
7335.87 41.5228 40.9102
7338.66 25.8679 49.5692
7341.45 19.0994 45.4907
7344.23 37.2162 44.854
7347.02 33.4124 42.5943
7349.81 39.0325 47.0766
7352.59 38.2152 44.673
7355.38 39.3304 44.4296
7358.17 36.63 44.0988
7360.95 39.047 45.1324
7363.74 34.4024 39.9129
7366.52 38.1257 43.3812
7369.31 40.6796 44.4861
7372.09 24.7701 44.7433
7374.88 39.4864 45.3524
7377.66 30.741 47.0799
7380.45 34.9965 44.231
7383.23 26.4179 41.6515
7386.02 33.6805 41.8742
7388.8 30.6839 42.7048
7391.59 37.2007 43.1356
7394.37 23.5804 41.4984
7397.15 35.1017 41.1209
7399.94 34.8446 44.2676
7402.72 37.5181 44.8714
7405.5 38.2109 44.8564
7408.29 34.7055 40.7308
7411.07 33.8501 38.8958
7413.85 39.2346 42.7149
7416.63 37.6604 43.4976
7419.42 35.7072 41.7785
7422.2 36.2576 42.5123
7424.98 36.2982 47.515
7427.76 28.1069 43.5334
7430.54 36.963 43.6874
7433.32 39.9886 44.6957
7436.1 38.8684 43.7408
7438.88 37.5621 40.6219
7441.66 37.5347 47.0101
7444.44 36.255 41.9129
7447.22 40.5482 46.6602
7450 38.3141 42.816
7452.78 40.1793 44.2488
7455.56 35.3281 41.7451
7458.34 32.1073 46.7464
7461.12 37.5542 43.315
7463.9 36.0405 43.2891
7466.68 27.9338 41.3084
7469.46 35.7032 39.3713
7472.24 36.2232 42.8786
7475.01 36.7693 41.786
7477.79 26.7801 40.3224
7480.57 38.4303 40.4253
7483.35 37.2327 42.405
7486.12 38.1096 41.4025
7488.9 26.6946 40.7357
7491.68 36.4898 41.4486
7494.45 37.014 40.2311
7497.23 38.6873 41.7102
7500.01 28.1637 37.714
7502.78 33.4897 39.6304
7505.56 39.1183 41.6396
7508.34 35.3066 39.0765
7511.11 35.253 40.6559
7513.89 29.843 39.1795
7516.66 32.2466 43.4759
7519.44 32.8823 38.0915
7522.21 37.405 38.0182
7524.98 32.501 39.5716
7527.76 34.8365 37.2569
7530.53 36.341 41.5732
7533.31 40.0889 42.0061
7536.08 27.3738 40.6692
7538.85 34.3798 38.7768
7541.63 27.508 37.4954
7544.4 34.5412 38.0886
7547.17 35.3817 37.1387
7549.95 33.692 39.9888
7552.72 32.7424 38.7626
7555.49 33.0357 34.7795
7558.26 32.229 40.5537
7561.03 35.416 37.341
7563.81 31.5013 31.1399
7566.58 37.2631 36.2343
7569.35 35.6556 35.9399
7572.12 35.8352 37.1773
7574.89 35.1707 39.4442
7577.66 33.7783 36.0315
7580.43 32.0995 35.918
7583.2 33.7758 34.354
7585.97 26.6101 34.2814
7588.74 26.3636 28.7082
7591.51 17.2011 21.0681
7594.28 14.4507 17.8562
7597.05 12.8777 15.0547
7599.82 3.95756 8.64127
7602.59 6.05472 8.97009
7605.36 6.68762 9.23347
7608.12 11.6945 11.7733
7610.89 17.1968 15.6412
7613.66 23.0768 21.0371
7616.43 21.256 20.3059
7619.19 17.6767 19.1673
7621.96 15.5446 20.5349
7624.73 9.24448 17.0165
7627.5 17.864 18.8593
7630.26 17.35 16.5331
7633.03 18.6802 19.6351
7635.8 18.6732 18.5346
7638.56 19.6284 19.1659
7641.33 21.3465 20.5965
7644.09 25.0753 24.6582
7646.86 24.9421 25.4778
7649.62 28.0707 24.8216
7652.39 18.8085 24.5865
7655.15 24.6348 25.5124
7657.92 28.0691 26.675
7660.68 23.4755 23.9325
7663.45 28.4122 27.5132
7666.21 30.9919 28.3008
7668.97 30.3328 30.9703
7671.74 33.1882 31.6405
7674.5 26.7081 30.3066
7677.26 34.2253 32.8048
7680.03 33.344 33.0962
7682.79 33.0581 32.6793
7685.55 32.9869 31.8222
7688.31 34.5511 37.0294
7691.08 33.157 33.1804
7693.84 32.3505 33.5763
7696.6 32.195 29.8998
7699.36 36.1751 32.0604
7702.12 34.9574 30.1067
7704.88 27.8124 34.4536
7707.64 32.6235 28.9518
7710.41 15.1731 28.2273
7713.17 34.1254 29.5858
7715.93 32.0427 36.2875
7718.69 19.0626 33.8855
7721.45 33.4318 32.38
7724.2 23.017 35.7494
7726.96 32.2023 33.5446
7729.72 21.5926 36.2014
7732.48 33.6136 35.3499
7735.24 26.1973 30.969
7738 32.6916 32.7279
7740.76 32.5365 30.73
7743.52 33.2491 28.2786
7746.27 32.8427 22.9114
7749.03 8.66753 30.4254
7751.79 15.388 31.8267
7754.55 28.9181 30.9246
7757.3 30.8837 28.426
7760.06 33.11 32.8133
7762.82 31.6739 31.5849
7765.57 28.6381 33.2564
7768.33 30.1281 31.3456
7771.08 32.3986 35.9598
7773.84 27.171 32.7782
7776.59 34.1361 31.3206
7779.35 33.6798 29.349
7782.11 32.6169 32.28
7784.86 23.0377 27.1342
7787.61 33.9569 31.0722
7790.37 34.0308 31.9242
7793.12 34.0462 31.292
7795.88 35.27 28.5782
7798.63 30.2419 31.2349
7801.38 35.8605 34.4367
7804.14 23.7425 29.417
7806.89 18.9011 24.0468
7809.64 35.7743 31.2432
7812.4 31.3934 30.6671
7815.15 34.6919 27.8743
7817.9 37.3224 30.2258
7820.65 37.509 32.7415
7823.4 30.2784 29.8025
7826.16 33.5336 32.5788
7828.91 21.86 29.3294
7831.66 33.7148 30.8289
7834.41 33.653 31.0368
7837.16 35.3061 27.8284
7839.91 29.061 34.5492
7842.66 33.0739 26.9731
7845.41 32.4621 30.2699
7848.16 33.3912 24.8199
7850.91 11.331 29.6393
7853.66 33.4459 29.5922
7856.41 30.1548 28.3376
7859.16 12.3024 28.0855
7861.91 30.4712 26.2322
7864.65 35.552 26.108
7867.4 17.5579 22.1964
7870.15 20.7291 28.5113
7872.9 32.0116 33.6783
7875.65 28.3069 25.9895
7878.39 35.0578 29.3624
7881.14 38.2303 29.9502
7883.89 31.9667 27.4707
7886.63 20.5714 30.2088
7889.38 32.9501 25.4557
7892.13 20.5282 29.061
7894.87 34.3066 32.1662
7897.62 23.8938 27.928
7900.36 24.2759 25.0898
7903.11 34.3961 28.9242
7905.85 36.8592 26.8962
7908.6 34.4149 23.8967
7911.34 8.38479 22.4056
7914.09 3.96797 24.3656
7916.83 28.467 22.1609
7919.58 31.4225 26.709
7922.32 31.0685 28.4332
7925.06 17.2001 30.7295
7927.81 29.3978 24.1151
7930.55 18.5895 22.5513
7933.29 33.9667 27.0026
7936.04 34.1134 25.9015
7938.78 30.7189 23.4944
7941.52 29.5609 21.81
7944.26 31.9229 25.3985
7947.01 32.8394 24.5219
7949.75 23.5415 23.9215
7952.49 32.4814 29.2614
7955.23 30.8084 24.735
7957.97 19.5338 23.4935
7960.71 34.8239 28.9374
7963.45 11.7474 26.2655
7966.19 30.8483 23.692
7968.93 32.5701 27.38
7971.67 31.2125 21.9306
7974.41 37.9371 26.6221
7977.15 33.2043 26.904
7979.89 35.8531 25.4083
7982.63 33.0619 26.2381
7985.37 31.5166 27.0163
7988.1 36.1637 30.9984
7990.84 35.4193 36.5299
7993.58 38.8602 31.2314
7996.32 9.31395 23.3666
7999.06 17.8024 29.9296
8001.79 38.9175 31.7175
8004.53 33.1491 24.5533
8007.27 27.5941 26.6438
8010 32.8248 29.4107
8012.74 33.6411 25.5487
8015.48 21.982 25.8569
8018.21 34.0349 29.086
8020.95 35.478 21.714
8023.68 38.8572 28.7673
8026.42 33.8118 27.1155
8029.15 29.2173 26.8563
8031.89 38.602 30.6766
8034.62 38.6517 28.6039
8037.36 33.4999 26.7331
8040.09 33.1425 28.1297
8042.82 35.9771 25.5076
8045.56 38.5827 28.9737
8048.29 38.8591 29.7649
8051.02 30.5374 23.1744
8053.76 28.8223 25.5922
8056.49 26.7741 29.8013
8059.22 36.2488 31.0861
8061.95 36.2765 23.1565
8064.69 41.1441 27.721
8067.42 25.2734 25.2842
8070.15 27.174 26.3465
8072.88 31.2056 23.7855
8075.61 41.486 28.4185
8078.34 35.7993 24.0143
8081.07 33.9139 26.4344
8083.8 27.2586 26.5589
8086.53 38.5003 26.8581
8089.26 23.216 20.3995
8091.99 37.9415 27.8848
8094.72 29.4018 21.1827
8097.45 37.3313 27.8419
8100.18 30.7231 30.7504
8102.91 38.5225 22.5354
8105.64 33.8781 23.3164
8108.37 35.511 26.0598
8111.09 31.4542 24.9409
8113.82 31.359 29.951
8116.55 32.2908 26.6955
8119.28 34.1734 26.1699
8122 36.8045 27.4597
8124.73 33.5108 21.6827
8127.46 38.7187 30.5087
8130.18 31.6459 26.0128
8132.91 27.4706 26.9798
8135.63 36.3471 25.3552
8138.36 24.7012 24.8993
8141.09 32.2889 24.0656
8143.81 29.4732 28.8203
8146.54 21.3393 23.0708
8149.26 27.4891 18.8305
8151.98 33.204 19.478
8154.71 28.1667 23.5047
8157.43 32.3675 25.2138
8160.16 34.075 27.0476
8162.88 31.2881 20.8051
8165.6 27.5129 23.7212
8168.33 27.4323 21.0019
8171.05 36.2804 23.5945
8173.77 31.7954 18.8048
8176.49 33.5559 23.8218
8179.22 30.4546 22.3853
8181.94 32.1404 23.9374
8184.66 28.3432 26.2069
8187.38 31.2009 23.7988
8190.1 31.7262 22.7047
8192.82 23.3365 19.6805
8195.54 32.1753 21.846
8198.26 31.8245 22.3587
8200.98 35.0565 20.8631
8203.7 29.572 18.47
8206.42 28.6138 24.0713
8209.14 36.1107 24.105
8211.86 32.1302 20.422
8214.58 31.5724 19.6674
8217.3 32.4258 22.1305
8220.02 26.1994 18.2749
8222.74 27.6059 21.6098
8225.45 30.0924 19.9308
8228.17 33.6489 21.3682
8230.89 31.2417 22.4395
8233.61 29.1811 20.0815
8236.32 32.9266 22.5708
8239.04 27.9011 19.4383
8241.76 30.0638 23.5698
8244.47 30.3895 22.0368
8247.19 30.5507 20.4783
8249.9 31.5581 23.9354
8252.62 32.0079 21.2559
8255.34 32.5412 26.8014
8258.05 29.9837 23.2623
8260.77 27.8428 18.1019
8263.48 30.0581 19.416
8266.19 32.9651 21.2916
8268.91 31.0448 21.2075
8271.62 31.9487 20.5907
8274.34 28.1182 19.2827
8277.05 30.3496 18.1433
8279.76 31.7331 17.4313
8282.48 29.5518 16.6917
8285.19 32.2121 20.3475
8287.9 28.3251 19.493
8290.61 30.9129 20.6682
8293.32 29.8548 14.1648
8296.04 29.869 16.9389
8298.75 27.2208 20.4024
8301.46 28.8492 19.0547
8304.17 30.8909 21.5777
8306.88 28.0835 18.0168
8309.59 23.0631 16.3175
8312.3 30.0004 15.7732
8315.01 29.2302 21.661
8317.72 33.6275 19.0193
8320.43 28.3012 19.3432
8323.14 30.723 16.5183
8325.85 30.6383 18.5994
8328.56 30.8177 21.9712
8331.26 32.2143 18.3276
8333.97 27.2965 19.7847
8336.68 22.9735 16.7487
8339.39 32.1888 13.0485
8342.1 31.5834 20.3555
8344.8 26.5904 15.7167
8347.51 17.6587 7.71593
8350.22 23.6715 14.0938
8352.92 26.9847 19.6
8355.63 30.2204 23.8132
8358.34 29.9643 18.0617
8361.04 25.9416 19.4174
8363.75 30.9903 15.6849
8366.45 27.6147 13.1954
8369.16 28.8708 17.5729
8371.86 30.1605 18.2712
8374.57 25.6007 14.422
8377.27 36.7572 20.7795
8379.97 30.4111 19.094
8382.68 27.991 18.6916
8385.38 27.2727 13.3899
8388.08 31.2554 17.9069
8390.79 24.3665 13.4295
8393.49 32.1874 16.5005
8396.19 36.1798 13.7626
8398.89 36.8625 16.5009
8401.6 29.7293 21.0993
8404.3 28.7526 14.6509
8407 29.3395 18.6087
8409.7 33.5243 18.4643
8412.4 30.3035 18.8938
8415.1 30.673 14.7433
8417.8 28.4656 19.963
8420.5 28.6008 16.6941
8423.2 25.4566 13.1261
8425.9 29.8418 12.0381
8428.6 26.6833 9.40311
8431.3 28.2535 6.25593
8434 24.5618 12.5938
8436.7 28.6138 16.7739
8439.4 20.9111 15.7349
8442.1 28.5054 16.5569
8444.79 29.3736 19.0864
8447.49 27.5723 9.52448
8450.19 27.2754 19.5731
8452.89 31.5847 15.5305
8455.58 24.8814 13.7416
8458.28 29.3295 15.5731
8460.97 28.1184 14.3586
8463.67 34.2051 11.4764
8466.37 29.824 11.3673
8469.06 19.89 16.2857
8471.76 33.5507 16.8277
8474.45 31.2511 14.2569
8477.15 25.8611 12.5589
8479.84 29.4532 16.5261
8482.54 34.0919 17.8022
8485.23 32.5852 15.6049
8487.92 34.1967 14.5024
8490.62 30.1442 18.5643
8493.31 26.9694 10.6926
8496 30.3015 13.7326
8498.7 22.1342 11.4562
8501.39 26.7292 6.43219
8504.08 30.1705 14.6749
8506.77 29.6127 14.8438
8509.47 26.4011 17.2186
8512.16 30.7182 13.2708
8514.85 25.8485 11.8955
8517.54 28.1268 14.9257
8520.23 31.5421 13.486
8522.92 29.237 14.8398
8525.61 29.0322 13.6138
8528.3 29.954 12.7074
8530.99 26.9418 13.6788
8533.68 26.8487 15.3237
8536.37 28.8607 15.0959
8539.06 23.8269 13.5169
8541.75 17.8473 11.505
8544.43 21.5615 10.2729
8547.12 25.1455 11.401
8549.81 25.1342 9.57927
8552.5 26.7497 10.8946
8555.19 29.6294 13.4035
8557.87 25.6932 10.7295
8560.56 30.4139 12.1849
8563.25 28.1098 14.7007
8565.93 28.9457 15.8522
8568.62 29.0698 12.8556
8571.3 26.9905 12.4897
8573.99 27.4077 14.0145
8576.67 33.4759 20.8731
8579.36 25.7764 16.9268
8582.04 29.0659 14.501
8584.73 27.5086 12.1891
8587.41 33.0333 11.1324
8590.1 23.4769 12.4965
8592.78 24.7417 12.6763
8595.46 23.2847 11.0671
8598.15 29.0126 17.0024
8600.83 29.5852 17.6057
8603.51 25.4436 14.4915
8606.19 32.4107 11.4582
8608.88 27.0663 10.914
8611.56 27.5031 8.80159
8614.24 23.7037 9.81291
8616.92 28.8455 14.9519
8619.6 31.5833 24.4856
8622.28 29.7154 10.9965
8624.96 29.763 12.5881
8627.64 30.5229 12.7964
8630.32 28.6928 4.3503
8633 24.9488 6.25597
8635.68 31.3579 9.49378
8638.36 26.136 8.17245
8641.04 30.1275 10.9306
8643.72 29.9119 11.5471
8646.4 25.4605 15.2031
8649.08 31.8043 11.101
8651.75 29.5471 9.66297
8654.43 26.9586 10.4777
8657.11 27.572 8.96182
8659.79 19.0303 5.5561
8662.46 18.5763 8.87855
8665.14 28.2982 6.22563
8667.81 25.8663 13.6376
8670.49 23.1011 4.68102
8673.17 28.1931 9.78055
8675.84 26.5127 12.2984
8678.52 25.9661 9.19948
8681.19 30.8788 10.8991
8683.87 30.1818 7.02595
8686.54 29.2978 10.4421
8689.21 28.359 8.56423
8691.89 29.5771 14.8564
8694.56 30.1726 9.19458
8697.24 29.1348 10.1926
8699.91 31.844 6.72033
8702.58 24.7211 7.32263
8705.25 33.1881 9.48496
8707.93 27.7768 12.1317
8710.6 29.1513 14.0698
8713.27 24.1357 11.131
8715.94 28.6117 7.099
8718.61 25.6956 11.7652
8721.28 31.583 13.2845
8723.95 27.6331 7.62808
8726.62 25.9001 9.45959
8729.29 29.708 10.7033
8731.96 29.8481 9.80777
8734.63 27.0695 11.9543
8737.3 27.421 10.5194
8739.97 29.3175 11.5668
8742.64 29.1055 7.86675
8745.31 25.1568 9.30912
8747.98 30.107 10.0874
8750.64 27.5116 10.1255
8753.31 24.3688 4.2836
8755.98 26.4508 8.47772
8758.64 24.9255 -1.97432
8761.31 28.1548 2.83787
8763.98 32.3417 8.47635
8766.64 28.3048 9.06227
8769.31 28.8968 7.47995
8771.98 26.2083 6.73432
8774.64 23.8746 2.80687
8777.31 23.5752 4.16714
8779.97 21.5498 -8.93115
8782.64 26.3641 -9.48608
8785.3 21.8214 1.83763
8787.96 25.5219 7.39712
8790.63 25.4604 4.52276
8793.29 25.3459 3.78516
8795.95 25.5246 7.24028
8798.62 26.3826 7.45119
8801.28 28.1069 7.28315
8803.94 23.2221 3.54391
8806.6 26.2462 4.4168
8809.27 24.1003 7.84313
8811.93 23.771 5.56247
8814.59 26.1 2.58889
8817.25 29.8484 5.36607
8819.91 28.2715 3.96107
8822.57 33.9057 5.0674
8825.23 31.3185 -13.3938
8827.89 29.6551 -12.8379
8830.55 15.2128 -27.8448
8833.21 27.344 -11.2396
8835.87 29.8843 -7.42385
8838.53 21.1809 1.76507
8841.19 23.6516 2.35926
8843.84 25.5851 4.41524
8846.5 31.2505 3.04939
8849.16 33.6907 -1.26896
8851.82 33.2317 -0.659968
8854.47 26.2751 -1.02676
8857.13 27.6966 6.91243
8859.79 27.763 4.52701
8862.44 28.249 -0.568739
8865.1 29.3354 1.39031
8867.75 30.7359 -6.4889
8870.41 27.6439 -6.90999
8873.07 31.5589 -4.78431
8875.72 22.8966 -2.98326
8878.37 29.7671 2.64248
8881.03 26.9321 -5.86001
8883.68 41.7332 -0.7707
8886.34 34.0122 -10.3076
8888.99 31.7718 -20.9687
8891.64 25.3533 -1.33906
8894.3 34.0621 14.3899
8896.95 31.5402 1.45432
8899.6 35.6913 5.00332
8902.25 34.6787 2.66866
8904.9 38.4456 -7.53433
8907.56 31.348 -6.78709
8910.21 24.4083 7.82614
8912.86 27.7667 1.32983
8915.51 23.7141 -0.612308
8918.16 29.7552 -7.08531
8920.81 31.3456 -8.92921
8923.46 40.5473 -17.3509
8926.11 26.8434 3.44478
8928.76 20.0932 11.1946
8931.41 30.8687 7.57237
8934.05 29.239 2.5652
8936.7 28.3686 1.5883
8939.35 31.1126 -0.697857
8942 30.7836 -4.54572
8944.65 25.2288 -0.640008
8947.29 26.1558 -1.32327
8949.94 26.102 -3.84869
8952.59 26.1874 -4.23612
8955.23 24.646 -0.848092
8957.88 27.9699 -2.77055
8960.52 31.631 -3.30505
8963.17 18.3746 1.65359
8965.82 21.2507 1.66514
8968.46 16.944 0.158175
8971.1 27.1052 3.88794
8973.75 23.0474 -2.03294
8976.39 23.894 -0.60121
8979.04 26.2189 -0.617633
8981.68 30.0727 -3.59788
8984.32 27.2716 -4.02091
8986.97 24.8464 -1.52732
8989.61 24.7754 -2.00199
8992.25 27.4826 -0.284199
8994.89 24.3231 -10.709
8997.53 26.7187 -3.44488
9000.18 21.5119 -2.07635
9002.82 26.84 -4.66639
9005.46 28.726 -6.79324
9008.1 27.8952 -2.09654
9010.74 23.4556 -5.79858
9013.38 25.762 -6.12565
9016.02 25.5867 -5.63328
9018.66 27.8806 -2.13316
9021.3 28.1267 -7.45987
9023.94 24.5675 -9.49462
9026.57 30.7037 -8.3306
9029.21 31.9738 -9.52606
9031.85 29.6459 -3.90477
9034.49 27.7479 -4.1214
9037.13 32.1992 -4.56624
9039.76 27.4361 -6.96993
9042.4 26.4965 -3.89553
9045.04 30.142 -9.30731
9047.67 29.4558 -11.5379
9050.31 25.5275 -8.38872
9052.94 24.0009 -11.3409
9055.58 22.008 -12.0486
9058.21 22.9357 -12.8388
9060.85 20.7379 -7.37735
9063.48 27.9475 -11.4553
9066.12 29.1471 -8.8306
9068.75 25.1624 -5.07452
