wavelength spectrum_sum 3smoothed_sum spectrum_optimal 3smoothed_optimal
3511.24 19.22 14.9554 19.8733 11.9962
3514.16 25.6462 26.0095 16.1153 23.6787
3517.08 33.1625 32.1916 35.0476 22.8211
3520 37.766 35.236 17.3005 22.1791
3522.92 34.7795 35.5803 14.1893 23.1878
3525.85 34.1952 34.4031 38.0737 25.2083
3528.77 34.2346 34.5763 23.3618 31.6934
3531.69 35.299 32.6268 33.6448 27.7242
3534.61 28.3469 35.26 26.1659 29.6681
3537.53 42.1342 31.6728 29.1936 30.3484
3540.45 24.5374 39.2676 35.6858 39.8111
3543.37 51.1311 36.675 54.5538 44.0205
3546.29 34.3566 41.9981 41.822 45.7097
3549.21 40.5064 35.757 40.7534 39.9716
3552.13 32.408 38.9571 37.3396 43.8164
3555.05 43.9568 37.8573 53.3562 43.2291
3557.98 37.2071 35.0669 38.9916 41.6275
3560.9 24.0368 28.7604 32.5348 36.7798
3563.82 25.0374 36.1726 38.8131 42.1358
3566.74 59.4437 40.2714 55.0596 45.5132
3569.66 36.3332 39.7645 42.667 39.4714
3572.58 23.5167 29.1252 20.6875 34.4379
3575.5 27.5257 25.928 39.9591 29.001
3578.42 26.7415 31.9974 26.3563 27.9128
3581.34 41.7251 31.8127 17.423 23.2577
3584.26 26.9716 30.1748 25.9937 23.5614
3587.18 21.8276 32.4848 27.2674 30.8239
3590.1 48.6553 41.022 39.2105 44.3299
3593.02 52.583 42.6238 66.5119 47.2551
3595.94 26.6332 38.9254 36.0428 49.3431
3598.86 37.56 36.1018 45.4746 43.9113
3601.78 44.112 38.0739 50.2166 44.7887
3604.71 32.5495 46.4405 38.6749 50.5914
3607.63 62.6599 45.4001 62.8827 46.8942
3610.55 40.9908 49.1766 39.1249 52.3193
3613.47 43.8792 41.9277 54.9503 42.2597
3616.39 40.913 51.6013 32.704 56.0698
3619.31 70.0118 60.8525 80.5552 64.2904
3622.23 71.6328 65.7073 79.612 71.1076
3625.15 55.4772 61.4496 53.1556 68.0578
3628.07 57.2387 61.5889 71.4059 62.7538
3630.99 72.0506 60.3337 63.6999 65.3792
3633.91 51.7118 62.1159 61.0318 66.1164
3636.83 62.5854 64.9484 73.6176 73.2442
3639.75 80.548 74.4746 85.0832 77.0675
3642.67 80.2905 69.3848 72.5017 74.4101
3645.59 47.3158 72.7665 65.6454 73.8764
3648.51 90.6932 73.1496 83.482 77.9601
3651.43 81.4399 90.4974 84.7528 90.2374
3654.35 99.3592 90.143 102.477 95.0257
3657.27 89.6299 90.0066 97.847 95.0496
3660.19 81.0307 78.7957 84.8245 82.459
3663.11 65.7266 80.0393 64.7054 82.1449
3666.03 93.3605 83.7068 96.9047 87.7466
3668.95 92.0334 95.4183 101.63 103.705
3671.87 100.861 88.8528 112.582 94.0262
3674.79 73.664 84.0687 67.8674 86.4065
3677.71 77.6813 72.4938 78.7704 72.5861
3680.63 66.1361 75.3265 71.1203 79.5641
3683.55 82.1621 73.7468 88.8016 77.4833
3686.47 72.9422 85.5231 72.5279 84.121
3689.39 101.465 90.2857 91.0335 81.0044
3692.31 96.4498 103.213 79.4518 92.3096
3695.23 111.723 107.719 106.443 99.1892
3698.15 114.982 108.456 111.672 106.147
3701.07 98.663 105.9 100.324 99.9791
3703.99 104.055 98.3545 87.9411 86.8304
3706.91 92.3453 100.491 72.2259 82.8493
3709.82 105.073 102.173 88.3811 91.2746
3712.74 109.1 102.349 113.217 95.1651
3715.66 92.8743 102.598 83.8975 96.4562
3718.58 105.819 103.332 92.2544 95.3428
3721.5 111.302 98.8188 109.877 101.778
3724.42 79.3357 87.0783 103.204 96.8689
3727.34 70.5972 78.8524 77.5259 89.5639
3730.26 86.6243 75.6541 87.9613 79.6502
3733.18 69.7407 83.298 73.4634 85.8474
3736.1 93.5291 87.1375 96.1175 100.637
3739.02 98.1426 92.1199 132.329 108.779
3741.94 84.6879 90.5464 97.8898 103.254
3744.86 88.8088 85.294 79.5419 88.5357
3747.78 82.3854 89.5799 88.1754 84.7739
3750.7 97.5456 88.7306 86.6046 82.565
3753.61 86.2609 86.9997 72.9152 79.7401
3756.53 77.1926 91.5461 79.7005 87.2453
3759.45 111.185 89.4838 109.12 92.744
3762.37 80.0742 101.693 89.4112 102.209
3765.29 113.821 106.4 108.096 111.957
3768.21 125.305 122.543 138.365 127.144
3771.13 128.502 130.826 134.97 137.803
3774.05 138.671 134.543 140.074 143.869
3776.97 136.457 140.278 156.564 146.983
3779.89 145.705 138.806 144.31 152.153
3782.8 134.257 123.191 155.584 142.709
3785.72 89.6124 119.241 128.232 143.984
3788.64 133.855 116.067 148.136 138.492
3791.56 124.734 123.79 139.108 140.997
3794.48 112.781 121.607 135.745 136.205
3797.4 127.305 117.697 133.761 133.43
3800.32 113.006 123.332 130.785 136.876
3803.23 129.685 107.755 146.081 125.239
3806.15 80.5729 108.316 98.8501 130.19
3809.07 114.691 92.8667 145.638 109.654
3811.99 83.336 116.952 84.4736 136.61
3814.91 152.828 105.722 179.719 123.531
3817.83 81.0028 111.945 106.401 141.819
3820.75 102.004 90.5045 139.336 116.508
3823.66 88.5072 101.218 103.788 123.675
3826.58 113.142 96.4035 127.902 103.581
3829.5 87.5616 99.5615 79.052 104.965
3832.42 97.9811 87.9838 107.941 90.0322
3835.34 78.4086 86.5893 83.1035 96.9087
3838.26 83.3783 79.4858 99.6812 89.2147
3841.17 76.6706 74.7823 84.8594 88.6817
3844.09 64.2981 73.684 81.5044 94.14
3847.01 80.0834 86.2492 116.056 110.417
3849.93 114.366 90.4831 133.69 115.006
3852.85 77 88.6925 95.271 107.661
3855.76 74.7115 72.0279 94.0212 94.0431
3858.68 64.3723 77.3504 92.837 108.261
3861.6 92.9674 81.228 137.925 107.297
3864.52 86.3444 90.378 91.1279 113.888
3867.44 91.8222 74.3388 112.61 95.1096
3870.35 44.8498 75.127 81.5908 112.397
3873.27 88.7089 76.5601 142.989 127.198
3876.19 96.1217 87.9095 157.014 137.383
3879.11 78.898 88.4415 112.146 133.231
3882.03 90.3048 89.2757 130.532 125.971
3884.94 98.6243 98.0116 135.233 133.194
3887.86 105.106 117.692 133.818 145.2
3890.78 149.344 131.684 166.548 159.431
3893.7 140.603 147.915 177.927 175.351
3896.61 153.798 152.046 181.579 184.727
3899.53 161.738 154.387 194.675 184.536
3902.45 147.627 165.972 177.355 202.504
3905.37 188.553 166.889 235.483 215.46
3908.28 164.488 176.572 233.54 228.636
3911.2 176.675 169.781 216.885 226.631
3914.12 168.178 158.868 229.467 216.318
3917.04 131.752 145.511 202.601 223.318
3919.95 136.602 131.606 237.884 213.288
3922.87 126.463 119.989 199.377 200.22
3925.79 96.9029 112.051 163.398 171.928
3928.7 112.786 101.973 153.008 151.742
3931.62 96.2311 95.5925 138.818 126.506
3934.54 77.7603 88.1531 87.6905 106.443
3937.46 90.468 101.277 92.8211 120.874
3940.37 135.601 118.119 182.111 155.035
3943.29 128.289 136.964 190.172 196.019
3946.21 147.001 145.081 215.773 210.26
3949.12 159.952 158.939 224.837 234.068
3952.04 169.866 161.215 261.593 240.424
3954.96 153.826 161.058 234.842 238.563
3957.87 159.481 153.292 219.252 228.385
3960.79 146.569 133.002 231.06 196.326
3963.71 92.9552 110.242 138.667 159.147
3966.62 91.203 106.629 107.713 133.668
3969.54 135.728 128.19 154.624 150.412
3972.46 157.64 160.482 188.898 194.875
3975.37 188.078 172.354 241.104 214.431
3978.29 171.343 185.969 213.289 233.862
3981.21 198.486 187.818 247.191 239.838
3984.12 193.625 208.874 259.033 270.178
3987.04 234.51 220.988 304.311 294.946
3989.96 234.828 246.425 321.495 333.069
3992.87 269.935 243.199 373.4 337.502
3995.79 224.834 252.593 317.61 337.054
3998.71 263.009 254.087 320.151 326.908
4001.62 274.417 261.932 342.962 335.201
4004.54 248.371 269.261 342.491 355.269
4007.46 284.995 275.786 380.355 365.61
4010.37 293.991 280.32 373.984 366.487
4013.29 261.975 266.677 345.123 356.573
4016.2 244.066 264.634 350.611 358.401
4019.12 287.861 274.004 379.47 377.082
4022.04 290.084 291.32 401.164 385.967
4024.95 296.016 292.092 377.266 389.736
4027.87 290.175 288.005 390.778 382.294
4030.78 277.823 281.844 378.836 390.484
4033.7 277.535 281.748 401.838 399.891
4036.61 289.886 284.443 418.997 405.163
4039.53 285.908 299.853 394.653 424.599
4042.45 323.764 301.167 460.148 421.837
4045.36 293.827 312.372 410.711 436.443
4048.28 319.524 293.377 438.47 405.673
4051.19 266.779 294.098 367.838 408.251
4054.11 295.99 271.244 418.446 375.879
4057.02 250.964 262.61 341.353 362.813
4059.94 240.876 267.912 328.64 360.603
4062.86 311.895 272.356 411.815 365.139
4065.77 264.296 265.361 354.963 361.009
4068.69 219.893 262.302 316.25 363.403
4071.6 302.718 287.972 418.996 401.484
4074.52 341.303 324.343 469.205 447.392
4077.43 329.008 328.615 453.973 448.637
4080.35 315.535 338.01 422.733 453.865
4083.26 369.489 336.268 484.889 460.026
4086.18 323.78 335.297 472.456 470.155
4089.09 312.622 325.244 453.12 471.585
4092.01 339.331 317.092 489.179 450.614
4094.92 299.324 324.415 409.543 455.035
4097.84 334.59 320.139 466.383 449.919
4100.75 326.502 322.033 473.83 440.343
4103.67 305.008 324.33 380.817 441.755
4106.58 341.48 330.642 470.617 433.48
4109.5 345.438 359.238 449.005 476.692
4112.41 390.797 356.562 510.454 473.943
4115.33 333.452 356.395 462.37 479.983
4118.24 344.937 336.033 467.126 454.963
4121.16 329.71 347.339 435.393 464.949
4124.07 367.369 362.398 492.327 485.482
4126.99 390.116 363.704 528.726 504.764
4129.9 333.628 366.872 493.237 510.898
4132.81 376.873 363.746 510.729 506.201
4135.73 380.738 373.285 514.637 504.243
4138.64 362.245 363.386 487.363 490.343
4141.56 347.174 365.202 469.029 490.782
4144.47 386.187 361.223 515.954 492.321
4147.39 350.308 349.983 491.981 483.722
4150.3 313.455 333.941 443.231 475.177
4153.21 338.059 322.789 490.32 461.378
4156.13 316.854 351.106 450.583 499.527
4159.04 398.406 362.955 557.676 517.895
4161.96 373.605 369.521 545.425 524.781
4164.87 336.552 353.846 471.24 513.227
4167.78 351.38 350.882 523.014 503.393
4170.7 364.712 352.25 515.923 497.868
4173.61 340.658 358.593 454.667 493.159
4176.53 370.409 368.824 508.885 504.022
4179.44 395.405 376.47 548.514 520.702
4182.35 363.596 383.832 504.708 527.931
4185.27 392.494 386.772 530.572 528.239
4188.18 404.225 375.497 549.437 529.31
4191.09 329.772 357.881 507.921 522.007
4194.01 339.647 337.332 508.663 499.931
4196.92 342.576 342.924 483.208 490.373
4199.83 346.549 368.967 479.249 515.811
4202.75 417.777 378.87 584.976 527.446
4205.66 372.285 393.028 518.112 551.516
4208.57 389.022 387.776 551.459 557.097
4211.49 402.022 396.284 601.721 569.556
4214.4 397.807 415.434 555.487 600.268
4217.31 446.472 426.385 643.596 602.98
4220.23 434.876 422.424 609.857 602.909
4223.14 385.924 411.342 555.274 570.488
4226.05 413.226 406.957 546.332 561.338
4228.97 421.721 413.19 582.408 566.049
4231.88 404.622 420.299 569.405 583.19
4234.79 434.554 427.572 597.756 590.759
4237.71 443.54 438.574 605.118 595.286
4240.62 437.628 445.85 582.985 602.367
4243.53 456.381 417.624 618.999 578.797
4246.44 358.862 425.035 534.407 593.062
4249.36 459.862 403.633 625.781 579.858
4252.27 392.173 411.448 579.385 582.816
4255.18 382.309 414.485 543.282 584.597
4258.09 468.974 427.121 631.123 600.38
4261.01 430.08 450.186 626.736 634.662
4263.92 451.503 431.072 646.128 621.378
4266.83 411.632 430.904 591.269 622.614
4269.74 429.577 429.811 630.444 615.302
4272.66 448.224 447.197 624.193 644.334
4275.57 463.791 441.93 678.365 630.75
4278.48 413.776 434.682 589.692 627.165
4281.39 426.48 420.341 613.438 592.571
4284.3 420.767 411.244 574.582 583.916
4287.22 386.484 408.281 563.728 578.944
4290.13 417.594 408.051 598.523 573.192
4293.04 420.075 400.426 557.324 563.469
4295.95 363.609 386.325 534.561 543.149
4298.86 375.292 361.853 537.563 524.316
4301.78 346.658 353.681 500.825 504.188
4304.69 339.093 330.249 474.177 474.04
4307.6 304.997 346.307 447.117 481.332
4310.51 394.831 385.423 522.703 536.128
4313.42 456.442 436.83 638.564 605.919
4316.33 459.217 452.056 656.488 635.939
4319.25 440.509 442.971 612.765 618.389
4322.16 429.187 458.103 585.913 627.394
4325.07 504.613 482.391 683.503 666.145
4327.98 513.372 538.981 729.018 754.929
4330.89 598.959 544.64 852.265 782.065
4333.8 521.59 523.143 764.911 759.932
4336.71 448.881 482.716 662.619 694.293
4339.62 477.678 481.599 655.35 680.475
4342.54 518.239 517.702 723.456 708.183
4345.45 557.19 544.562 745.743 744.594
4348.36 558.257 555.023 764.583 752.272
4351.27 549.621 536.911 746.491 745.872
4354.18 502.854 530.339 726.541 746.106
4357.09 538.543 525.769 765.286 742.862
4360 535.911 537.47 736.759 767.534
4362.91 537.957 527.122 800.556 754.946
4365.82 507.498 537.59 727.523 776.954
4368.73 567.315 530.813 802.784 759.371
4371.64 517.626 547.987 747.806 781.452
4374.55 559.018 550.175 793.767 790.023
4377.46 573.882 537.73 828.497 766.178
4380.38 480.289 525.187 676.271 746.116
4383.29 521.389 499.807 733.581 715.692
4386.2 497.742 526.45 737.224 754.389
4389.11 560.22 537.069 792.361 764.091
4392.02 553.244 533.191 762.689 754.672
4394.93 486.11 516.984 708.967 734.95
4397.84 511.597 512.733 733.195 729.564
4400.75 540.491 532.251 746.53 746.426
4403.66 544.665 536.413 759.555 756.43
4406.57 524.083 556.364 763.204 780.707
4409.48 600.344 567.367 819.362 790.601
4412.39 577.675 599.743 789.237 828.992
4415.3 621.21 611.58 878.377 854.294
4418.21 635.856 623.048 895.266 876.093
4421.12 612.08 596.109 854.636 840.649
4424.02 540.39 585.347 772.045 839.352
4426.93 603.57 572.422 891.377 835.927
4429.84 573.307 593.718 844.36 865.21
4432.75 604.277 601.966 859.894 879.64
4435.66 628.314 613.123 934.666 883.526
4438.57 606.777 615.206 856.018 895.717
4441.48 610.527 622.054 896.467 897.473
4444.39 648.859 639.649 939.934 933.824
4447.3 659.562 637.161 965.071 931.329
4450.21 603.063 628.655 888.982 921.193
4453.12 623.339 613.721 909.526 903.847
4456.03 614.761 608.54 913.034 890.287
4458.94 587.52 611.782 848.301 886.205
4461.84 633.064 621.342 897.281 899.366
4464.75 643.442 649.476 952.515 933.475
4467.66 671.921 642.349 950.628 933.932
4470.57 611.684 660.547 898.651 944.429
4473.48 698.037 647.549 984.008 943.437
4476.39 632.925 668.599 947.651 963.929
4479.3 674.834 687.277 960.129 983.655
4482.21 754.073 700.454 1043.18 1002.22
4485.11 672.455 709.788 1003.35 1024.83
4488.02 702.837 676.159 1027.94 997.645
4490.93 653.184 674.865 961.641 991.279
4493.84 668.573 693.337 984.255 1017.33
4496.75 758.255 709.359 1106.1 1041.7
4499.66 701.249 732.981 1034.74 1066.66
4502.56 739.441 723.651 1059.14 1062.5
4505.47 730.263 735.718 1093.62 1069.31
4508.38 737.451 739.86 1055.19 1083.62
4511.29 751.867 748.667 1102.06 1089.07
4514.2 756.684 758.252 1109.96 1116.51
4517.1 766.204 750.935 1137.53 1116.54
4520.01 729.918 743.437 1102.13 1098.58
4522.92 734.188 713.751 1056.08 1055.5
4525.83 677.147 714.753 1008.3 1040.71
4528.73 732.924 697.64 1057.75 1030.2
4531.64 682.847 707.004 1024.56 1050.14
4534.55 705.24 712.469 1068.1 1055.95
4537.46 749.32 711.794 1075.19 1047.41
4540.36 680.823 725.631 998.952 1057.38
4543.27 746.75 712.474 1098 1047.93
4546.18 709.848 751.5 1046.83 1093.78
4549.09 797.901 766.565 1136.51 1107
4551.99 791.947 799.71 1137.67 1145.36
4554.9 809.283 786.284 1161.91 1133.56
4557.81 757.621 791.227 1101.1 1148.17
4560.71 806.777 774.637 1181.51 1137.92
4563.62 759.512 800.008 1131.16 1177.04
4566.53 833.736 795.859 1218.47 1175.11
4569.43 794.328 798.097 1175.7 1189.59
4572.34 766.226 778.48 1174.59 1168.62
4575.25 774.885 755.097 1155.57 1133.54
4578.15 724.179 756.64 1070.46 1127.19
4581.06 770.854 744.644 1155.53 1114.9
4583.97 738.899 753.934 1118.71 1136.5
4586.87 752.049 771.49 1135.27 1158.03
4589.78 823.521 774.253 1220.11 1157.84
4592.69 747.188 766.949 1118.14 1153.78
4595.59 730.139 758.566 1123.09 1147.32
4598.5 798.371 761.028 1200.75 1149.24
4601.4 754.574 791.856 1123.9 1175.46
4604.31 822.624 784.436 1201.72 1168.04
4607.22 776.109 807.201 1178.5 1197.57
4610.12 822.869 802.517 1212.48 1198.57
4613.03 808.572 812.873 1204.73 1204.98
4615.93 807.178 807.436 1197.72 1201.2
4618.84 806.557 819.447 1201.14 1208.78
4621.75 844.604 836.496 1227.48 1239.73
4624.65 858.327 852.926 1290.57 1274.39
4627.56 855.848 830.363 1305.13 1253.54
4630.46 776.914 836.749 1164.92 1251.26
4633.37 877.484 817.881 1283.74 1211.14
4636.27 799.245 830.825 1184.75 1235.95
4639.18 815.746 822.498 1239.36 1235.78
4642.08 852.505 830.167 1283.22 1251.06
4644.99 822.25 825.311 1230.6 1242.47
4647.89 801.178 810.165 1213.6 1218.26
4650.8 807.066 814.647 1210.57 1229.54
4653.7 835.697 825.729 1264.45 1242.88
4656.61 834.422 823.652 1253.61 1242.41
4659.51 800.836 787.538 1209.16 1194.64
4662.42 727.355 773.154 1121.14 1176.02
4665.32 791.272 757.639 1197.75 1147.07
4668.23 754.291 770.516 1122.32 1165.34
4671.13 765.985 778.202 1175.95 1171.58
4674.04 814.331 790.614 1216.48 1195.36
4676.94 791.527 821.388 1193.66 1227.62
4679.85 858.308 812.577 1272.73 1213.55
4682.75 787.897 821.38 1174.26 1227.92
4685.65 817.937 805.064 1236.78 1207.05
4688.56 809.358 808.468 1210.12 1211.61
4691.46 798.108 819.634 1187.92 1216.83
4694.37 851.437 777.849 1252.45 1174.93
4697.27 684.001 794.613 1084.41 1213.89
4700.17 848.401 766.023 1304.79 1187.92
4703.08 765.668 817.729 1174.55 1248.21
4705.98 839.117 796.919 1265.3 1203.53
4708.89 785.97 807.366 1170.76 1211.4
4711.79 797.011 781.148 1198.14 1170.45
4714.69 760.462 822.253 1142.44 1239.44
4717.6 909.285 868.67 1377.73 1293.62
4720.5 936.263 907.923 1360.68 1355.72
4723.4 878.221 884.861 1328.74 1321.58
4726.31 840.099 841.227 1275.32 1275.26
4729.21 805.361 846.677 1221.71 1275.86
4732.11 894.571 867.18 1330.56 1302.09
4735.02 901.607 881.295 1354 1326.88
4737.92 847.707 877.516 1296.09 1322.92
4740.82 883.233 887.138 1318.65 1330.42
4743.73 930.473 905.113 1376.51 1352.18
4746.63 901.632 906.085 1361.36 1356.42
4749.53 886.151 877.487 1331.38 1321.26
4752.43 844.679 856.183 1271.02 1291.85
4755.34 837.718 857.307 1273.14 1296.21
4758.24 889.524 873.73 1344.48 1325.17
4761.14 893.95 882.098 1357.88 1337.13
4764.04 862.821 871.624 1309.03 1325.12
4766.95 858.103 841.14 1308.45 1283.6
4769.85 802.495 872.268 1233.33 1316.08
4772.75 956.208 892.588 1406.47 1354.97
4775.65 919.06 939.771 1425.11 1430.16
4778.56 944.044 921.619 1458.91 1420.85
4781.46 901.753 912.454 1378.52 1398.19
4784.36 891.566 905.943 1357.14 1384.81
4787.26 924.509 924.358 1418.78 1398.8
4790.16 956.999 948.889 1420.49 1422.62
4793.07 965.159 965.217 1428.6 1423.15
4795.97 973.493 970.225 1420.37 1426.83
4798.87 972.024 943.631 1431.52 1404.57
4801.77 885.376 897.949 1361.82 1358.59
4804.67 836.447 872.088 1282.44 1340.73
4807.57 894.441 895.015 1377.94 1363.3
4810.47 954.156 915.863 1429.53 1390.03
4813.38 898.993 938.871 1362.62 1416.79
4816.28 963.463 936.353 1458.22 1425.78
4819.18 946.602 947.958 1456.49 1441.7
4822.08 933.809 965.395 1410.38 1462.47
4824.98 1015.78 940.605 1520.54 1436.04
4827.88 872.231 928.78 1377.21 1426.14
4830.78 898.332 897.328 1380.67 1384.9
4833.68 921.42 923.208 1396.81 1407.43
4836.58 949.871 932.829 1444.81 1417.98
4839.48 927.197 930.25 1412.31 1415.18
4842.38 913.681 925.868 1388.41 1404.68
4845.29 936.727 935.344 1413.31 1414.1
4848.19 955.623 910.786 1440.57 1381.41
4851.09 840.007 864.247 1290.35 1332.31
4853.99 797.111 794.852 1266.01 1244.61
4856.89 747.439 772.257 1177.48 1212.47
4859.79 772.219 768.469 1193.93 1191
4862.69 785.747 799.285 1201.58 1227.65
4865.59 839.889 809.531 1287.45 1237.93
4868.49 802.958 810.431 1224.77 1247.96
4871.39 788.446 808.457 1231.67 1228.66
4874.29 833.966 847.507 1229.55 1278.47
4877.19 920.109 874.685 1374.18 1306.53
4880.09 869.98 895.813 1315.86 1340.15
4882.99 897.349 892.837 1330.42 1350.55
4885.89 911.181 882.126 1405.37 1340.52
4888.78 837.85 883.266 1285.77 1361.15
4891.68 900.769 882.089 1392.3 1354.48
4894.58 907.647 902.775 1385.36 1393.29
4897.48 899.908 920.609 1402.21 1410.02
4900.38 954.272 923.001 1442.51 1407.91
4903.28 914.822 950.152 1379.03 1432.52
4906.18 981.362 961.497 1476.01 1443.56
4909.08 988.308 955.432 1475.64 1448.56
4911.98 896.626 942.138 1394.01 1438.67
4914.88 941.479 890.2 1446.36 1383.21
4917.78 832.495 883.372 1309.25 1362.74
4920.67 876.142 869.73 1332.6 1346.53
4923.57 900.553 912.128 1397.73 1399.95
4926.47 959.689 924.052 1469.52 1422.16
4929.37 911.913 945.206 1399.21 1448.25
4932.27 964.015 925.235 1476.02 1420.62
4935.17 899.778 943.776 1386.63 1444.81
4938.06 967.534 922.487 1471.77 1416.47
4940.96 900.149 957.021 1391 1454.77
4943.86 1003.38 963.136 1501.55 1459.39
4946.76 985.878 996.122 1485.62 1496.07
4949.66 999.108 991.019 1501.06 1490.65
4952.55 988.071 980.625 1485.28 1479.94
4955.45 954.698 990.674 1453.48 1478.3
4958.35 1029.25 989.567 1496.12 1497.13
4961.25 984.751 1002.83 1541.78 1517.55
4964.14 994.488 975.904 1514.74 1499.55
4967.04 948.473 977.653 1442.13 1498.62
4969.94 989.999 995.177 1538.98 1531.37
4972.84 1047.06 1023.13 1612.99 1572.17
4975.73 1032.34 1014.28 1564.53 1541.16
4978.63 963.457 991.312 1445.95 1494.27
4981.53 978.142 969.329 1472.33 1470.49
4984.42 966.388 996.351 1493.2 1515.84
4987.32 1044.52 996.828 1582.01 1526.79
4990.22 979.572 1016.87 1505.16 1531.76
4993.12 1026.5 993.623 1508.12 1494.58
4996.01 974.797 1015.76 1470.46 1499.78
4998.91 1045.99 1013.89 1520.78 1509.35
5001.8 1020.88 1013.97 1536.8 1496.81
5004.7 975.042 986.95 1432.84 1487.06
5007.6 964.927 964.308 1491.55 1468.2
5010.49 952.955 940.996 1480.22 1443.08
5013.39 905.106 922.76 1357.47 1408.16
5016.29 910.218 932.759 1386.77 1404.7
5019.18 982.953 955.016 1469.87 1442.45
5022.08 971.878 943.669 1470.7 1432.26
5024.97 876.175 964.46 1356.22 1461.24
5027.87 1045.33 951.473 1556.81 1436.63
5030.77 932.92 992.301 1396.84 1487.38
5033.66 998.657 960.208 1508.49 1434.14
5036.56 949.047 962.96 1397.09 1441.55
5039.45 941.176 942.677 1419.07 1416.51
5042.35 937.808 972.925 1433.36 1458.72
5045.24 1039.79 982.813 1523.71 1474.35
5048.14 970.838 1010.06 1465.97 1503.82
5051.03 1019.55 1013.38 1521.76 1540.77
5053.93 1049.75 1013.6 1634.57 1554.72
5056.82 971.507 1012.26 1507.83 1565.08
5059.72 1015.54 998.755 1552.84 1536.32
5062.61 1009.22 1011.76 1548.29 1532.45
5065.51 1010.52 1031.7 1496.21 1544.23
5068.4 1075.35 1053.94 1588.18 1550.48
5071.3 1075.94 1072.77 1567.04 1580.91
5074.19 1067.02 1043.06 1587.5 1564.46
5077.09 986.222 1029.28 1538.85 1558.37
5079.98 1034.6 1013.73 1548.76 1564.58
5082.88 1020.39 1014.77 1606.11 1548.95
5085.77 989.319 1031.27 1491.98 1574.95
5088.66 1084.11 1068.35 1626.76 1606.3
5091.56 1131.62 1084.83 1700.17 1650.99
5094.45 1038.76 1036.22 1626.05 1585.83
5097.35 938.27 1001.2 1431.28 1557.26
5100.24 1026.56 1005.44 1614.46 1541.64
5103.13 1051.5 1014.86 1579.17 1570.26
5106.03 966.521 998.736 1517.14 1525.15
5108.92 978.189 1004.95 1479.14 1537.26
5111.81 1070.14 1024.33 1615.48 1564.76
5114.71 1024.67 1045.33 1599.65 1608.85
5117.6 1041.18 1030.83 1611.41 1590.91
5120.49 1026.64 1030.65 1561.67 1590.86
5123.39 1024.15 1025.95 1599.5 1570.99
5126.28 1027.07 1017.79 1551.79 1569.77
5129.17 1002.16 1022.63 1558.02 1571.58
5132.07 1038.64 1008.61 1604.95 1556.25
5134.96 985.031 1013.97 1505.8 1561.35
5137.85 1018.23 1009.43 1573.3 1547.86
5140.74 1025.04 1023.59 1564.49 1583.98
5143.64 1027.51 1006.21 1614.16 1564.58
5146.53 966.088 970.866 1515.09 1537.23
5149.42 919.001 963.284 1482.43 1521.91
5152.31 1004.76 994.608 1568.22 1559.9
5155.21 1060.06 1061.91 1629.05 1631.85
5158.1 1120.91 1030.41 1698.29 1586.56
5160.99 910.249 972.31 1432.36 1508.35
5163.88 885.77 872.191 1394.39 1375.86
5166.77 820.553 840.964 1300.82 1323.77
5169.66 816.568 853.883 1276.11 1334.3
5172.56 924.527 905.477 1425.96 1402.04
5175.45 975.335 950.846 1504.03 1474.4
5178.34 952.675 939.86 1493.22 1457.5
5181.23 891.571 936.698 1375.24 1457.67
5184.12 965.847 946.527 1504.56 1463.42
5187.01 982.163 973.316 1510.46 1500.8
5189.91 971.938 988.574 1487.39 1524.18
5192.8 1011.62 1002.73 1574.68 1550.75
5195.69 1024.64 1052.91 1590.2 1615.2
5198.58 1122.47 1084.09 1680.74 1643.9
5201.47 1105.17 1104.37 1660.77 1670.07
5204.36 1085.46 1066.03 1668.71 1628.48
5207.25 1007.45 1036.43 1555.95 1617.92
5210.14 1016.39 1031.2 1629.09 1623.69
5213.03 1069.75 1066.23 1686.04 1690.49
5215.92 1112.56 1101.43 1756.34 1720.22
5218.81 1121.97 1099.17 1718.27 1725.87
5221.7 1062.97 1058.08 1702.98 1663.49
5224.59 989.297 942.753 1569.22 1632.45
5227.48 775.992 869.454 1625.13 1608.01
5230.37 843.073 814.146 1629.67 1630.09
5233.26 823.374 839.882 1635.47 1635.31
5236.15 853.199 862.072 1640.78 1678.32
5239.04 909.643 891.786 1758.73 1730.52
5241.93 912.515 882.806 1792.05 1739.32
5244.82 826.26 850.251 1667.19 1708.8
5247.71 811.978 842.462 1667.15 1693.61
5250.6 889.147 836.52 1746.49 1698.7
5253.49 808.433 873.292 1682.45 1747.84
5256.38 922.297 865.946 1814.58 1741.49
5259.27 867.109 855.786 1727.44 1703.3
5262.16 777.952 796.411 1567.89 1598.9
5265.05 744.173 769.765 1501.37 1537.74
5267.93 787.171 786.019 1543.97 1538.4
5270.82 826.711 808.467 1569.87 1586.48
5273.71 811.517 827.108 1645.6 1618.12
5276.6 843.096 819.985 1638.88 1661.48
5279.49 805.342 834.798 1699.96 1664.95
5282.38 855.956 845.642 1656.02 1682.76
5285.27 875.627 903.92 1692.29 1728.55
5288.15 980.178 921.816 1837.33 1766.21
5291.04 909.643 934.363 1769 1805.89
5293.93 913.27 893.176 1811.33 1759.4
5296.82 856.616 877.259 1697.86 1737.95
5299.71 861.892 881.524 1704.67 1729.47
5302.59 926.066 929.253 1785.88 1799.84
5305.48 999.802 966.817 1908.98 1865.49
5308.37 974.583 966.078 1901.6 1877.41
5311.26 923.85 949.748 1821.66 1851.13
5314.14 950.812 919.563 1830.14 1810.14
5317.03 884.029 886.893 1778.63 1769.36
5319.92 825.838 871.683 1699.31 1755.67
5322.8 905.183 869.295 1789.07 1733.12
5325.69 876.863 880.089 1710.98 1720.26
5328.58 858.221 870.255 1660.73 1684.85
5331.47 875.682 874.106 1682.85 1707.67
5334.35 888.416 896.507 1779.43 1739.38
5337.24 925.425 905.336 1755.85 1751.63
5340.13 902.168 901.518 1719.6 1725.01
5343.01 876.96 917.756 1699.59 1752.97
5345.9 974.14 933.452 1839.72 1783.06
5348.78 949.257 971.628 1809.87 1830.64
5351.67 991.487 993.601 1842.34 1867.93
5354.56 1040.06 999.2 1951.6 1900.23
5357.44 966.053 975.378 1906.75 1877.32
5360.33 920.022 935.552 1773.6 1827.45
5363.21 920.58 925.038 1801.99 1779.08
5366.1 934.511 923.921 1761.64 1785.6
5368.99 916.673 945.03 1793.17 1796.96
5371.87 983.907 947.256 1836.06 1808.79
5374.76 941.188 974.828 1797.15 1835.43
5377.64 999.389 967.899 1873.08 1833.43
5380.53 963.12 992.316 1830.07 1861.48
5383.41 1014.44 977.449 1881.29 1865.7
5386.3 954.79 980.419 1885.75 1874.92
5389.18 972.03 936.599 1857.74 1833.78
5392.07 882.978 906.339 1757.86 1763.73
5394.95 864.009 893.21 1675.6 1735.66
5397.84 932.643 881.121 1773.52 1706.31
5400.72 846.71 868.058 1669.8 1693.18
5403.61 824.819 858.258 1636.21 1681.36
5406.49 903.245 882.267 1738.06 1686.68
5409.37 918.737 921.083 1685.77 1756.04
5412.26 941.268 944.833 1844.3 1780.39
5415.14 974.494 931.753 1811.11 1782.67
5418.03 879.498 919.465 1692.6 1753.53
5420.91 904.405 898.276 1756.89 1737.42
5423.79 910.924 905.987 1762.77 1759.82
5426.68 902.632 897.083 1759.81 1743.13
5429.56 877.691 902.178 1706.81 1745
5432.45 926.212 922.585 1768.38 1766.78
5435.33 963.851 973.93 1825.14 1833.29
5438.21 1031.73 990.782 1906.34 1857.84
5441.1 976.771 976.76 1842.05 1834.39
5443.98 921.785 979.76 1754.78 1839.61
5446.86 1040.73 985.856 1921.99 1851.32
5449.74 995.057 1004.02 1877.18 1880.94
5452.63 976.289 974.768 1843.65 1844.67
5455.51 952.958 975.636 1813.18 1840.64
5458.39 997.66 945.03 1865.1 1807.55
5461.28 884.473 955.662 1744.36 1822.84
5464.16 984.854 965.523 1859.07 1839.25
5467.04 1027.24 977.035 1914.32 1845.26
5469.92 919.01 977.623 1762.38 1827.09
5472.8 986.618 970.407 1804.58 1800.28
5475.69 1005.59 1003.04 1833.88 1839.05
5478.57 1016.91 1014.64 1878.68 1869.15
5481.45 1021.41 1004.03 1894.89 1877.68
5484.33 973.757 980.18 1859.47 1863.05
5487.21 945.373 981.192 1834.8 1870.73
5490.1 1024.45 1010.42 1917.91 1891.32
5492.98 1061.45 1021.06 1921.25 1899.8
5495.86 977.277 1015.19 1860.26 1889.73
5498.74 1006.84 987.891 1887.67 1867.41
5501.62 979.551 998.842 1854.3 1880.5
5504.5 1010.13 992.654 1899.52 1883.8
5507.38 988.28 993.349 1897.57 1867.41
5510.26 981.636 991.995 1805.12 1850.33
5513.14 1006.07 1000.73 1848.29 1842.98
5516.02 1014.48 1050.82 1875.53 1912.74
5518.91 1131.91 1056.98 2014.38 1918.49
5521.79 1024.55 1053.21 1865.55 1904.02
5524.67 1003.18 1022.78 1832.15 1852.27
5527.55 1040.62 1002.55 1859.1 1844.13
5530.43 963.846 1021.06 1841.14 1865.98
5533.31 1058.71 1008.83 1897.69 1867.2
5536.19 1003.95 1041.19 1862.78 1901.97
5539.07 1060.9 1019.74 1945.43 1893.28
5541.95 994.365 1043.01 1871.64 1923.67
5544.83 1073.77 1033.78 1953.93 1909.91
5547.71 1033.21 1059.44 1904.16 1957.95
5550.59 1071.33 1037.93 2015.77 1925.26
5553.46 1009.24 1026.64 1855.85 1897.1
5556.34 999.342 1015.85 1819.69 1868.28
5559.22 1038.96 1001.87 1929.31 1839.07
5562.1 967.32 993.016 1768.2 1844.82
5564.98 972.772 965.649 1836.95 1784.59
5567.86 956.855 991.094 1748.62 1838.13
5570.74 1043.65 1030.05 1928.83 1844.64
5573.62 1089.65 1049.39 1856.48 1888.3
5576.5 1014.88 1025.96 1879.59 1838.62
5579.37 973.355 995.659 1779.8 1821.26
5582.25 998.746 969.291 1804.39 1786.51
5585.13 935.772 959.003 1775.35 1751.59
5588.01 942.49 960.107 1675.03 1745.27
5590.89 1002.06 965.081 1785.42 1746.45
5593.76 950.695 989.382 1778.9 1799.82
5596.64 1015.39 994.217 1835.14 1789.65
5599.52 1016.57 1012.96 1754.9 1807.19
5602.4 1006.92 1026.56 1831.52 1812.83
5605.28 1056.2 1017.45 1852.07 1831.19
5608.15 989.24 1035.72 1809.99 1848.66
5611.03 1061.72 1024.46 1883.92 1849.38
5613.91 1022.42 1032.89 1854.22 1846.82
5616.78 1014.52 1021.25 1802.34 1835.82
5619.66 1026.82 986.373 1850.91 1790.04
5622.54 917.782 1024.15 1716.87 1840.83
5625.41 1127.84 1013.73 1954.7 1836.62
5628.29 995.577 1062.98 1838.29 1888.27
5631.17 1065.51 1044.46 1871.8 1879.86
5634.04 1072.3 1069.64 1929.48 1902.2
5636.92 1071.12 1072.29 1905.32 1912.53
5639.8 1073.45 1073.64 1902.79 1900.5
5642.67 1076.36 1068.19 1893.4 1884.16
5645.55 1054.76 1088.73 1856.28 1898.09
5648.43 1135.08 1059.87 1944.6 1867.37
5651.3 989.779 1038.78 1801.22 1843.91
5654.18 991.492 967.754 1785.91 1753.52
5657.05 921.991 963.547 1673.41 1746.84
5659.93 977.158 978.569 1781.18 1751.73
5662.8 1036.56 1012.79 1800.6 1803.12
5665.68 1024.64 1023.22 1827.58 1803.68
5668.55 1008.46 1028.26 1782.86 1821.44
5671.43 1051.69 1035.6 1853.87 1825.44
5674.3 1046.64 1075.85 1839.6 1881.68
5677.18 1129.24 1081.34 1951.55 1898.5
5680.05 1068.15 1100.06 1904.35 1909.91
5682.93 1102.8 1072.6 1873.82 1885.41
5685.8 1046.87 1064 1878.04 1864.13
5688.68 1042.33 1058.52 1840.53 1866.23
5691.55 1086.36 1046.68 1880.11 1848.08
5694.43 1011.35 1052.24 1823.61 1852.86
5697.3 1059 1040.27 1854.86 1844.11
5700.17 1050.44 1050.3 1853.86 1841.37
5703.05 1041.47 1049.46 1815.39 1836.16
5705.92 1056.49 1008.42 1839.23 1781.44
5708.79 927.322 998.757 1689.71 1776.12
5711.67 1012.46 982.047 1799.42 1745.93
5714.54 1006.35 1050.57 1748.66 1813.26
5717.41 1132.88 1067.58 1891.69 1824.18
5720.29 1063.5 1084.07 1832.17 1850.57
5723.16 1055.83 1065.02 1827.84 1830.68
5726.03 1075.73 1053.8 1832.02 1820.22
5728.91 1029.84 1075.94 1800.79 1863.38
5731.78 1122.25 1084.4 1957.34 1883.96
5734.65 1101.11 1123.82 1893.77 1905.13
5737.53 1148.09 1105.47 1864.27 1858.84
5740.4 1067.2 1103.21 1818.48 1831.45
5743.27 1094.36 1068.34 1811.59 1815.74
5746.14 1043.46 1059.77 1817.15 1806.29
5749.01 1041.49 1042.7 1790.12 1813.19
5751.89 1043.15 1046.96 1832.31 1813.8
5754.76 1056.22 1048.34 1818.96 1807.37
5757.63 1045.63 1033.88 1770.84 1765.32
5760.5 999.784 1039.02 1706.16 1769.42
5763.37 1071.64 1024.62 1831.27 1757.81
5766.24 1002.42 1065.89 1736.02 1807.08
5769.12 1123.61 1058.09 1853.95 1814.47
5771.99 1048.24 1067 1853.45 1840.28
5774.86 1029.15 1016.28 1813.44 1779.09
5777.73 971.444 1003.19 1670.39 1738.36
5780.6 1008.96 992.755 1731.24 1714.26
5783.47 997.857 1002.06 1741.16 1721.51
5786.34 999.35 1035.2 1692.12 1745.66
5789.21 1108.4 1065.76 1803.71 1767.32
5792.08 1089.53 1103.51 1806.13 1828.5
5794.95 1112.6 1094.98 1875.64 1827.64
5797.82 1082.81 1095.86 1801.15 1819.05
5800.69 1092.16 1072.83 1780.37 1783.73
5803.56 1043.52 1073.49 1769.68 1790.76
5806.43 1084.78 1074.55 1822.22 1806.06
5809.3 1095.35 1097.55 1826.29 1834.89
5812.17 1112.52 1071.78 1856.16 1801.41
5815.04 1007.46 1087.32 1721.78 1822.6
5817.91 1141.99 1093.73 1889.85 1828.97
5820.78 1131.74 1136.71 1875.27 1895.82
5823.65 1136.39 1118.86 1922.33 1874.93
5826.52 1088.46 1106.26 1827.2 1870.39
5829.39 1093.92 1092.78 1861.64 1836.35
5832.26 1095.96 1105.2 1820.2 1858.68
5835.13 1125.72 1114.57 1894.2 1854.73
5837.99 1122.04 1134.41 1849.81 1896.17
5840.86 1155.48 1154.36 1944.5 1917.93
5843.73 1185.54 1143.4 1959.48 1902.81
5846.6 1089.18 1148.03 1804.44 1894.95
5849.47 1169.38 1104.06 1920.92 1825.54
5852.34 1053.62 1106.04 1751.26 1849.8
5855.2 1095.12 1058.94 1877.22 1799.27
5858.07 1028.08 1079.06 1769.32 1832.78
5860.94 1113.99 1097.15 1851.78 1839.87
5863.81 1149.38 1124.37 1898.5 1853.62
5866.67 1109.75 1101.44 1810.57 1842.92
5869.54 1045.2 1065.3 1819.69 1805.83
5872.41 1040.95 1081.53 1787.23 1838.95
5875.28 1158.44 1079.51 1909.94 1837.55
5878.14 1039.15 1109.74 1815.48 1862.47
5881.01 1131.64 1076.68 1862 1794.74
5883.88 1059.27 1052.94 1706.73 1741.31
5886.74 967.916 973.603 1655.19 1625.07
5889.61 893.627 917.34 1513.28 1577.57
5892.48 890.477 893.161 1564.23 1515.23
5895.34 895.378 912.61 1468.19 1534.5
5898.21 951.973 936.195 1571.07 1538.71
5901.07 961.232 997.608 1576.87 1654.34
5903.94 1079.62 1058.09 1815.09 1771.36
5906.81 1133.43 1106.79 1922.14 1833.38
5909.67 1107.31 1125.09 1762.91 1854.86
5912.54 1134.53 1108.18 1879.53 1801.21
5915.4 1082.69 1126.6 1761.17 1838.26
5918.27 1162.58 1126.64 1874.09 1810.26
5921.13 1134.65 1123.37 1795.53 1801.78
5924 1072.89 1112.69 1735.72 1790.78
5926.86 1130.53 1141.06 1841.08 1842.33
5929.73 1219.77 1126.37 1950.2 1816.39
5932.59 1028.82 1113.87 1657.89 1804.74
5935.46 1093.02 1097.73 1806.12 1761.67
5938.32 1171.35 1130.54 1821 1819.1
5941.19 1127.24 1139.96 1830.18 1843.12
5944.05 1121.28 1094.93 1878.18 1820.47
5946.91 1036.26 1062.06 1753.05 1794.95
5949.78 1028.64 1039.69 1753.61 1716.15
5952.64 1054.16 1044.2 1641.79 1700.17
5955.51 1049.8 1075.9 1705.11 1715.8
5958.37 1123.73 1093.18 1800.48 1774.82
5961.23 1106 1117.76 1818.87 1801.64
5964.1 1123.57 1099.57 1785.57 1793.67
5966.96 1069.15 1105.01 1776.58 1789.05
5969.82 1122.32 1087.93 1805 1778.34
5972.69 1072.32 1112.64 1753.44 1791.31
5975.55 1143.27 1111.45 1815.49 1787
5978.41 1118.77 1106.87 1792.07 1779.02
5981.28 1058.57 1074.25 1729.51 1756.48
5984.14 1045.4 1055.98 1747.87 1727.45
5987 1063.97 1078.78 1704.97 1733.26
5989.86 1126.96 1100.92 1746.94 1737.11
5992.72 1111.85 1086.55 1759.4 1730.66
5995.59 1020.84 1074.48 1685.62 1729.57
5998.45 1090.75 1048.83 1743.69 1700.27
6001.31 1034.89 1073.79 1671.51 1720.98
6004.17 1095.71 1078.91 1747.74 1717
6007.03 1106.14 1101.33 1731.77 1743.8
6009.9 1102.15 1117.7 1751.88 1761.99
6012.76 1144.82 1108.35 1802.31 1750.68
6015.62 1078.09 1094.17 1697.85 1734.82
6018.48 1059.62 1066.36 1704.3 1710.27
6021.34 1061.37 1058.25 1728.64 1708.2
6024.2 1053.75 1062.69 1691.67 1701.74
6027.06 1072.96 1076.17 1684.92 1695.91
6029.92 1101.8 1101.15 1711.15 1727.29
6032.78 1128.69 1107.25 1785.81 1760.22
6035.64 1091.26 1099.14 1783.7 1781.99
6038.5 1077.48 1086.39 1776.45 1767.07
6041.36 1090.42 1077.75 1741.05 1756.45
6044.22 1065.34 1088.75 1751.86 1764.89
6047.08 1110.48 1084.85 1801.76 1762.79
6049.94 1078.72 1096.8 1734.74 1745.86
6052.8 1101.19 1079.8 1701.08 1718.45
6055.66 1059.49 1082.46 1719.51 1692.75
6058.52 1086.7 1082.96 1657.67 1704
6061.38 1102.68 1098.59 1734.83 1731.78
6064.24 1106.38 1120.61 1802.83 1773.81
6067.1 1152.78 1140.07 1783.77 1799.05
6069.96 1161.04 1142.72 1810.54 1776.23
6072.82 1114.33 1132.21 1734.37 1769.1
6075.67 1121.25 1104.47 1762.39 1732.59
6078.53 1077.82 1086.88 1701.02 1705.69
6081.39 1061.57 1075.19 1653.66 1695.08
6084.25 1086.18 1095.45 1730.58 1716.28
6087.11 1138.6 1092.18 1764.6 1728.82
6089.97 1051.75 1088.6 1691.29 1718.07
6092.82 1075.46 1080.37 1698.32 1718.85
6095.68 1113.89 1085.75 1766.93 1706.8
6098.54 1067.89 1071.52 1655.16 1690.3
6101.4 1032.77 1042.06 1648.81 1633.91
6104.25 1025.53 1070.93 1597.76 1657.45
6107.11 1154.5 1093.56 1725.77 1683.48
6109.97 1100.67 1121.85 1726.93 1733.55
6112.82 1110.39 1097.59 1747.96 1731.63
6115.68 1081.72 1081.63 1719.99 1709.79
6118.54 1052.79 1075.96 1661.43 1676.71
6121.39 1093.36 1080.69 1648.72 1669.42
6124.25 1095.94 1098.16 1698.11 1668.88
6127.11 1105.2 1068.9 1659.8 1647.6
6129.96 1005.57 1051.08 1584.88 1624.18
6132.82 1042.48 1043.76 1627.87 1627.53
6135.68 1083.22 1073.47 1669.83 1660.02
6138.53 1094.72 1073.63 1682.36 1649.96
6141.39 1042.96 1052.71 1597.68 1629.18
6144.24 1020.44 1043.07 1607.51 1620.5
6147.1 1065.81 1072.88 1656.32 1672.7
6149.95 1132.39 1065.82 1754.26 1650.32
6152.81 999.256 1074.7 1540.37 1644.42
6155.66 1092.46 1030.51 1638.63 1561.87
6158.52 999.808 1018.95 1506.62 1560.56
6161.37 964.592 979.796 1536.43 1515.91
6164.23 974.989 999.677 1504.67 1568.93
6167.08 1059.45 1031.88 1665.7 1618.66
6169.94 1061.21 1065.77 1685.61 1672.57
6172.79 1076.65 1050.93 1666.41 1668.95
6175.64 1014.94 1048.28 1654.82 1667.75
6178.5 1053.25 1068.78 1682.02 1683.52
6181.35 1138.15 1081.54 1713.72 1689.56
6184.21 1053.23 1067.74 1672.96 1641.83
6187.06 1011.86 1034.07 1538.83 1598.06
6189.91 1037.13 1030.03 1582.4 1589.95
6192.77 1041.1 1042.16 1648.62 1611.39
6195.62 1048.25 1038.16 1603.16 1618.3
6198.47 1025.13 1063.81 1603.11 1618.14
6201.33 1118.05 1087.09 1648.14 1647.59
6204.18 1118.09 1106.66 1691.5 1670.02
6207.03 1083.85 1087.96 1670.43 1655.39
6209.88 1061.95 1068.44 1604.25 1638.28
6212.74 1059.52 1074.16 1640.16 1638.96
6215.59 1101.01 1065.6 1672.48 1649.75
6218.44 1036.28 1076.43 1636.62 1652.62
6221.29 1092.02 1052.42 1648.78 1636.93
6224.14 1028.96 1041.91 1625.38 1628.04
6227 1004.74 1021.59 1609.96 1587.28
6229.85 1031.07 1033.51 1526.51 1581.39
6232.7 1064.72 1064.73 1607.69 1605.24
6235.55 1098.39 1080.88 1681.54 1642.25
6238.4 1079.52 1060.16 1637.51 1607.54
6241.25 1002.57 1046.09 1503.57 1593.9
6244.1 1056.18 1027.97 1640.64 1574.27
6246.95 1025.16 1021.17 1578.6 1573.84
6249.8 982.171 1035.83 1502.28 1565.09
6252.65 1100.16 1034.85 1614.39 1571.73
6255.51 1022.22 1054.97 1598.51 1594.41
6258.36 1042.51 1019.85 1570.34 1562.61
6261.21 994.819 1026.04 1518.99 1563.31
6264.06 1040.8 1025.97 1600.61 1575.9
6266.91 1042.29 1048.89 1608.11 1610.71
6269.75 1063.56 1069.59 1623.4 1651.23
6272.6 1102.9 1031.03 1722.16 1624.34
6275.45 926.607 1010.17 1527.46 1567.62
6278.3 1001.01 990.022 1453.23 1502.24
6281.15 1042.44 1052.74 1526.03 1537.68
6284 1114.76 1066.36 1633.77 1575.78
6286.85 1041.86 1040.87 1567.53 1582.5
6289.7 966 1020.94 1546.18 1537.39
6292.55 1054.95 1020.04 1498.44 1525.27
6295.4 1039.16 1024.42 1531.17 1489.6
6298.24 979.138 989.103 1439.2 1429.73
6301.09 949.01 968.53 1318.82 1401.87
6303.94 977.443 1027.49 1447.6 1464.65
6306.79 1156.02 1070.44 1627.53 1565.15
6309.64 1077.85 1105.63 1620.33 1596.65
6312.48 1083.02 1036.82 1542.1 1547.62
6315.33 949.59 1000.54 1480.43 1507.45
6318.18 969.009 997.977 1499.82 1517.97
6321.03 1075.33 1028.95 1573.65 1544.93
6323.87 1042.5 1081.18 1561.3 1602.75
6326.72 1125.69 1078.87 1673.29 1619.13
6329.57 1068.43 1096.8 1622.79 1636.96
6332.41 1096.29 1061.58 1614.8 1595.14
6335.26 1020.01 1036.8 1547.83 1565.39
6338.11 994.098 1014.91 1533.53 1557.68
6340.95 1030.63 1027.5 1591.67 1555.1
6343.8 1057.77 1058.68 1540.09 1592.05
6346.64 1087.63 1078.16 1644.38 1603.56
6349.49 1089.08 1082.46 1626.2 1634.39
6352.34 1070.67 1063.49 1632.59 1598.93
6355.18 1030.73 1031.34 1538.01 1558.61
6358.03 992.614 1015.69 1505.24 1525.47
6360.87 1023.73 1034.78 1533.17 1530.4
6363.72 1087.99 1033.7 1552.81 1522.91
6366.56 989.373 1031.82 1482.76 1540.9
6369.41 1018.09 938.354 1587.14 1494.38
6372.25 807.598 893.914 1413.25 1544.67
6375.1 856.053 826.721 1633.62 1527.66
6377.94 816.513 829.173 1536.11 1576.03
6380.78 814.951 822.819 1558.35 1554.71
6383.63 836.992 838.762 1569.66 1568.05
6386.47 864.344 844.225 1576.16 1560.87
6389.32 831.339 836.225 1536.78 1533.83
6392.16 812.991 828.228 1488.55 1513.9
6395 840.353 817.282 1516.37 1493.58
6397.85 798.503 813.793 1475.81 1483.27
6400.69 802.522 795.685 1457.62 1467.24
6403.53 786.031 816.624 1468.29 1496.59
6406.38 861.32 826.027 1563.86 1536.78
6409.22 830.729 835.828 1578.18 1556.88
6412.06 815.434 838.961 1528.6 1546.8
6414.91 870.718 841.965 1533.61 1537.84
6417.75 839.743 836.289 1551.3 1525.04
6420.59 798.406 822.64 1490.22 1541.88
6423.43 829.771 823.93 1584.12 1521.04
6426.27 843.612 816.257 1488.79 1525.04
6429.12 775.388 826.417 1502.21 1508.66
6431.96 860.251 838.178 1534.97 1539.87
6434.8 878.894 845.937 1582.42 1535.54
6437.64 798.666 841.04 1489.24 1530.78
6440.48 845.561 831.986 1520.69 1530.11
6443.32 851.731 854.761 1580.42 1551.35
6446.16 866.993 854.097 1552.94 1547.42
6449 843.567 835.81 1508.9 1516.02
6451.85 796.871 828.455 1486.23 1501.15
6454.69 844.927 841.838 1508.32 1517.97
6457.53 883.716 838.385 1559.34 1510.38
6460.37 786.513 857.508 1463.47 1539.93
6463.21 902.296 828.806 1596.98 1518.79
6466.05 797.611 830.494 1495.92 1497.45
6468.89 791.576 821.624 1399.44 1488.42
6471.73 875.684 828.13 1569.89 1472.54
6474.57 817.129 860.308 1448.28 1519.66
6477.41 888.109 844.254 1540.82 1512.3
6480.24 827.524 851.541 1547.82 1532.2
6483.08 838.99 866.215 1507.96 1546.54
6485.92 932.132 866.485 1583.84 1522.77
6488.76 828.334 853.249 1476.49 1512.23
6491.6 799.281 789.641 1476.35 1448.69
6494.44 741.308 784.892 1393.23 1436.8
6497.28 814.085 796.896 1440.82 1443.72
6500.11 835.295 826.134 1497.12 1463.83
6502.95 829.022 831.394 1453.55 1498.72
6505.79 829.864 854.316 1545.48 1487.43
6508.63 904.062 855.591 1463.24 1461.89
6511.47 832.846 864.66 1376.95 1470.2
6514.3 857.071 831.113 1570.4 1453.2
6517.14 803.422 839.823 1412.26 1482.11
6519.98 858.976 849.036 1463.68 1460.13
6522.82 884.71 860.796 1504.45 1474.53
6525.65 838.701 868.728 1455.47 1487.77
6528.49 882.772 859.22 1503.39 1492.34
6531.33 856.186 866.168 1518.15 1546.42
6534.16 859.546 840.787 1617.73 1536.27
6537 806.629 838.917 1472.95 1547.49
6539.83 850.575 822.544 1551.78 1495.88
6542.67 810.427 821.865 1462.91 1486.22
6545.51 804.592 814.935 1443.96 1457.61
6548.34 829.787 822.496 1465.96 1440.01
6551.18 833.109 823.655 1410.11 1409.69
6554.01 808.07 780.482 1353.01 1337.97
6556.85 700.267 737.687 1250.8 1273.57
6559.68 704.724 730.333 1216.92 1281.18
6562.52 786.008 741.674 1375.83 1292.26
6565.35 734.289 786.34 1284.04 1347.29
6568.19 838.724 781.355 1382.01 1331.83
6571.02 771.053 827.127 1329.43 1400.42
6573.86 871.603 815.439 1489.81 1412.68
6576.69 803.662 832.595 1418.8 1448.41
6579.52 822.519 812.306 1436.63 1403.58
6582.36 810.737 827.21 1355.3 1420.74
6585.19 848.374 831.586 1470.29 1416.47
6588.03 835.648 846.756 1423.81 1457.64
6590.86 856.245 858.853 1478.84 1461.4
6593.69 884.665 836.082 1481.56 1454.82
6596.53 767.337 842.613 1404.05 1454.09
6599.36 875.838 836.448 1476.65 1453.96
6602.19 866.168 882.523 1481.18 1499.91
6605.02 905.563 862.595 1541.89 1490.49
6607.86 816.054 853.796 1448.41 1481.94
6610.69 839.769 864.988 1455.52 1481.61
6613.52 939.14 876.289 1540.9 1487.24
6616.35 849.957 860.077 1465.3 1487.09
6619.18 791.134 817.802 1455.07 1456.79
6622.02 812.315 819.094 1450.02 1471.01
6624.85 853.834 847.716 1507.95 1487.44
6627.68 877 853.16 1504.35 1481.64
6630.51 828.648 837.255 1432.62 1435.49
6633.34 806.117 834.81 1369.51 1429.39
6636.17 869.666 839.859 1486.05 1436.46
6639 843.794 858.126 1453.83 1460.19
6641.83 860.919 874.819 1440.7 1465.54
6644.67 919.746 880.414 1502.09 1481.68
6647.5 860.579 854.115 1502.24 1459.19
6650.33 782.021 826.139 1373.24 1426.38
6653.16 835.816 823.042 1403.66 1415.42
6655.99 851.29 868.09 1469.35 1463.98
6658.82 917.166 881.312 1518.93 1480.92
6661.64 875.48 883.227 1454.49 1460.49
6664.47 857.035 853.027 1408.06 1417.49
6667.3 826.566 856.414 1389.93 1418.71
6670.13 885.64 841.435 1458.15 1411.33
6672.96 812.1 837.4 1385.91 1407.58
6675.79 814.459 859.562 1378.68 1406.03
6678.62 952.127 894.315 1453.5 1428.86
6681.45 916.36 930.961 1454.38 1477.96
6684.28 924.397 882.069 1526 1442.95
6687.1 805.45 882.452 1348.47 1427.22
6689.93 917.508 854.968 1407.19 1374.27
6692.76 841.945 864.229 1367.13 1388.58
6695.59 833.235 829.073 1391.43 1377.1
6698.42 812.04 831.698 1372.73 1388.42
6701.24 849.818 869.256 1401.1 1418.39
6704.07 945.91 891.029 1481.34 1429.13
6706.9 877.36 898.742 1404.94 1457.81
6709.72 872.957 855.363 1487.15 1416.68
6712.55 815.771 842.279 1357.96 1403.58
6715.38 838.108 834.713 1365.63 1386.8
6718.2 850.261 841.209 1436.8 1394.77
6721.03 835.258 833.614 1381.87 1393.49
6723.86 815.325 847.58 1361.8 1378.9
6726.68 892.158 855.727 1393.02 1398.67
6729.51 859.698 883.305 1441.18 1431.43
6732.33 898.06 859.551 1460.11 1443.53
6735.16 820.894 860.277 1429.32 1415.08
6737.98 861.876 854.205 1355.81 1399.67
6740.81 879.845 865.704 1413.88 1393.31
6743.63 855.391 877.607 1410.25 1418.8
6746.46 897.584 896.913 1432.25 1404.61
6749.28 937.764 907.369 1371.32 1403.28
6752.11 886.758 887.745 1406.27 1403.72
6754.93 838.713 867.431 1433.57 1413.56
6757.76 876.82 850.493 1400.84 1422.8
6760.58 835.945 866.368 1433.98 1420.72
6763.4 886.34 850.107 1427.36 1382.79
6766.23 828.035 860.784 1287.02 1370.25
6769.05 867.976 853.113 1396.38 1357.42
6771.88 863.327 845.374 1388.85 1358.33
6774.7 804.82 853.947 1289.75 1357.49
6777.52 893.695 856.705 1393.88 1378.71
6780.34 871.6 872.567 1452.49 1402.85
6783.17 852.406 852.224 1362.17 1380.09
6785.99 832.667 845.387 1325.6 1334.4
6788.81 851.087 843.054 1315.43 1326.78
6791.63 845.408 858.455 1339.32 1343.05
6794.46 878.869 865.501 1374.39 1366.44
6797.28 872.227 880.233 1385.62 1384.68
6800.1 889.602 882.412 1394.02 1380.44
6802.92 885.406 875.673 1361.67 1354.76
6805.74 852.012 865.112 1308.6 1326.47
6808.57 857.918 871.47 1309.14 1331.78
6811.39 904.482 874.254 1377.6 1340.04
6814.21 860.362 847.791 1333.39 1337.44
6817.03 778.528 843.539 1301.33 1366.67
6819.85 891.727 833.901 1465.29 1354.96
6822.67 831.447 855.413 1298.25 1364.89
6825.49 843.066 846.556 1331.13 1310.43
6828.31 865.156 849.049 1301.9 1323
6831.13 838.923 875.59 1335.97 1337.56
6833.95 922.692 878.254 1374.81 1332.41
6836.77 873.147 874.184 1286.44 1327.63
6839.59 826.713 862.171 1321.63 1315.44
6842.41 886.654 846.746 1338.26 1325.37
6845.23 826.871 869.351 1316.23 1340.04
6848.05 894.528 847.527 1365.64 1325.1
6850.86 821.182 861.071 1293.43 1342.07
6853.68 867.504 858.098 1367.14 1351.15
6856.5 885.607 859.981 1392.86 1341.87
6859.32 826.831 824.12 1265.62 1285.19
6862.14 759.921 729.494 1197.08 1169.67
6864.96 601.732 680.56 1046.32 1087.54
6867.77 680.028 651.944 1019.23 1024.58
6870.59 674.074 668.999 1008.19 1021.86
6873.41 652.896 692.654 1038.17 1045.68
6876.23 750.992 722.464 1090.69 1085.27
6879.04 763.505 756.711 1126.97 1110.66
6881.86 755.637 761.569 1114.31 1126.95
6884.68 765.564 754.341 1139.58 1116.56
6887.49 741.823 751.629 1095.8 1120.85
6890.31 747.501 739.746 1127.18 1116.21
6893.13 729.915 756.109 1125.63 1134.36
6895.94 790.912 743.595 1150.25 1117.49
6898.76 709.959 773.979 1076.59 1139.88
6901.58 821.067 790.339 1192.8 1162.86
6904.39 839.991 816.997 1219.18 1190.64
6907.21 789.934 807.859 1159.95 1173.31
6910.02 793.652 783.864 1140.8 1162.92
6912.84 768.006 777.117 1188.01 1159.67
6915.65 769.692 766.529 1150.2 1162.76
6918.47 761.89 785.763 1150.08 1179.07
6921.28 825.708 786.497 1236.92 1179.08
6924.1 771.892 787.984 1150.24 1186.74
6926.91 766.351 783.327 1173.05 1187.31
6929.72 811.738 770.409 1238.65 1159.89
6932.54 733.137 791.071 1067.98 1165.87
6935.35 828.34 793.761 1190.98 1123.95
6938.17 819.808 818.721 1112.87 1168.98
6940.98 808.016 791.468 1203.09 1136.32
6943.79 746.58 780.506 1093 1162.19
6946.61 786.922 793.072 1190.5 1154.95
6949.42 845.714 793.733 1181.35 1155.17
6952.23 748.564 777.514 1093.66 1123.12
6955.04 738.263 762.076 1094.36 1106.57
6957.86 799.4 788.569 1131.7 1126.04
6960.67 828.044 812.801 1152.07 1163.17
6963.48 810.959 824.379 1205.74 1206.16
6966.29 834.134 851.122 1260.68 1235.73
6969.1 908.273 844.855 1240.77 1200.78
6971.92 792.158 823.776 1100.89 1158.2
6974.73 770.896 782.948 1132.95 1135.38
6977.54 785.79 781.306 1172.31 1151.55
6980.35 787.233 816.96 1149.4 1177.82
6983.16 877.856 848.401 1211.76 1208.7
6985.97 880.113 854.786 1264.94 1220.79
6988.78 806.39 845.217 1185.69 1198.03
6991.59 849.147 826.371 1143.45 1165.56
6994.4 823.575 822.422 1167.55 1146.4
6997.21 794.544 805.863 1128.2 1151.42
7000.02 799.47 765.314 1158.51 1122.28
7002.83 701.927 779.638 1080.12 1137.46
7005.64 837.518 774.492 1173.73 1124.74
7008.45 784.032 787.46 1120.37 1115.23
7011.26 740.831 771.091 1051.6 1095.89
7014.07 788.409 749.426 1115.69 1083.04
7016.88 719.038 752.505 1081.84 1108.6
7019.69 750.069 753.143 1128.28 1111.31
7022.49 790.323 759.074 1123.82 1095.1
7025.3 736.831 768.306 1033.22 1102.07
7028.11 777.764 762.048 1149.19 1083.48
7030.92 771.549 774.876 1068.04 1093.42
7033.73 775.315 779.857 1063.04 1083.57
7036.53 792.709 795.685 1119.64 1104.92
7039.34 819.031 782.565 1132.08 1090.36
7042.15 735.955 778.507 1019.35 1058.38
7044.96 780.534 756.603 1023.71 1038.14
7047.76 753.321 781.076 1071.38 1056.49
7050.57 809.373 775.787 1074.4 1078.04
7053.38 764.668 772.006 1088.36 1062.7
7056.18 741.976 764.534 1025.35 1067.93
7058.99 786.958 768.717 1090.09 1058.27
7061.79 777.215 786.914 1059.36 1096.01
7064.6 796.568 800.395 1138.58 1094.7
7067.41 827.402 808.909 1086.16 1101.43
7070.21 802.758 810.265 1079.55 1080.99
7073.02 800.636 788.739 1077.26 1072.56
7075.82 762.823 781.136 1060.88 1061.8
7078.63 779.948 777.262 1047.26 1047.53
7081.43 789.014 774.304 1034.45 1039.07
7084.24 753.95 778.929 1035.5 1051.52
7087.04 793.825 759.993 1084.62 1039.79
7089.84 732.204 743.53 999.24 1038.64
7092.65 704.559 745.938 1032.05 1039.74
7095.45 801.051 762.326 1087.95 1045.8
7098.26 781.369 782.02 1017.42 1050.12
7101.06 763.639 766.136 1045.01 1016.75
7103.86 753.399 769.318 987.809 1012.87
7106.67 790.917 760.905 1005.8 979.072
7109.47 738.399 787.93 943.606 1008.78
7112.27 834.473 783.948 1076.92 1014.64
7115.07 778.971 799.288 1023.38 1042.47
7117.88 784.42 771.961 1027.1 1001.48
7120.68 752.494 738.588 953.954 984.129
7123.48 678.852 744.804 971.335 970.434
7126.28 803.066 750.628 986.014 1003.86
7129.09 769.965 763.379 1054.22 1008.76
7131.89 717.105 744.942 986.061 1003.44
7134.69 747.754 739.605 970.042 973.342
7137.49 753.955 749.303 963.923 981.438
7140.29 746.199 756.511 1010.35 988.742
7143.09 769.379 749.104 991.955 997.344
7145.89 731.734 750.532 989.727 997.294
7148.69 750.484 731.32 1010.2 979.09
7151.49 711.742 739.994 937.343 981.637
7154.29 757.755 741.03 997.366 966.86
7157.09 753.593 744.821 965.87 985.271
7159.89 723.114 743.51 992.577 983.751
7162.69 753.824 723.822 992.806 971.738
7165.49 694.527 713.695 929.83 931.675
7168.29 692.733 724.028 872.389 942.263
7171.09 784.824 727.652 1024.57 931.121
7173.89 705.4 736.93 896.403 961.788
7176.69 720.567 721.67 964.392 939.919
7179.49 739.043 710.381 958.962 937.586
7182.28 671.533 687.42 889.404 922.2
7185.08 651.683 666.119 918.235 890.306
7187.88 675.142 683.548 863.279 896.835
7190.68 723.817 705.545 908.992 921.298
7193.47 717.675 723.44 991.623 941.254
7196.27 728.827 719.622 923.146 942.14
7199.07 712.365 712.115 911.651 905.509
7201.87 695.155 696.67 881.73 894.019
7204.66 682.49 703.829 888.676 901.746
7207.46 733.843 701.343 934.833 903.127
7210.26 687.697 733.379 885.871 923.266
7213.05 778.598 717.713 949.094 892.023
7215.85 686.842 718.756 841.103 898.92
7218.64 690.827 673.468 906.562 867.601
7221.44 642.734 694.756 855.138 888.445
7224.24 750.706 685.42 903.634 884.708
7227.03 662.82 700.764 895.353 882.456
7229.83 688.766 685.751 848.381 859.462
7232.62 705.667 692.931 834.651 855.307
7235.42 684.36 701.447 882.887 854.913
7238.21 714.314 688.668 847.2 851.003
7241 667.329 686.567 822.921 830.486
7243.8 678.057 672.304 821.337 807.345
7246.59 671.528 675.27 777.777 824.723
7249.39 676.227 688.786 875.056 844.456
7252.18 718.605 713.267 880.535 899.509
7254.97 744.971 715.244 942.935 882.402
7257.77 682.156 709.626 823.735 881.776
7260.56 701.751 683.938 878.658 846.574
7263.35 667.908 683.726 837.329 864.377
7266.15 681.519 669.931 877.144 842.307
7268.94 660.365 671.508 812.448 824.367
7271.73 672.641 659.344 783.509 798.439
7274.52 645.025 692.233 799.359 818.994
7277.31 759.033 680.886 874.113 817.943
7280.11 638.598 695.169 780.358 837.231
7282.9 687.876 679.465 857.222 827.765
7285.69 711.921 691.666 845.714 852.616
7288.48 675.2 679.538 854.91 830.429
7291.27 651.492 677.778 790.664 829.465
7294.06 706.642 676.221 842.82 818.757
7296.85 670.53 686.871 822.786 827.932
7299.64 683.443 666.94 818.191 808.339
7302.43 646.848 670.824 784.039 817.906
7305.22 682.18 652.751 851.489 801.417
7308.01 629.225 659.82 768.721 806.848
7310.8 668.054 659.517 800.334 779.633
7313.59 681.272 682.061 769.845 794.588
7316.38 696.856 703.443 813.584 816.2
7319.17 732.202 689.829 865.172 804.894
7321.96 640.43 688.413 735.925 803.543
7324.75 692.607 671.417 809.532 798.081
7327.54 681.216 694.948 848.784 830.433
7330.33 711.023 713.491 832.982 842.797
7333.11 748.235 719.3 846.624 795.737
7335.9 698.642 724.251 707.605 803.533
7338.69 725.875 700.925 856.37 783.063
7341.48 678.258 688.626 785.213 805.005
7344.26 661.745 653.75 773.431 764.265
7347.05 621.248 658.249 734.151 772.853
7349.84 691.754 664.749 810.977 771.475
7352.62 681.246 690.922 769.297 781.757
7355.41 699.765 632.397 764.999 764.428
7358.2 516.179 597.81 758.99 766.918
7360.98 577.487 531.447 776.765 740.915
7363.77 500.674 537.3 686.99 736.775
7366.56 533.739 541.897 746.569 733.052
7369.34 591.278 547.958 765.596 760.759
7372.13 518.858 563.029 770.113 772.071
7374.91 578.949 551.324 780.505 786.944
7377.7 556.164 554.91 810.213 783.98
7380.48 529.616 522.303 761.224 762.729
7383.27 481.128 494.505 716.749 732.763
7386.05 472.772 509.368 720.314 723.855
7388.84 574.204 525.483 734.501 732.099
7391.62 529.472 534.569 741.482 729.656
7394.4 500.03 510.479 712.984 720.185
7397.19 501.934 505.908 706.09 726.185
7399.97 515.759 513.588 759.48 744.8
7402.75 523.072 528.354 768.829 765.353
7405.54 546.231 522.58 767.75 744.259
7408.32 498.437 511.677 696.199 709.183
7411.1 490.364 517.834 663.599 695.792
7413.89 564.702 528 727.577 710.186
7416.67 528.935 534.076 739.382 725.224
7419.45 508.593 521.008 708.712 722.514
7422.23 525.495 550.576 719.448 743.459
7425.01 617.639 553.567 802.217 751.623
7427.8 517.568 556.966 733.205 756.51
7430.58 535.692 542.213 734.109 738.788
7433.36 573.378 553.003 749.051 738.135
7436.14 549.939 549.78 731.246 719.205
7438.92 526.022 533.869 677.318 730.162
7441.7 525.647 522.675 781.921 718.256
7444.48 516.357 534.026 695.528 749.922
7447.26 560.073 532.447 772.316 724.988
7450.04 520.91 544.461 707.119 736.209
7452.82 552.401 522.93 729.193 707.64
7455.6 495.48 530.868 686.609 727.736
7458.38 544.725 509.409 767.407 721.325
7461.16 488.023 508.409 709.958 728.606
7463.94 492.478 491.295 708.454 697.867
7466.72 493.384 503.705 675.189 675.552
7469.49 525.252 517.332 643.012 672.657
7472.27 533.359 519.262 699.77 674.822
7475.05 499.175 517.683 681.684 679.766
7477.83 520.515 521.974 657.843 666.385
7480.61 546.231 539.202 659.629 669.954
7483.38 550.859 545.219 692.392 676.18
7486.16 538.568 525.087 676.52 678.427
7488.94 485.833 514.931 666.368 673.92
7491.72 520.393 506.949 678.871 668.389
7494.49 514.621 521.152 659.928 674.733
7497.27 528.441 522.283 685.399 655.402
7500.05 523.787 510.417 620.878 653.325
7502.82 479.024 515.953 653.698 654.318
7505.6 545.047 503.389 688.378 663.182
7508.37 486.097 513.231 647.47 670.356
7511.15 508.549 514.383 675.22 658.261
7513.92 548.502 549.777 652.092 684.227
7516.7 592.282 541.556 725.368 671.567
7519.47 483.884 547.338 637.24 666.689
7522.25 565.848 515.743 637.458 646.559
7525.02 497.498 527.087 664.978 643.361
7527.8 517.916 515.934 627.646 664.871
7530.57 532.387 546.866 701.987 680.135
7533.35 590.296 540.331 710.772 700.774
7536.12 498.31 537.68 689.561 686.374
7538.89 524.432 515.407 658.788 662.211
7541.67 523.478 524.357 638.284 648.825
7544.44 525.161 523.231 649.402 640.627
7547.21 521.053 507.89 634.195 655.751
7549.99 477.455 494.687 683.655 660.447
7552.76 485.554 488.303 663.49 647.675
7555.53 501.901 516.389 595.88 651.531
7558.3 561.711 538.132 695.225 643.904
7561.07 550.785 542.538 640.608 623.429
7563.85 515.118 534.434 534.454 599.064
7566.62 537.4 519.807 622.13 591.204
7569.39 506.903 517.568 617.027 625.806
7572.16 508.403 518.301 638.26 644.11
7574.93 539.598 516.368 677.042 644.546
7577.7 501.104 509.355 618.337 637.161
7580.47 487.362 498.955 616.103 607.8
7583.24 508.399 502.338 588.96 597.472
7586.01 511.252 464.905 587.353 555.906
7588.78 375.064 381.729 491.404 479.697
7591.55 258.871 286.826 360.332 385.59
7594.32 226.545 221.237 305.034 307.383
7597.09 178.296 155.789 256.785 236.359
7599.86 62.5273 121.57 147.258 185.553
7602.63 123.886 108.452 152.616 152.249
7605.4 138.943 146.323 156.872 169.721
7608.17 176.141 183.773 199.674 207.132
7610.93 236.234 256.406 264.849 273.357
7613.7 356.843 296.078 355.548 320.979
7616.47 295.155 305.811 342.54 340.246
7619.24 265.435 263.604 322.651 336.695
7622 230.223 246.381 344.894 317.574
7624.77 243.484 244.195 285.178 315.141
7627.54 258.879 251.228 315.351 292.089
7630.31 251.323 259.798 275.74 305.953
7633.07 269.193 262.152 326.77 303.376
7635.84 265.941 268.655 307.619 317.226
7638.6 270.831 285.284 317.288 321.683
7641.37 319.081 317.615 340.143 354.493
7644.14 362.933 334.523 406.049 388.192
7646.9 321.555 368.611 418.385 410.301
7649.67 421.346 356.123 406.47 408.797
7652.43 325.468 366.713 401.535 407.777
7655.2 353.325 365.578 415.327 416.621
7657.96 417.941 372.753 433.003 411.9
7660.73 346.993 389.54 387.371 421.42
7663.49 403.685 403.453 443.885 428.841
7666.25 459.681 431.834 455.268 465.231
7669.02 432.136 449.177 496.541 485.855
7671.78 455.712 450.79 505.755 495.074
7674.55 464.522 473.537 482.925 503.185
7677.31 500.377 477.85 520.873 509.262
7680.07 468.651 480.977 523.989 520.189
7682.83 473.902 462.612 515.705 513.429
7685.6 445.284 463.898 500.594 532.25
7688.36 472.509 452.356 580.453 533.164
7691.12 439.275 454.85 518.445 540.62
7693.88 452.765 453.633 522.962 501.869
7696.64 468.858 477.847 464.2 494.449
7699.41 511.918 492.655 496.185 474.943
7702.17 497.189 501.727 464.443 496.862
7704.93 496.074 475.243 529.958 479.42
7707.69 432.468 455.667 443.859 468.426
7710.45 438.461 437.792 431.461 442.048
7713.21 442.446 445.038 450.825 477.751
7715.97 454.206 468.553 550.965 504.954
7718.73 509.006 467.005 513.07 517.629
7721.49 437.801 474.546 488.852 513.358
7724.25 476.83 453.978 538.15 510.195
7727.01 447.302 449.394 503.582 527.854
7729.77 424.051 438.447 541.829 524.324
7732.53 443.988 441.957 527.56 510.178
7735.29 457.831 445.112 461.144 491.551
7738.04 433.517 440.548 485.949 467.426
7740.8 430.295 428.282 455.184 453.049
7743.56 421.033 424.781 418.013 403.684
7746.32 423.013 414.815 337.855 401.096
7749.08 400.398 443.975 447.42 417.452
7751.83 508.515 429.616 467.079 455.794
7754.59 379.934 424.952 452.884 445.171
7757.35 386.409 394.976 415.551 449.083
7760.1 418.585 402.114 478.815 451.465
7762.86 401.349 436.285 460.028 474.157
7765.62 488.922 424.638 483.628 466.239
7768.37 383.642 432.36 455.06 486.692
7771.13 424.517 433.605 521.388 483.681
7773.89 492.655 454.113 474.596 482.906
7776.64 445.166 454.775 452.734 450.401
7779.4 426.504 437.027 423.872 447.353
7782.15 439.41 435.659 465.452 426.761
7784.91 441.062 444.417 390.96 434.485
7787.66 452.78 452.375 447.042 432.244
7790.42 463.283 461.797 458.73 451.713
7793.17 469.328 468.715 449.368 439.281
7795.92 473.534 455.978 409.746 435.544
7798.68 425.072 454.043 447.516 449.989
7801.43 463.523 445.512 492.704 453.548
7804.18 447.942 437.912 420.422 418.819
7806.94 402.272 437.7 343.329 403.097
7809.69 462.886 426.58 445.541 408.544
7812.44 414.583 452.892 436.761 426.317
7815.19 481.208 450.213 396.648 420.97
7817.95 454.849 464.553 429.502 430.233
7820.7 457.602 444.89 464.55 438.762
7823.45 422.218 439.794 422.233 449.252
7826.2 439.561 426.064 460.973 432.54
7828.95 416.414 432.649 414.414 436.757
7831.7 441.974 429.597 434.883 428.81
7834.46 430.403 442.006 437.134 421.127
7837.21 453.643 455.481 391.363 437.797
7839.96 482.397 452.732 484.896 418.076
7842.71 422.156 444.582 377.97 428.774
7845.46 429.193 417.39 423.456 382.637
7848.21 400.822 409.888 346.485 394.315
7850.96 399.649 409.988 413.003 390.453
7853.71 429.493 410.396 411.871 406.102
7856.46 402.046 413.902 393.431 398.197
7859.2 410.167 396.396 389.287 381.894
7861.95 376.974 413.216 362.964 370.925
7864.7 452.508 410.349 360.523 343.146
7867.45 401.565 435.799 305.951 352.878
7870.2 453.323 421.166 392.16 386.868
7872.95 408.609 408.676 462.492 403.682
7875.69 364.095 401.25 356.394 406.902
7878.44 431.046 414.94 401.821 389.139
7881.19 449.678 424.05 409.201 395.238
7883.93 391.426 419.485 374.693 398.419
7886.68 417.35 404.85 411.362 377.374
7889.43 405.775 407.448 346.068 383.999
7892.17 399.221 413.395 394.567 392.235
7894.92 435.189 410.712 436.07 402.915
7897.67 397.726 417.254 378.108 384.509
7900.41 418.848 409.062 339.347 369.335
7903.16 410.612 429.008 390.549 364.232
7905.9 457.563 420.722 362.799 358.446
7908.65 393.99 404.637 321.991 328.777
7911.39 362.359 380.919 301.539 316.982
7914.14 386.409 374.461 327.416 308.832
7916.88 374.617 382.294 297.54 327.703
7919.62 385.857 386.356 358.152 345.532
7922.37 398.593 388.837 380.904 383.337
7925.11 382.06 377.136 410.956 371.357
7927.85 350.755 359.763 322.212 344.646
7930.6 346.474 373.441 300.772 327.548
7933.34 423.093 397.055 359.66 334.978
7936.08 421.598 409.162 344.501 338.735
7938.82 382.795 393.078 312.045 315.241
7941.57 374.839 385.558 289.177 312.42
7944.31 399.04 390.723 336.038 316.306
7947.05 398.29 404.796 323.702 324.986
7949.79 417.058 406.776 315.218 341.178
7952.53 404.979 401.021 384.614 341.426
7955.27 381.027 392.291 324.448 338.786
7958.02 390.868 395.551 307.296 336.379
7960.76 414.756 389.322 377.393 342.059
7963.5 362.342 377.748 341.489 342.014
7966.24 356.144 367.774 307.16 334.095
7968.98 384.836 379.749 353.635 314.386
7971.72 398.266 409.121 282.362 325.78
7974.46 444.261 406.487 341.344 322.458
7977.19 376.934 421.38 343.669 336.081
7979.93 442.945 397.148 323.23 333.088
7982.67 371.566 395.152 332.365 332.098
7985.41 370.946 383.38 340.697 354.192
7988.15 407.628 392.2 389.512 395.669
7990.89 398.026 409.449 456.799 411.714
7993.63 422.694 384.244 388.832 378.439
7996.36 332.014 365.527 289.686 349.232
7999.1 341.873 369.914 369.178 349.408
8001.84 435.855 381.712 389.36 352.847
8004.57 367.409 411.903 300.003 337.802
8007.31 432.445 396.844 324.045 326.66
8010.05 390.678 391.763 355.932 329.298
8012.78 352.167 365.554 307.916 324.633
8015.52 353.818 361.09 310.05 321.733
8018.26 377.286 377.516 347.232 305.134
8020.99 401.444 397.906 258.12 315.219
8023.73 414.989 393.507 340.305 305.959
8026.46 364.087 363.787 319.451 324.932
8029.2 312.285 361.235 315.04 331.006
8031.93 407.332 375.689 358.528 335.503
8034.67 407.451 392.936 332.942 333.79
8037.4 364.024 376.535 309.901 322.6
8040.13 358.131 368.001 324.958 309.525
8042.87 381.847 379.202 293.716 317.045
8045.6 397.628 394.934 332.461 322.187
8048.33 405.327 381.202 340.384 312.371
8051.07 340.651 361.26 264.267 298.513
8053.8 337.802 357.743 290.887 297.631
8056.53 394.778 375.677 337.738 326.67
8059.26 394.45 375.75 351.384 316.734
8062 338.022 382.743 261.081 308.022
8064.73 415.756 366.166 311.602 285.423
8067.46 344.719 378.101 283.587 296.69
8070.19 373.828 347.068 294.882 281.367
8072.92 322.656 369.402 265.633 292.395
8075.65 411.721 360.006 316.67 283.121
8078.38 345.64 371.607 267.06 292.381
8081.11 357.46 351.514 293.413 284.927
8083.84 351.442 363.839 294.307 294.92
8086.57 382.615 353.775 297.039 272.227
8089.3 327.268 364.53 225.336 276.6
8092.03 383.708 339.033 307.425 255.343
8094.76 306.122 351.93 233.267 282.267
8097.49 365.959 350.49 306.107 292.366
8100.22 379.388 377.412 337.723 297.024
8102.95 386.889 373.882 247.241 280.133
8105.68 355.367 363.926 255.435 262.617
8108.4 349.52 343.616 285.174 271.118
8111.13 325.96 335.016 272.746 294.991
8113.86 329.567 331.319 327.052 297.024
8116.59 338.431 339.1 291.275 301.236
8119.31 349.303 349.555 285.381 291.925
8122.04 360.932 353.017 299.12 273.528
8124.77 348.815 367.47 236.084 289.01
8127.49 392.663 356.899 331.827 283.551
8130.22 329.218 356.092 282.742 302.502
8132.95 346.395 356.922 292.938 283.608
8135.67 395.151 360.186 275.145 279.36
8138.4 339.012 362.187 269.997 268.629
8141.12 352.397 353.412 260.744 280.865
8143.85 368.829 337.162 311.854 274.009
8146.57 290.261 324.872 249.43 254.927
8149.3 315.527 319.454 203.496 221.078
8152.02 352.574 339.054 210.308 222.419
8154.75 349.061 342.363 253.454 245.132
8157.47 325.454 336.731 271.634 272.029
8160.19 335.677 330.282 291 262.099
8162.92 329.715 340.878 223.663 256.421
8165.64 357.243 342.196 254.601 234.489
8168.36 339.63 351.137 225.204 244.117
8171.08 356.538 342.411 252.547 226.248
8173.81 331.063 346.984 200.992 235.949
8176.53 353.35 332.798 254.308 231.274
8179.25 313.982 322.56 238.522 249.163
8181.97 300.348 324.409 254.661 257.161
8184.69 358.898 323.471 278.3 261.797
8187.41 311.168 329.133 252.432 257.049
8190.14 317.334 309.898 240.416 233.607
8192.86 301.19 310.006 207.972 226.284
8195.58 311.492 307.349 230.464 224.654
8198.3 309.363 324.674 235.525 228.481
8201.02 353.165 324.052 219.455 216.327
8203.74 309.627 324.067 194 221.942
8206.46 309.409 325.213 252.371 232.909
8209.17 356.605 333.585 252.355 239.415
8211.89 334.742 341.093 213.518 223.736
8214.61 331.934 332.036 205.336 216.549
8217.33 329.432 317.521 230.792 208.833
8220.05 291.196 301.428 190.369 215.347
8222.77 283.654 296.528 224.879 207.464
8225.48 314.733 293.074 207.144 217.996
8228.2 280.833 287.105 221.965 220.668
8230.92 265.748 264.807 232.896 221.066
8233.64 247.839 270.055 208.339 225.108
8236.35 296.579 261.775 234.089 214.681
8239.07 240.907 263.433 201.614 226.667
8241.79 252.813 250.542 244.298 224.792
8244.5 257.906 261.63 228.464 228.409
8247.22 274.169 274.804 212.463 229.742
8249.93 292.338 284.972 248.299 227.118
8252.65 288.408 284.773 220.59 249.054
8255.36 273.572 272.509 278.271 246.845
8258.08 255.548 261.321 241.674 236.042
8260.79 254.842 260.043 188.182 210.633
8263.51 269.74 259.699 202.043 203.929
8266.22 254.514 263.623 221.562 214.831
8268.93 266.614 267.762 220.888 219.032
8271.65 282.159 270.064 214.646 212.226
8274.36 261.419 277.149 201.145 201.724
8277.07 287.868 273.823 189.381 190.84
8279.79 272.18 271.92 181.994 181.901
8282.5 255.711 266.296 174.327 189.647
8285.21 270.998 256.344 212.62 196.905
8287.92 242.323 267.198 203.768 210.843
8290.64 288.272 273.698 216.141 189.391
8293.35 290.499 277.985 148.266 180.586
8296.06 255.184 268.326 177.353 179.735
8298.77 259.294 251.078 213.588 196.761
8301.48 238.757 249.449 199.342 212.809
8304.19 250.297 249.075 225.496 204.379
8306.9 258.17 243.698 188.299 194.727
8309.61 222.627 246.978 170.387 174.442
8312.32 260.135 255.901 164.641 186.937
8315.03 284.941 276.69 225.783 196.144
8317.74 284.993 275.533 198.007 208.348
8320.45 256.666 275.221 201.253 190.3
8323.16 284.005 272.046 171.641 188.656
8325.87 275.466 278.602 193.073 197.469
8328.58 276.336 275.706 227.693 203.477
8331.28 275.315 262.998 189.667 207.251
8333.99 237.342 243.994 204.394 188.99
8336.7 219.325 235.8 172.909 170.647
8339.41 250.733 230.675 134.639 172.316
8342.11 221.967 240.106 209.399 168.536
8344.82 247.62 219.627 161.569 150.046
8347.53 189.295 222.953 79.1703 128.379
8350.23 231.945 202.729 144.398 141.359
8352.94 186.947 228.313 200.507 196.108
8355.64 266.047 240.096 243.42 209.472
8358.35 267.295 249.922 184.488 208.674
8361.06 216.424 253.82 198.113 180.818
8363.76 277.742 251.975 159.852 164.173
8366.47 261.757 260.785 134.554 157.801
8369.17 242.856 254.692 178.996 166.515
8371.87 259.462 243.332 185.995 170.606
8374.58 227.679 261.503 146.828 181.388
8377.28 297.368 263.411 211.34 184.127
8379.99 265.187 277.959 194.214 198.552
8382.69 271.322 259.575 190.101 173.546
8385.39 242.218 257.328 136.325 169.582
8388.09 258.445 245.752 182.322 151.84
8390.8 236.594 256.327 136.874 162.463
8393.5 273.941 275.951 168.193 148.479
8396.2 317.318 296.117 140.371 158.934
8398.9 297.092 299.745 168.239 174.655
8401.6 284.824 276.779 215.355 177.754
8404.31 248.422 260.989 149.669 185.06
8407.01 249.721 260.699 190.156 176.229
8409.71 283.954 264.199 188.862 190.759
8412.41 258.922 265.373 193.259 177.713
8415.11 253.244 252 151.017 182.965
8417.81 243.833 249.016 204.618 175.599
8420.51 249.97 241.259 171.161 170.168
8423.21 229.974 249.325 134.726 143.132
8425.91 268.031 256.099 123.507 118.352
8428.61 270.291 269.433 96.8209 94.9163
8431.3 269.978 265.53 64.4208 96.9112
8434 256.322 271.206 129.492 122.169
8436.7 287.318 254.166 172.595 154.648
8439.4 218.858 249.353 161.857 168.246
8442.1 241.883 242.371 170.285 176.16
8444.79 266.373 251.673 196.338 154.899
8447.49 246.762 251.413 98.073 165.159
8450.19 241.104 256.663 201.066 152.934
8452.88 282.122 250.451 159.662 167.295
8455.58 228.127 253.239 141.156 153.586
8458.28 249.469 241.261 159.94 149.506
8460.97 246.186 265.664 147.422 141.738
8463.67 301.338 281.417 117.853 127.325
8466.36 296.725 260.079 116.7 133.85
8469.06 182.173 258.549 166.996 152.072
8471.75 296.748 261.507 172.519 161.89
8474.45 305.599 280.366 146.154 149.104
8477.14 238.752 266.106 128.638 147.979
8479.84 253.966 261.807 169.144 159.971
8482.53 292.704 279.528 182.13 170.33
8485.22 291.915 295.719 159.717 163.377
8487.92 302.537 287.658 148.285 165.937
8490.61 268.522 266.026 189.808 149.187
8493.3 227.021 257.316 109.466 146.588
8496 276.404 230.402 140.489 122.398
8498.69 187.781 237.264 117.238 107.9
8501.38 247.606 234.051 65.9746 111.134
8504.07 266.767 258.711 150.19 122.743
8506.76 261.761 265.706 152.065 159.579
8509.45 268.589 264.746 176.483 154.953
8512.14 263.888 255.282 136.311 145.023
8514.84 233.368 248.806 122.275 137.34
8517.53 249.161 258.042 153.435 138.198
8520.22 291.598 268.976 138.884 148.421
8522.91 266.169 271.464 152.945 144.133
8525.6 256.626 266.505 140.571 141.639
8528.28 276.719 259.1 131.402 137.879
8530.97 243.954 251.085 141.666 143.972
8533.66 232.582 239.695 158.848 152.399
8536.35 242.549 234.21 156.685 152.044
8539.04 227.498 209.864 140.598 139.043
8541.73 159.546 197.503 119.845 122.544
8544.41 205.467 193.05 107.187 115.4
8547.1 214.136 218.66 119.169 108.907
8549.79 236.378 234.886 100.367 111.306
8552.48 254.145 255.288 114.383 118.5
8555.16 275.342 261.156 140.751 122.678
8557.85 253.981 267.388 112.9 127.343
8560.54 272.842 258.304 128.378 132.113
8563.22 248.089 261.715 155.06 150.253
8565.91 264.213 261.426 167.32 152.77
8568.59 271.977 266.422 135.93 145.157
8571.28 263.076 266.195 132.222 138.866
8573.96 263.531 280.449 148.446 167.309
8576.65 314.742 273.328 221.26 183.077
8579.33 241.711 276.398 179.524 184.931
8582.02 272.743 255.697 154.01 154.345
8584.7 252.639 279.142 129.5 133.982
8587.38 312.045 269.416 118.436 126.936
8590.07 243.565 263.906 132.873 128.699
8592.75 236.108 239.46 134.787 128.494
8595.43 238.707 246.725 117.823 144.494
8598.11 265.359 264.242 180.872 161.995
8600.8 288.66 266.429 187.288 174.112
8603.48 245.27 285.612 154.177 154.51
8606.16 322.908 277.114 122.064 130.814
8608.84 263.165 287.247 116.201 110.679
8611.52 275.668 258.203 93.7711 104.839
8614.2 235.778 255.649 104.543 119.133
8616.88 255.502 257.715 159.084 174.622
8619.56 281.865 272.393 260.237 178.776
8622.24 279.811 287.384 117.007 170.367
8624.92 300.474 285.267 133.857 128.989
8627.6 275.517 287.557 136.103 105.425
8630.28 286.679 272.264 46.3164 83.0115
8632.96 254.597 274.473 66.6154 71.2593
8635.64 282.144 264.302 100.846 84.7493
8638.32 256.166 274.217 86.7864 101.21
8641 284.341 273.625 115.998 108.406
8643.67 280.368 268.262 122.434 133.155
8646.35 240.078 260.092 161.033 133.718
8649.03 259.831 263.665 117.686 127.09
8651.71 291.087 275.599 102.55 110.407
8654.38 275.878 268.851 110.983 102.812
8657.06 239.588 236.646 94.903 88.2355
8659.74 194.472 201.428 58.8201 82.5095
8662.41 170.223 209.456 93.8053 72.8481
8665.09 263.672 219.129 65.919 101.302
8667.76 223.49 240.988 144.181 86.5588
8670.44 235.802 248.91 49.5768 99.0832
8673.11 287.439 257.076 103.492 94.3514
8675.79 247.986 262.683 129.985 110.285
8678.46 252.622 265.251 97.3761 114.184
8681.14 295.145 279.818 115.189 95.6447
8683.81 291.687 289.482 74.3686 100
8686.48 281.612 281.914 110.443 91.7882
8689.16 272.443 281.463 90.5533 119.365
8691.83 290.335 286.45 157.1 114.989
8694.5 296.573 285.099 97.3146 120.779
8697.17 268.39 292.661 107.922 92.1739
8699.85 313.021 273.935 71.2852 85.6062
8702.52 240.393 287.704 77.6115 83.1605
8705.19 309.698 268.958 100.585 102.277
8707.86 256.782 279.825 128.635 126.172
8710.53 272.995 257.796 149.297 132.055
8713.2 243.611 268.144 118.233 114.367
8715.87 287.827 259.9 75.5719 106.297
8718.54 248.263 276.749 125.087 114.028
8721.21 294.158 266.481 141.425 115.964
8723.88 257.021 273.574 81.3791 107.941
8726.55 269.542 269.982 101.019 98.9204
8729.22 283.384 277.317 114.363 106.764
8731.89 279.026 275.177 104.909 115.738
8734.56 263.12 274.43 127.942 115.215
8737.23 281.144 276.631 112.793 121.635
8739.9 285.628 280.364 124.17 107.179
8742.56 274.32 268.137 84.576 102.966
8745.23 244.464 266.785 100.154 97.7928
8747.9 281.573 269.237 108.649 106.009
8750.56 281.675 268.838 109.225 88.1012
8753.23 243.266 263.335 46.4297 82.4293
8755.9 265.064 246.75 91.6331 38.9539
8758.56 231.92 265.634 -21.2012 33.7443
8761.23 299.918 274.763 30.8011 33.8865
8763.9 292.45 297.781 92.0596 73.7434
8766.56 300.974 292.01 98.3696 90.5487
8769.23 282.605 283.083 81.2168 84.3521
8771.89 265.669 280.009 73.47 61.8583
8774.55 291.753 274.818 30.8882 49.931
8777.22 267.031 263.334 45.4348 -6.84038
8779.88 231.219 264.129 -96.8442 -51.4991
8782.55 294.137 251.643 -103.088 -59.8906
8785.21 229.574 265.103 20.2602 -0.65744
8787.87 271.599 249.514 80.8554 50.1924
8790.53 247.369 251.416 49.4616 57.2427
8793.2 235.281 250.613 41.4111 56.6684
8795.86 269.19 258.017 79.1324 67.3174
8798.52 269.579 274.327 81.4086 80.0456
8801.18 284.211 266.288 79.5958 66.6141
8803.84 245.074 264.665 38.8377 55.5869
8806.51 264.71 249.934 48.3273 57.5385
8809.17 240.019 251.413 85.4506 64.8061
8811.83 249.511 249.427 60.6404 58.1201
8814.49 258.752 262.937 28.2695 49.0646
8817.15 280.549 273.916 58.284 43.1988
8819.81 282.449 293.089 43.0428 52.1028
8822.47 316.269 296.724 54.9815 -15.2177
8825.12 291.453 313.27 -143.677 -75.2517
8827.78 332.087 263.01 -137.059 -192.482
8830.44 165.49 254.105 -296.71 -184.402
8833.1 264.739 234.119 -119.436 -164.849
8835.76 272.126 256.697 -78.4005 -59.6949
8838.42 233.224 245.352 18.7515 -11.6382
8841.07 230.707 242.029 24.7344 29.9205
8843.73 262.155 269.119 46.2755 34.2659
8846.39 314.494 308.13 31.7878 21.784
8849.04 347.743 323.402 -12.7114 4.19609
8851.7 307.97 308.044 -6.48806 -9.79115
8854.36 268.42 277.752 -10.1739 17.7616
8857.01 256.866 264.55 69.9469 35.0923
8859.67 268.363 257.136 45.504 36.6763
8862.32 246.179 266.614 -5.42219 18.0057
8864.98 285.301 273.757 13.9353 -18.2621
8867.63 289.791 276.652 -63.2993 -38.7564
8870.29 254.865 274.023 -66.9053 -58.6736
8872.94 277.414 251.514 -45.8162 -47.0451
8875.59 222.262 255.821 -28.4139 -16.3073
8878.25 267.788 241.641 25.3082 -19.4301
8880.9 234.871 277.081 -55.1846 -12.2764
8883.55 328.585 278.909 -6.95289 -52.754
8886.2 273.27 289.834 -96.1246 -99.3459
8888.86 267.647 265.448 -194.96 -101.108
8891.51 255.427 276.391 -12.2393 -24.7533
8894.16 306.099 276.702 132.94 44.7795
8896.81 268.58 290.273 13.6383 64.267
8899.46 296.14 280.561 46.223 28.136
8902.11 276.961 289.725 24.5466 0.624159
8904.76 296.075 286.847 -68.8971 -35.5393
8907.41 287.504 272.482 -62.2673 -19.6417
8910.06 233.868 259.972 72.2394 7.49768
8912.71 258.544 237.172 12.5209 26.4262
8915.36 219.105 250.456 -5.48186 -19.6295
8918.01 273.72 253.804 -65.9276 -51.6511
8920.66 268.585 271.829 -83.544 -104.348
8923.31 273.18 258.539 -163.574 -71.3715
8925.96 233.852 239.519 33.0033 -7.7903
8928.61 211.526 246.108 107.2 71.1068
8931.25 292.945 253.695 73.1174 68.4991
8933.9 256.613 277.929 25.1803 38.0445
8936.55 284.229 274.181 15.8356 11.4625
8939.19 281.701 275.628 -6.62834 -11.8639
8941.84 260.953 269.277 -44.7988 -19.199
8944.49 265.176 256.896 -6.16976 -21.3971
8947.13 244.56 255.267 -13.2226 -19.312
8949.78 256.065 254.927 -38.5436 -31.4908
8952.42 264.156 254.846 -42.7063 -29.905
8955.07 244.315 249.12 -8.46523 -26.4646
8957.71 238.889 257.433 -28.2223 -23.4968
8960.36 289.094 239.695 -33.8029 -14.9897
8963 191.101 228.536 17.0561 0.184522
8965.65 205.412 201.65 17.3003 12.0649
8968.29 208.437 223.803 1.83835 19.7636
8970.93 257.56 235.007 40.1521 7.11799
8973.58 239.024 248.674 -20.6365 4.52232
8976.22 249.438 246.82 -5.94866 -10.8736
8978.86 251.998 265.343 -6.03575 -16.0479
8981.5 294.594 269.379 -36.1592 -27.4643
8984.15 261.543 258.832 -40.1979 -30.4494
8986.79 220.359 237.32 -14.9911 -24.9301
8989.43 230.059 231.88 -19.6013 -12.3919
8992.07 245.224 237.401 -2.58323 -41.9477
8994.71 236.919 242.167 -103.659 -46.4071
8997.35 244.358 229.868 -32.9795 -52.0782
8999.99 208.326 219.8 -19.5966 -32.1227
9002.63 206.715 205.394 -43.7919 -42.1803
9005.27 201.142 204.392 -63.1524 -42.056
9007.91 205.318 197.609 -19.2236 -45.1359
9010.55 186.366 189.867 -53.0318 -42.6043
9013.19 177.917 181.51 -55.5576 -53.108
9015.82 180.247 183.957 -50.7347 -41.7776
9018.46 193.707 194.044 -19.0406 -45.4653
9021.1 208.177 187.243 -66.6205 -56.7663
9023.74 159.845 193.365 -84.6377 -75.1645
9026.37 212.072 194.68 -74.2353 -81.274
9029.01 212.122 209.155 -84.9491 -64.6716
9031.65 203.27 205.035 -34.8306 -52.2531
9034.28 199.711 213.854 -36.9795 -37.7153
9036.92 238.581 208.223 -41.3357 -47.4053
9039.55 186.376 203.807 -63.9006 -47.1082
9042.19 186.465 198.124 -36.0883 -62.487
9044.83 221.53 215.196 -87.4719 -77.8293
9047.46 237.593 216.31 -109.928 -92.7076
9050.09 189.809 208.716 -80.7232 -100.115
9052.73 198.745 189.003 -109.693 -102.252
9055.36 178.455 185.111 -116.339 -116.27
9058 178.133 173.776 -122.778 -102.721
9060.63 164.74 185.508 -69.0446 -98.4691
9063.26 213.65 192.663 -103.585 -82.8286
9065.89 199.599 191.588 -75.8564 -73.3265
9068.53 161.514 186.499 -40.5386 -54.7564
9071.16 198.383 174.337 -47.8741 -46.1396
9073.79 163.115 151.614 -50.006 -19.396
9076.42 93.3462 85.4869 39.6921 -3.43796
