wavelength spectrum_sum 3smoothed_sum spectrum_optimal 3smoothed_optimal
3511.22 18.4041 14.1403 19.9678 12.0598
3514.14 24.0169 30.5815 16.2117 23.8144
3517.06 49.3235 33.4799 35.2636 22.9526
3519.98 27.0993 42.4805 17.3824 22.3291
3522.9 51.0185 39.8561 14.3413 23.3318
3525.82 41.4504 43.1109 38.2718 25.3726
3528.74 36.8637 43.0716 23.5047 31.8705
3531.66 50.9007 40.4128 33.8351 27.8863
3534.58 33.474 41.751 26.3192 29.8373
3537.51 40.8784 33.7555 29.3576 30.5095
3540.43 26.9139 40.9425 35.8517 40.0143
3543.35 55.0351 42.7155 54.8335 44.2523
3546.27 46.1974 48.831 42.0718 45.9555
3549.19 45.2605 44.2985 40.9614 40.1971
3552.11 41.4376 44.3221 37.5581 44.0403
3555.03 46.2681 39.6141 53.6014 43.4517
3557.95 31.1365 31.6403 39.1954 41.8353
3560.87 17.5162 29.7526 32.7091 36.9961
3563.79 40.6052 34.7842 39.0838 42.3761
3566.71 46.2313 41.2372 55.3354 45.7679
3569.63 36.8751 31.4196 42.8845 39.6852
3572.56 11.1524 22.0702 20.8357 34.6096
3575.48 18.1832 20.7467 40.1085 29.1454
3578.4 32.9044 30.244 26.492 28.0461
3581.32 39.6444 31.5712 17.5379 23.374
3584.24 22.1648 26.4706 26.092 23.6841
3587.16 17.6025 27.2937 27.4223 30.967
3590.08 42.1137 39.7051 39.3868 44.5429
3593 59.3992 42.1894 66.8195 47.4678
3595.92 25.0554 42.6072 36.1972 49.5642
3598.84 43.367 41.0994 45.676 44.1142
3601.76 54.8756 46.7441 50.4695 45.0091
3604.68 41.9897 53.4805 38.8819 50.8561
3607.6 63.5762 50.9987 63.217 47.1464
3610.52 47.4303 55.5695 39.3401 52.5922
3613.44 55.702 48.1752 55.2196 42.4686
3616.36 41.3934 57.9936 32.8461 56.3484
3619.28 76.8855 63.1126 80.9795 64.6161
3622.2 71.0589 70.9562 80.0226 71.4879
3625.12 64.9242 64.2377 53.4615 68.4274
3628.04 56.73 66.0084 71.7979 63.0986
3630.96 76.3711 63.1607 64.0363 65.7247
3633.88 56.3811 70.6162 61.3398 66.4697
3636.81 79.0963 77.6152 74.0331 73.6259
3639.73 97.3681 87.3495 85.5047 77.489
3642.65 85.5842 81.7173 72.9291 74.8085
3645.57 62.1995 84.2679 65.9917 74.2744
3648.49 105.02 84.4986 83.9025 78.3499
3651.41 86.2764 101.11 85.1555 90.6777
3654.33 112.034 100.935 102.975 95.4993
3657.25 104.493 98.4021 98.3674 95.5274
3660.17 78.6791 80.5778 85.2396 82.8574
3663.09 58.5613 80.6507 64.9652 82.535
3666.01 104.712 86.4492 97.4002 88.1651
3668.93 96.0747 105.536 102.13 104.213
3671.85 115.822 93.8062 113.109 94.481
3674.77 69.5217 89.6237 68.204 86.8337
3677.69 83.5269 75.2754 79.1878 72.9542
3680.61 72.7776 81.481 71.4709 79.9723
3683.53 88.1384 77.6671 89.2583 77.8778
3686.44 72.0853 91.4351 72.9041 84.5738
3689.36 114.082 91.7063 91.559 81.4405
3692.28 88.9521 102.781 79.8583 92.8045
3695.2 105.308 104.582 106.996 99.7128
3698.12 119.484 105.634 112.284 106.684
3701.04 92.1085 100.306 100.77 100.477
3703.96 89.3265 90.2951 88.3762 87.2595
3706.88 89.4502 93.0478 72.632 83.2711
3709.8 100.367 100.943 88.8052 91.7382
3712.72 113.013 105.629 113.777 95.6295
3715.64 103.506 109.566 84.3058 96.9466
3718.56 112.18 108.886 92.7565 95.828
3721.48 110.973 101.092 110.422 102.281
3724.4 80.1212 84.7367 103.663 97.3435
3727.32 63.1154 70.711 77.9455 89.9946
3730.24 68.8964 67.6133 88.3748 80.0579
3733.16 70.8281 76.4769 73.8533 86.2519
3736.08 89.7062 89.4289 96.5275 101.092
3739 107.753 94.7225 132.894 109.284
3741.92 86.7088 92.8593 98.4313 103.752
3744.83 84.1165 83.3179 79.9319 89.0009
3747.75 79.1283 87.8636 88.6397 85.2276
3750.67 100.346 84.919 87.1113 83.0273
3753.59 75.2826 84.4817 73.331 80.1841
3756.51 77.8164 84.8695 80.1099 87.7165
3759.43 101.509 87.6966 109.708 93.2125
3762.35 83.764 96.8049 89.8191 102.723
3765.27 105.141 109.356 108.643 112.512
3768.19 139.163 123.281 139.074 127.784
3771.11 125.537 134.892 135.635 138.479
3774.03 139.974 132.464 140.729 144.55
3776.94 131.88 137.615 157.285 147.676
3779.86 140.991 137.234 145.014 152.864
3782.78 138.832 121.41 156.294 143.401
3785.7 84.4068 115.194 128.895 144.7
3788.62 122.343 113.926 148.912 139.194
3791.54 135.027 126.076 139.775 141.671
3794.46 120.858 133.778 136.325 136.828
3797.38 145.448 129.996 134.384 134.03
3800.29 123.681 134.471 131.381 137.534
3803.21 134.282 114.829 146.836 125.854
3806.13 86.5223 110.567 99.3459 130.833
3809.05 110.897 91.8362 146.316 110.181
3811.97 78.0894 114.23 84.8803 137.271
3814.89 153.705 104.125 180.615 124.144
3817.81 80.5812 114.646 106.937 142.513
3820.72 109.651 92.8701 139.987 117.086
3823.64 88.3784 106.147 104.335 124.262
3826.56 120.412 94.6834 128.463 104.064
3829.48 75.2601 101.321 79.3923 105.453
3832.4 108.291 90.8105 108.503 90.4498
3835.32 88.8798 101.424 83.4543 97.3642
3838.23 107.102 98.8229 100.136 89.6229
3841.15 100.487 98.0946 85.279 89.124
3844.07 86.695 99.7449 81.9575 94.6329
3846.99 112.053 115.786 116.662 110.994
3849.91 148.61 119.022 134.362 115.593
3852.83 96.4028 113.04 95.756 108.182
3855.74 94.1085 90.194 94.4283 94.5085
3858.66 80.0708 93.9134 93.3411 108.777
3861.58 107.561 98.7321 138.56 107.807
3864.5 108.565 106.881 91.5181 114.384
3867.42 104.519 91.909 113.074 95.5231
3870.33 62.6435 89.6785 81.9777 112.901
3873.25 101.873 94.2691 143.652 127.8
3876.17 118.291 104.764 157.769 138.036
3879.09 94.1291 112.773 112.688 133.881
3882.01 125.9 109.733 131.186 126.585
3884.92 109.171 122.243 135.881 133.831
3887.84 131.657 137.329 134.426 145.891
3890.76 171.159 163.038 167.365 160.212
3893.68 186.298 180.747 178.845 176.22
3896.59 184.783 188.032 182.451 185.607
3899.51 193.014 186.289 195.525 185.406
3902.43 181.071 204.498 178.243 203.466
3905.35 239.409 206.687 236.631 216.494
3908.26 199.58 221.281 234.608 229.732
3911.18 224.855 206.616 217.955 227.693
3914.1 195.413 193.528 230.516 217.336
3917.02 160.317 168.779 203.535 224.334
3919.93 150.608 151.472 238.951 214.293
3922.85 143.492 137.544 200.393 201.172
3925.77 118.533 138.252 164.171 172.771
3928.69 152.73 127.365 153.749 152.437
3931.6 110.832 115.04 139.391 127.074
3934.52 81.5585 99.7039 88.0822 106.946
3937.44 106.721 119.147 93.3643 121.471
3940.35 169.162 149.547 182.965 155.823
3943.27 172.757 175.155 191.14 196.954
3946.19 183.547 178.098 216.756 211.272
3949.1 177.991 190.63 225.918 235.178
3952.02 210.351 188.365 262.861 241.578
3954.94 176.753 190.295 235.954 239.722
3957.86 183.781 179.519 220.35 229.477
3960.77 178.023 159.528 232.127 197.283
3963.69 116.781 132.724 139.371 159.905
3966.61 103.367 126.702 108.216 134.3
3969.52 159.957 147.812 155.313 151.089
3972.44 180.111 192.927 189.738 195.775
3975.36 238.713 211.107 242.274 215.461
3978.27 214.497 232.958 214.37 235.04
3981.19 245.665 235.745 248.477 241.071
3984.11 247.072 257.173 260.366 271.539
3987.02 278.781 268.451 305.775 296.394
3989.94 279.501 293.632 323.041 334.657
3992.86 322.614 295.059 375.155 339.137
3995.77 283.062 308.256 319.217 338.687
3998.69 319.093 320.669 321.689 328.532
4001.6 359.854 335.75 344.691 336.865
4004.52 328.304 343.635 344.215 357.022
4007.44 342.746 338.822 382.159 367.372
4010.35 345.416 333.527 375.742 368.221
4013.27 312.419 325.757 346.763 358.297
4016.19 319.435 324.502 352.384 360.124
4019.1 341.651 338.67 381.225 378.903
4022.02 354.924 353.917 403.099 387.82
4024.93 365.176 357.561 379.137 391.628
4027.85 352.585 357.488 392.647 384.12
4030.77 354.704 345.611 380.578 392.317
4033.68 329.545 342.089 403.726 401.768
4036.6 342.017 338.65 420.999 407.087
4039.51 344.389 352.936 396.535 426.575
4042.43 372.402 352.751 462.191 423.779
4045.34 341.462 356.321 412.612 438.421
4048.26 355.1 336.36 440.461 407.534
4051.18 312.517 333.277 369.53 410.085
4054.09 332.214 310.718 420.264 377.567
4057.01 287.423 303.102 342.906 364.462
4059.92 289.669 317.863 330.217 362.316
4062.84 376.498 324.022 413.825 366.89
4065.75 305.899 316.684 356.628 362.741
4068.67 267.656 318.533 317.771 365.115
4071.58 382.044 359.403 420.947 403.388
4074.5 428.509 402.979 471.447 449.492
4077.42 398.384 396.461 456.083 450.733
4080.33 362.489 400.91 424.67 455.956
4083.25 441.858 397.227 487.116 462.16
4086.16 387.333 402.172 474.695 472.351
4089.08 377.324 393.736 455.241 473.816
4091.99 416.552 382.153 491.513 452.723
4094.91 352.583 389.675 411.415 457.139
4097.82 399.892 380.641 468.49 451.963
4100.74 389.448 374.532 475.986 442.333
4103.65 334.258 375.888 382.524 443.75
4106.57 403.957 378.035 472.739 435.428
4109.48 395.89 421.962 451.021 478.864
4112.4 466.038 416.395 512.833 476.128
4115.31 387.256 419.938 464.531 482.229
4118.23 406.521 399.117 469.324 457.087
4121.14 403.573 411.431 437.406 467.1
4124.05 424.199 434.738 494.57 487.719
4126.97 476.443 431.326 531.181 507.09
4129.88 393.337 441.179 495.518 513.296
4132.8 453.758 428.147 513.19 508.593
4135.71 437.345 434.764 517.071 506.593
4138.63 413.189 416.693 489.517 492.601
4141.54 399.544 417.781 471.213 493.026
4144.46 440.609 418.443 518.347 494.606
4147.37 415.176 405.35 494.258 485.956
4150.28 360.265 387.338 445.263 477.356
4153.2 386.575 374.17 492.547 463.495
4156.11 375.67 408.843 452.675 501.845
4159.03 464.286 426.293 560.313 520.287
4161.94 438.922 436.246 547.872 527.245
4164.86 405.531 422.925 473.552 515.603
4167.77 424.323 425.636 525.385 505.749
4170.68 447.054 420.562 518.311 500.153
4173.6 390.308 422.298 456.762 495.399
4176.51 429.53 427.175 511.123 506.32
4179.42 461.687 435.602 551.074 523.07
4182.34 415.588 439.852 507.012 530.355
4185.25 442.28 448.786 532.979 530.649
4188.17 488.489 442.262 551.956 531.754
4191.08 396.017 434.112 510.328 524.437
4193.99 417.831 400.059 511.028 502.253
4196.91 386.33 401.902 485.403 492.631
4199.82 401.545 434.564 481.462 518.169
4202.73 515.818 451.045 587.641 529.852
4205.65 435.771 468.08 520.452 554.031
4208.56 452.65 456.672 554.001 559.639
4211.47 481.596 456.029 604.464 572.123
4214.39 433.842 477.354 557.906 602.953
4217.3 516.622 483.378 646.49 605.684
4220.21 499.669 487.666 612.657 605.641
4223.13 446.708 472.118 557.777 573.057
4226.04 469.976 459.547 548.738 563.819
4228.95 461.958 469.012 584.942 568.586
4231.87 475.102 483.696 572.078 585.815
4234.78 514.029 507.915 600.426 593.444
4237.69 534.613 522.308 607.828 597.96
4240.6 518.281 533.238 585.626 605.075
4243.52 546.819 503.246 621.771 581.43
4246.43 444.636 503.866 536.892 595.737
4249.34 520.142 471.482 628.547 582.491
4252.26 449.668 467.243 582.035 585.431
4255.17 431.92 470.157 545.709 587.228
4258.08 528.884 489.195 633.938 603.104
4260.99 506.78 529.685 629.664 637.578
4263.91 553.392 515.207 649.133 624.245
4266.82 485.449 509.908 593.936 625.46
4269.73 490.882 492.952 633.31 618.064
4272.64 502.523 507.804 626.946 647.192
4275.56 530.006 503.168 681.319 633.521
4278.47 476.977 496.066 592.298 629.915
4281.38 481.217 465.925 616.128 595.186
4284.29 439.581 464.079 577.131 586.557
4287.2 471.439 479.544 566.412 581.627
4290.12 527.611 491.423 601.337 575.847
4293.03 475.22 478.935 559.793 566.039
4295.94 433.974 446.572 536.987 545.595
4298.85 430.523 424.077 540.004 526.704
4301.76 407.735 409.076 503.122 506.475
4304.68 388.97 386.145 476.299 476.213
4307.59 361.731 407.275 449.22 483.519
4310.5 471.125 452.621 525.038 538.523
4313.41 525.007 499.9 641.313 608.574
4316.32 503.569 512.587 659.372 638.74
4319.23 509.184 507.877 615.536 621.171
4322.15 510.877 536.948 588.605 630.211
4325.06 590.783 569.193 686.491 669.143
4327.97 605.919 630.39 732.334 758.268
4330.88 694.469 629.087 855.981 785.53
4333.79 586.874 600.166 768.276 763.302
4336.7 519.156 540.827 665.648 697.371
4339.61 516.451 543.779 658.189 683.499
4342.52 595.729 596.702 726.658 711.33
4345.44 677.927 639.142 749.142 747.936
4348.35 643.769 649.64 768.008 755.637
4351.26 627.225 625.215 749.762 749.189
4354.17 604.649 613.858 729.798 749.4
4357.08 609.698 602.303 768.641 746.131
4359.99 592.561 619 739.955 770.947
4362.9 654.74 608.839 804.245 758.331
4365.81 579.217 629.163 730.793 780.468
4368.72 653.533 605.939 806.365 762.749
4371.63 585.067 633.893 751.09 784.931
4374.54 663.079 639.386 797.337 793.547
4377.45 670.011 620.472 832.213 769.619
4380.36 528.325 597.953 679.306 749.462
4383.27 595.523 566.554 736.868 718.913
4386.19 575.815 605.123 740.565 757.746
4389.1 644.029 616.418 795.806 767.468
4392.01 629.408 613.75 766.034 758.013
4394.92 567.813 599.362 712.201 738.235
4397.83 600.866 600.815 736.472 732.853
4400.74 633.765 619.923 749.885 749.773
4403.65 625.139 627.382 762.96 759.816
4406.56 623.242 648.364 766.603 784.176
4409.47 696.713 660.868 822.966 794.099
4412.38 662.651 692.51 792.728 832.638
4415.29 718.167 703.652 882.221 858.033
4418.2 730.137 709.913 899.151 879.9
4421.11 681.436 675.126 858.329 844.314
4424.02 613.806 673.377 775.462 843.068
4426.92 724.888 668.731 895.412 839.642
4429.83 667.5 694.357 848.053 869.051
4432.74 690.684 697.811 863.688 883.483
4435.65 735.25 698.39 938.708 887.386
4438.56 669.236 714.064 859.761 899.673
4441.47 737.705 714.191 900.55 901.459
4444.38 735.631 747.346 944.067 938.01
4447.29 768.702 732.878 969.412 935.463
4450.2 694.301 725.003 892.908 925.238
4453.11 712.007 696.633 913.394 907.754
4456.02 683.59 680.43 916.959 894.103
4458.93 645.692 684.744 851.955 890.038
4461.84 724.95 711.103 901.201 903.275
4464.74 762.667 746.527 956.668 937.534
4467.65 751.962 744.406 954.734 938.03
4470.56 718.589 741.435 902.689 948.534
4473.47 753.753 734.946 988.179 947.606
4476.38 732.496 740.712 951.95 968.118
4479.29 735.887 768.843 964.226 987.953
4482.2 838.145 775.311 1047.68 1006.54
4485.11 751.901 809.245 1007.71 1029.32
4488.01 837.69 779.855 1032.56 1002.04
4490.92 749.975 791.69 965.835 995.683
4493.83 787.405 802.87 988.653 1021.78
4496.74 871.23 834.644 1110.84 1046.33
4499.65 845.297 859.222 1039.51 1071.4
4502.56 861.139 856.538 1063.86 1067.26
4505.46 863.177 849.402 1098.4 1074.06
4508.37 823.89 850.426 1059.92 1088.4
4511.28 864.211 856.506 1106.88 1093.84
4514.19 881.418 883.355 1114.72 1121.38
4517.1 904.434 874.406 1142.55 1121.41
4520 837.364 856.947 1106.98 1103.38
4522.91 829.042 822.019 1060.63 1060.1
4525.82 799.651 822.856 1012.7 1045.22
4528.73 839.873 819.508 1062.33 1034.74
4531.63 818.999 838.566 1029.21 1054.8
4534.54 856.826 839.54 1072.88 1060.66
4537.45 842.794 820.177 1079.88 1052.04
4540.36 760.912 822.204 1003.34 1062.02
4543.26 862.907 805.551 1102.83 1052.49
4546.17 792.834 859.321 1051.3 1098.53
4549.08 922.222 875.005 1141.47 1111.8
4551.99 909.959 912.156 1142.62 1150.34
4554.89 904.288 880.361 1166.93 1138.45
4557.8 826.835 890.542 1105.8 1153.15
4560.71 940.502 875.136 1186.71 1142.82
4563.61 858.072 909.453 1135.96 1182.13
4566.52 929.784 894.948 1223.71 1180.15
4569.43 896.988 906.225 1180.78 1194.76
4572.33 891.905 888.858 1179.78 1173.73
4575.24 877.683 865.595 1160.64 1138.51
4578.15 827.199 852.857 1075.11 1132.1
4581.05 853.689 833.369 1160.56 1119.73
4583.96 819.219 838.782 1123.52 1141.43
4586.87 843.44 872.615 1140.23 1163.06
4589.77 955.187 879.101 1225.43 1162.88
4592.68 838.676 876.802 1122.99 1158.78
4595.59 836.544 854.467 1127.91 1152.25
4598.49 888.181 854.667 1205.85 1154.18
4601.4 839.275 877.396 1128.77 1180.46
4604.3 904.73 873.727 1206.77 1173.05
4607.21 877.176 901.541 1183.6 1202.68
4610.12 922.716 900.271 1217.66 1203.72
4613.02 900.921 916.472 1209.91 1210.14
4615.93 925.779 918.993 1202.86 1206.39
4618.83 930.279 932.382 1206.39 1214.01
4621.74 941.087 933.577 1232.79 1245.08
4624.65 929.367 947.96 1296.08 1279.89
4627.55 973.425 922.077 1310.8 1258.9
4630.46 863.439 944.013 1169.83 1256.61
4633.36 995.175 907.377 1289.2 1216.25
4636.27 863.516 928.769 1189.73 1241.24
4639.17 927.617 922.895 1244.78 1241.07
4642.08 977.553 935.029 1288.71 1256.42
4644.98 899.916 919.937 1235.78 1247.73
4647.89 882.343 890.999 1218.72 1223.43
4650.79 890.739 904.798 1215.81 1234.81
4653.7 941.311 914.562 1269.91 1248.2
4656.6 911.636 917.439 1258.87 1247.7
4659.51 899.371 876.95 1214.32 1199.73
4662.41 819.843 858.649 1126 1181
4665.32 856.732 835.596 1202.67 1151.91
4668.22 830.214 843.466 1127.04 1170.2
4671.13 843.452 857.828 1180.87 1176.48
4674.03 899.816 874.842 1221.53 1200.37
4676.94 881.259 907.378 1198.71 1232.78
4679.84 941.06 902.954 1278.08 1218.69
4682.75 886.543 917.683 1179.26 1233.13
4685.65 925.445 901.976 1242.06 1212.18
4688.55 893.938 899.012 1215.21 1216.72
4691.46 877.654 895.366 1192.89 1221.91
4694.36 914.506 857.418 1257.64 1179.87
4697.27 780.096 887.365 1089.08 1219.02
4700.17 967.494 861.385 1310.34 1192.97
4703.07 836.565 912.627 1179.48 1253.46
4705.98 933.823 870.828 1270.56 1208.54
4708.88 842.095 885.643 1175.6 1216.46
4711.79 881.01 845.248 1203.23 1175.34
4714.69 812.64 896.032 1147.19 1244.61
4717.59 994.445 937.185 1383.41 1298.99
4720.5 1004.47 994.914 1366.37 1361.39
4723.4 985.829 974.179 1334.39 1327.14
4726.3 932.239 936.85 1280.65 1280.65
4729.21 892.481 946.004 1226.91 1281.26
4732.11 1013.29 968.211 1336.22 1307.59
4735.01 998.859 989.386 1359.64 1332.5
4737.92 956.008 983.713 1301.63 1328.5
4740.82 996.271 1000.52 1324.24 1336.06
4743.72 1049.29 1023.71 1382.32 1357.88
4746.63 1025.57 1001.92 1367.08 1362.08
4749.53 930.907 956.405 1336.83 1326.71
4752.43 912.741 925.423 1276.24 1297.19
4755.33 932.62 941.1 1278.51 1301.63
4758.24 977.938 974.078 1350.14 1330.79
4761.14 1011.67 978.158 1363.72 1342.79
4764.04 944.861 983.15 1314.52 1330.79
4766.94 992.913 942.467 1314.14 1289.04
4769.85 889.628 980.291 1238.48 1321.65
4772.75 1058.33 990.583 1412.34 1360.65
4775.65 1023.79 1059.68 1431.12 1436.2
4778.55 1096.92 1035.41 1465.14 1426.83
4781.46 985.508 1016.43 1384.25 1404.05
4784.36 966.868 987.693 1362.76 1390.55
4787.26 1010.7 1006.36 1424.66 1404.59
4790.16 1041.51 1040.95 1426.36 1428.53
4793.06 1070.63 1057.2 1434.58 1429.06
4795.97 1059.46 1067.62 1426.24 1432.74
4798.87 1072.78 1023.74 1437.42 1410.36
4801.77 938.992 972.586 1367.42 1364.2
4804.67 905.985 951.163 1287.75 1346.3
4807.57 1008.51 981.925 1383.73 1368.92
4810.47 1031.28 1003.54 1435.29 1395.74
4813.37 970.835 1034.56 1368.21 1422.61
4816.28 1101.57 1049.25 1464.34 1431.74
4819.18 1075.34 1066.56 1462.67 1447.73
4822.08 1022.79 1074.43 1416.18 1468.56
4824.98 1125.15 1041.64 1526.82 1442
4827.88 976.982 1044.74 1383 1432.14
4830.78 1032.11 999.248 1386.59 1390.7
4833.68 988.656 1033.05 1402.52 1413.3
4836.58 1078.39 1041.61 1450.78 1423.84
4839.48 1057.8 1050.88 1418.22 1421.11
4842.38 1016.47 1038.22 1394.34 1410.59
4845.28 1040.41 1038.93 1419.2 1420
4848.19 1059.92 1005.5 1446.46 1387.13
4851.09 916.168 953.875 1295.72 1337.81
4853.99 885.537 874.731 1271.24 1249.8
4856.89 822.486 844.007 1182.44 1217.51
4859.79 823.999 842.587 1198.85 1195.98
4862.69 881.276 881.086 1206.65 1232.76
4865.59 937.984 896.32 1292.79 1243.11
4868.49 869.7 897.66 1229.89 1253.19
4871.39 885.295 888.909 1236.87 1233.78
4874.29 911.733 932.522 1234.57 1283.74
4877.19 1000.54 957.796 1379.79 1311.89
4880.09 961.116 977.298 1321.32 1345.62
4882.99 970.241 979.961 1335.75 1356.05
4885.89 1008.53 970.979 1411.09 1345.97
4888.78 934.17 979.242 1291.07 1366.75
4891.68 995.029 971.134 1398.08 1360.09
4894.58 984.202 983.004 1391.13 1399.04
4897.48 969.781 989.68 1407.92 1415.84
4900.38 1015.06 991.436 1448.48 1413.68
4903.28 989.469 1023.82 1384.65 1438.42
4906.18 1066.93 1047.31 1482.13 1449.49
4909.08 1085.52 1052.59 1481.71 1454.54
4911.98 1005.33 1032.32 1399.8 1444.57
4914.88 1006.1 980.879 1452.21 1388.9
4917.78 931.204 954.586 1314.67 1368.28
4920.67 926.45 943.434 1337.97 1352.02
4923.57 972.647 985.647 1403.41 1405.65
4926.47 1057.84 1007.97 1475.56 1428.02
4929.37 993.427 1041.18 1405.09 1454.2
4932.27 1072.28 1021.07 1481.95 1426.47
4935.17 997.497 1052.36 1392.37 1450.72
4938.07 1087.29 1025.69 1477.85 1422.34
4940.96 992.292 1065.38 1396.79 1460.79
4943.86 1116.55 1053.67 1507.73 1465.36
4946.76 1052.18 1085.61 1491.57 1502.13
4949.66 1088.09 1072.02 1507.1 1496.64
4952.56 1075.81 1060.27 1491.26 1485.91
4955.45 1016.93 1070.19 1459.38 1484.28
4958.35 1117.85 1075.04 1502.18 1503.24
4961.25 1090.36 1101.06 1548.15 1523.73
4964.15 1094.99 1071.01 1520.87 1505.69
4967.04 1027.68 1057.04 1448.05 1504.69
4969.94 1048.46 1078.98 1545.15 1537.59
4972.84 1160.79 1124.08 1619.57 1578.55
4975.74 1162.98 1126.08 1570.94 1547.46
4978.63 1054.47 1093.3 1451.87 1500.37
4981.53 1062.44 1062.23 1478.3 1476.5
4984.43 1069.78 1083.9 1499.34 1522.07
4987.32 1119.48 1097.82 1588.58 1533.1
4990.22 1104.19 1103.54 1511.39 1538.03
4993.12 1086.95 1084.78 1514.14 1500.63
4996.01 1063.19 1095.92 1476.36 1505.82
4998.91 1137.63 1107.14 1526.95 1515.45
5001.81 1120.6 1093.55 1543.03 1502.84
5004.7 1022.43 1061.04 1438.55 1493.04
5007.6 1040.11 1027.46 1497.54 1474.09
5010.5 1019.84 1007.45 1486.18 1448.92
5013.39 962.4 994.107 1363.05 1413.88
5016.29 1000.08 999.129 1392.42 1410.38
5019.18 1034.91 1020.28 1475.68 1448.17
5022.08 1025.86 1008.61 1476.41 1437.97
5024.98 965.055 1035.11 1361.82 1467.04
5027.87 1114.41 1025.32 1562.89 1442.38
5030.77 996.477 1057.9 1402.42 1493.26
5033.66 1062.81 1027.72 1514.46 1439.86
5036.56 1023.88 1036.82 1402.7 1447.29
5039.46 1023.76 1006.38 1424.69 1422.17
5042.35 971.496 1043.16 1439.13 1464.5
5045.25 1134.22 1049.97 1529.69 1480.21
5048.14 1044.18 1076.45 1471.82 1509.72
5051.04 1050.94 1075.1 1527.66 1546.86
5053.93 1130.19 1076.95 1641.11 1560.84
5056.83 1049.73 1082.81 1513.76 1571.31
5059.72 1068.5 1064.8 1559.04 1542.42
5062.62 1076.17 1078.83 1554.45 1538.54
5065.51 1091.82 1110.89 1502.12 1550.3
5068.41 1164.68 1130.89 1594.34 1556.49
5071.3 1136.17 1154.48 1573 1587.04
5074.2 1162.59 1119.67 1593.79 1570.58
5077.09 1060.24 1110.16 1544.96 1564.56
5079.98 1107.64 1088.31 1554.92 1570.82
5082.88 1097.05 1094.3 1612.58 1555.15
5085.77 1078.2 1114.95 1497.95 1581.2
5088.67 1169.6 1150.63 1633.07 1612.62
5091.56 1204.1 1188.01 1706.86 1657.54
5094.46 1190.32 1128.32 1632.69 1592.17
5097.35 990.532 1092.92 1436.96 1563.53
5100.24 1097.89 1087.9 1620.93 1547.82
5103.14 1175.28 1112.15 1585.59 1576.64
5106.03 1063.29 1086.95 1523.42 1531.34
5108.92 1022.29 1084.21 1485.02 1543.47
5111.82 1167.06 1111.62 1621.97 1571.01
5114.71 1145.51 1144.85 1606.05 1615.25
5117.6 1121.98 1114.78 1617.72 1597.2
5120.5 1076.86 1104.73 1567.82 1597.18
5123.39 1115.36 1090.71 1605.99 1577.22
5126.28 1079.9 1084.64 1557.85 1575.99
5129.18 1058.65 1085.3 1564.13 1577.76
5132.07 1117.35 1070.02 1611.29 1562.41
5134.96 1034.05 1064.39 1511.8 1567.49
5137.86 1041.78 1065.4 1579.39 1554.01
5140.75 1120.37 1088.4 1570.85 1590.28
5143.64 1103.06 1090.25 1620.61 1570.87
5146.53 1047.32 1042.35 1521.15 1543.38
5149.43 976.676 1032.74 1488.39 1528
5152.32 1074.24 1067.58 1574.45 1566.13
5155.21 1151.83 1143.99 1635.57 1638.38
5158.1 1205.9 1104.78 1705.12 1592.93
5160.99 956.612 1042.23 1438.1 1514.41
5163.89 964.17 933.117 1400.02 1381.43
5166.78 878.569 894.143 1306.17 1329.1
5169.67 839.689 908.974 1281.1 1339.65
5172.56 1008.66 958.1 1431.68 1407.55
5175.45 1025.95 1016.58 1509.87 1480.24
5178.35 1015.13 988.383 1499.17 1463.21
5181.24 924.076 1000.7 1380.59 1463.44
5184.13 1062.89 1010.22 1510.57 1469.18
5187.02 1043.69 1036.47 1516.39 1506.71
5189.91 1002.84 1052.68 1493.18 1530.17
5192.8 1111.52 1055.65 1580.94 1556.85
5195.69 1052.58 1121.62 1596.44 1621.58
5198.58 1200.76 1131.22 1687.37 1650.35
5201.47 1140.32 1161.25 1667.24 1676.66
5204.37 1142.69 1116.28 1675.36 1634.88
5207.26 1065.83 1093.82 1562.03 1624.31
5210.15 1072.95 1096.21 1635.54 1630.1
5213.04 1149.85 1142.7 1692.73 1697.17
5215.93 1205.31 1168.32 1763.25 1727
5218.82 1149.81 1158.14 1725.01 1732.64
5221.71 1119.29 1102.79 1709.67 1670.04
5224.6 1039.28 1084.2 1575.43 1638.88
5227.49 1094.04 1084.75 1631.54 1614.36
5230.38 1120.94 1116.26 1636.12 1636.58
5233.27 1133.81 1116.08 1642.08 1641.79
5236.16 1093.5 1146.61 1647.17 1684.92
5239.05 1212.53 1188.48 1765.52 1737.33
5241.94 1259.4 1204.94 1799.29 1746.22
5244.83 1142.89 1163.13 1673.84 1715.6
5247.72 1087.11 1126.53 1673.66 1700.26
5250.61 1149.59 1120.89 1753.27 1705.43
5253.5 1125.96 1171.65 1689.37 1754.76
5256.38 1239.41 1182.29 1821.65 1748.47
5259.27 1181.5 1160.91 1734.39 1710.07
5262.16 1061.83 1091.29 1574.15 1605.33
5265.05 1030.53 1048.07 1507.46 1543.91
5267.94 1051.83 1032.84 1550.12 1544.56
5270.83 1016.17 1036.85 1576.12 1592.77
5273.72 1042.54 1034.26 1652.07 1624.52
5276.61 1044.06 1042.21 1645.37 1668.07
5279.5 1040.04 1055.37 1706.77 1671.61
5282.38 1082.02 1071.06 1662.69 1689.41
5285.27 1091.11 1124.5 1698.78 1735.29
5288.16 1200.38 1143.78 1844.39 1773.04
5291.05 1139.84 1096.4 1775.93 1812.93
5293.94 948.971 1053.92 1818.48 1766.36
5296.82 1072.96 964.243 1704.66 1744.86
5299.71 870.798 1027.32 1711.45 1736.33
5302.6 1138.22 1083.54 1792.87 1806.96
5305.49 1241.59 1195.56 1916.56 1872.78
5308.38 1206.86 1200.13 1908.92 1884.73
5311.26 1151.93 1170.06 1828.72 1858.35
5314.15 1151.4 1129.9 1837.42 1817.3
5317.04 1086.36 1094.31 1785.76 1776.45
5319.92 1045.17 1088.87 1706.16 1762.72
5322.81 1135.09 1079.35 1796.25 1740.01
5325.7 1057.79 1014.23 1717.61 1727.09
5328.59 849.804 985.981 1667.41 1691.5
5331.47 1050.35 994.345 1689.49 1714.5
5334.36 1082.88 1023.09 1786.58 1746.34
5337.25 936.043 1038.1 1762.93 1758.56
5340.13 1095.38 1037.69 1726.15 1731.79
5343.02 1081.67 1122.94 1706.28 1759.79
5345.91 1191.79 1129.13 1846.92 1790.09
5348.79 1113.92 1168.32 1817.07 1837.83
5351.68 1199.24 1189.03 1849.48 1875.3
5354.56 1253.94 1154.43 1959.35 1907.73
5357.45 1010.13 1050.74 1914.34 1884.75
5360.34 888.158 1009.78 1780.54 1834.67
5363.22 1131.04 1052.17 1809.14 1786.11
5366.11 1137.32 1151.12 1768.65 1792.68
5368.99 1185 1160.31 1800.26 1804.05
5371.88 1158.62 1164.78 1843.24 1815.92
5374.76 1150.7 1166.54 1804.25 1842.65
5377.65 1190.3 1113.39 1880.47 1840.68
5380.54 999.162 1135.93 1837.31 1868.8
5383.42 1218.32 1125.09 1888.62 1872.99
5386.31 1157.78 1185.09 1893.03 1882.21
5389.19 1179.17 1131.15 1864.98 1840.96
5392.08 1056.5 1090.75 1764.86 1770.67
5394.96 1036.58 1006.17 1682.17 1742.51
5397.85 925.425 918.798 1780.5 1713.05
5400.73 794.387 914.034 1676.47 1699.9
5403.61 1022.29 969.645 1642.73 1688.05
5406.5 1092.26 1064.09 1744.95 1693.33
5409.38 1077.73 1108.1 1692.3 1762.97
5412.27 1154.32 1065.28 1851.67 1787.38
5415.15 963.801 1059.03 1818.18 1789.69
5418.04 1058.96 1032.24 1699.23 1760.42
5420.92 1073.95 1068.36 1763.84 1744.29
5423.8 1072.18 1090.28 1769.79 1766.8
5426.69 1124.72 1087.96 1766.77 1749.99
5429.57 1066.98 1094.57 1713.4 1751.88
5432.45 1092.02 1022.77 1775.46 1773.75
5435.34 909.322 1071.64 1832.38 1840.51
5438.22 1213.57 1095.64 1913.7 1865.11
5441.1 1164.03 1157.26 1849.25 1841.59
5443.99 1094.17 1154.42 1761.82 1846.91
5446.87 1205.07 1161.4 1929.66 1858.73
5449.75 1184.96 1102.96 1884.69 1888.43
5452.64 918.856 1089.15 1850.93 1851.95
5455.52 1163.65 1094.73 1820.22 1847.84
5458.4 1201.7 1143.92 1872.37 1814.61
5461.28 1066.4 1148.75 1751.25 1829.98
5464.17 1178.16 1156.95 1866.33 1846.41
5467.05 1226.3 1158.87 1921.65 1852.44
5469.93 1072.15 1141.96 1769.33 1834.18
5472.81 1127.44 1119.31 1811.56 1807.31
5475.7 1158.34 1088.27 1841.04 1846.14
5478.58 979.033 1125.47 1885.83 1876.38
5481.46 1239.03 1060.32 1902.27 1884.95
5484.34 962.911 1096.49 1866.73 1870.37
5487.22 1087.53 1023.35 1842.1 1878.08
5490.1 1019.6 1049.3 1925.4 1898.76
5492.99 1040.77 1071.58 1928.77 1907.31
5495.87 1154.36 1121.31 1867.76 1897.21
5498.75 1168.81 1161.51 1895.1 1874.82
5501.63 1161.36 1167.1 1861.61 1887.92
5504.51 1171.14 1169.22 1907.04 1891.27
5507.39 1175.17 1172.26 1905.16 1874.76
5510.27 1170.48 1173.48 1812.1 1857.57
5513.15 1174.79 1101.99 1855.47 1850.15
5516.03 960.683 1157.51 1882.9 1920.15
5518.92 1337.06 1166.87 2022.07 1925.93
5521.8 1202.86 1237.45 1872.83 1911.42
5524.68 1172.43 1193.62 1839.36 1859.51
5527.56 1205.56 1173.73 1866.34 1851.36
5530.44 1143.2 1194.75 1848.38 1873.24
5533.32 1235.49 1188.22 1905 1874.46
5536.2 1185.97 1219.4 1869.99 1909.36
5539.08 1236.75 1120.04 1953.08 1900.69
5541.96 937.387 1131.1 1878.99 1931.21
5544.84 1219.17 1122.44 1961.54 1917.41
5547.72 1210.76 1233.65 1911.69 1965.67
5550.6 1271.04 1156.8 2023.78 1932.87
5553.47 988.597 1141.24 1863.15 1904.53
5556.35 1164.08 1118.91 1826.66 1875.58
5559.23 1204.06 1165.13 1936.93 1846.24
5562.11 1127.26 1156.09 1775.13 1852.11
5564.99 1136.94 1120.7 1844.28 1791.63
5567.87 1097.89 1151.37 1755.48 1845.42
5570.75 1219.29 1175.65 1936.51 1851.87
5573.63 1209.77 1209.48 1863.64 1895.78
5576.51 1199.37 1187.92 1887.2 1845.87
5579.38 1154.61 1173.69 1786.78 1828.47
5582.26 1167.08 1153.02 1811.44 1793.53
5585.14 1137.37 1124.76 1782.39 1758.45
5588.02 1069.84 1124.53 1681.53 1752.12
5590.9 1166.38 1126.29 1792.42 1753.22
5593.78 1142.64 1071.27 1785.71 1806.78
5596.65 904.773 1057.99 1842.22 1796.55
5599.53 1126.55 1066.45 1761.71 1814.23
5602.41 1168.02 1159.09 1838.76 1819.93
5605.29 1182.68 1153.77 1859.31 1838.31
5608.16 1110.6 1167.38 1816.86 1855.8
5611.04 1208.87 1171.84 1891.24 1856.55
5613.92 1196.04 1171.74 1861.56 1854.08
5616.8 1110.33 1163.88 1809.43 1843.06
5619.67 1185.28 1120.13 1858.2 1797.07
5622.55 1064.78 1173.68 1723.58 1848.01
5625.43 1270.96 1157.1 1962.25 1843.83
5628.3 1135.54 1197.9 1845.65 1895.69
5631.18 1187.19 1186.66 1879.17 1887.26
5634.06 1237.26 1147.92 1936.97 1909.61
5636.93 1019.3 1159.53 1912.7 1919.97
5639.81 1222.03 1151.62 1910.23 1907.94
5642.68 1213.54 1209.12 1900.88 1891.52
5645.56 1191.79 1227.5 1863.43 1905.45
5648.44 1277.18 1201.7 1952.05 1874.62
5651.31 1136.14 1180.25 1808.36 1851.06
5654.19 1127.42 1106.84 1792.77 1760.41
5657.06 1056.96 1111.18 1680.08 1753.7
5659.94 1149.15 1125.89 1788.24 1758.63
5662.81 1171.57 1156.95 1807.58 1810.13
5665.69 1150.13 1154.52 1834.57 1810.66
5668.56 1141.86 1161.37 1789.82 1828.5
5671.44 1192.11 1177.12 1861.13 1832.53
5674.31 1197.4 1230.38 1846.66 1888.99
5677.19 1301.63 1236.59 1959.19 1905.88
5680.06 1210.75 1251.19 1911.78 1917.37
5682.94 1241.2 1210.52 1881.14 1892.77
5685.81 1179.62 1204.54 1885.39 1871.39
5688.69 1192.79 1221.18 1847.65 1873.51
5691.56 1291.13 1216.12 1887.49 1855.32
5694.44 1164.43 1213.23 1830.81 1860.12
5697.31 1184.13 1175.3 1862.05 1851.31
5700.18 1177.34 1177.61 1861.06 1848.57
5703.06 1171.34 1170.03 1822.6 1843.34
5705.93 1161.41 1131.54 1846.36 1788.45
5708.81 1061.88 1127.59 1696.39 1783.06
5711.68 1159.48 1115 1806.44 1752.75
5714.55 1123.64 1174.5 1755.42 1820.28
5717.43 1240.38 1189.16 1898.99 1831.21
5720.3 1203.44 1118.85 1839.22 1857.76
5723.17 912.739 1021.37 1835.07 1837.82
5726.05 947.929 1011.44 1839.18 1827.33
5728.92 1173.65 1136.75 1807.75 1870.6
5731.79 1288.67 1222.76 1964.88 1891.25
5734.66 1205.97 1251.26 1901.11 1912.48
5737.54 1259.14 1217.84 1871.44 1866.04
5740.41 1188.41 1223.18 1825.56 1838.56
5743.28 1221.99 1131.78 1818.69 1822.83
5746.15 984.953 1056.79 1824.24 1813.39
5749.03 963.438 1035.52 1797.24 1820.34
5751.9 1158.17 1099.02 1839.54 1820.94
5754.77 1175.45 1161.39 1826.04 1814.46
5757.64 1150.56 1131.2 1777.81 1772.23
5760.51 1067.6 1139.36 1712.85 1776.36
5763.39 1199.93 1137.28 1838.41 1764.72
5766.26 1144.33 1202.92 1742.91 1814.14
5769.13 1264.52 1202.06 1861.1 1821.56
5772 1197.32 1216.02 1860.67 1847.4
5774.87 1186.23 1151.09 1820.43 1785.94
5777.74 1069.73 1133.58 1676.74 1745.05
5780.61 1144.77 1108.12 1737.99 1720.92
5783.48 1109.86 1113.01 1748.04 1728.26
5786.35 1084.4 1131.02 1698.76 1752.48
5789.22 1198.8 1160.63 1810.63 1774.2
5792.09 1198.68 1145.35 1813.22 1835.6
5794.97 1038.59 1153.88 1882.96 1834.76
5797.84 1224.37 1151.22 1808.11 1826.05
5800.71 1190.71 1188.7 1787.08 1790.61
5803.58 1151 1119.38 1776.64 1797.66
5806.45 1016.43 1132.87 1829.26 1813.08
5809.32 1231.17 1162.55 1833.33 1842.03
5812.18 1240.06 1199.4 1863.51 1808.43
5815.05 1126.97 1211.64 1728.45 1829.71
5817.92 1267.87 1217.93 1897.17 1836
5820.79 1258.93 1263.12 1882.4 1903.16
5823.66 1262.55 1164.44 1929.92 1882.24
5826.53 971.841 1088.11 1834.41 1877.73
5829.4 1029.94 1068.53 1868.85 1843.52
5832.27 1203.8 1164 1827.31 1865.94
5835.14 1258.25 1156.99 1901.67 1861.99
5838.01 1008.91 1206.72 1857 1903.6
5840.88 1352.99 1229.98 1952.13 1925.42
5843.74 1328.05 1291.86 1967.13 1910.22
5846.61 1194.55 1274.75 1811.42 1902.29
5849.48 1301.67 1222.68 1928.33 1832.63
5852.35 1171.83 1229.68 1758.13 1857.01
5855.22 1215.55 1174.62 1884.56 1806.35
5858.08 1136.47 1209.17 1776.36 1839.99
5860.95 1275.49 1232.33 1859.07 1847.11
5863.82 1285.02 1274.23 1905.91 1860.89
5866.69 1262.19 1236.08 1817.7 1850.19
5869.55 1161.02 1190.48 1826.96 1812.99
5872.42 1148.24 1210.78 1794.31 1846.21
5875.29 1323.09 1214.66 1917.36 1844.78
5878.16 1172.64 1234.99 1822.68 1869.79
5881.02 1209.24 1070.47 1869.33 1801.8
5883.89 829.537 931.423 1713.39 1748.19
5886.76 755.495 859.193 1661.83 1631.45
5889.62 992.547 922.942 1519.14 1583.83
5892.49 1020.78 1016.3 1570.51 1521.17
5895.35 1035.58 1030.25 1473.86 1540.53
5898.22 1034.4 935.032 1577.22 1544.68
5901.09 735.122 996.599 1582.96 1660.79
5903.95 1220.28 1067.57 1822.18 1778.28
5906.82 1247.32 1219.1 1929.69 1840.57
5909.68 1189.71 1241.41 1769.85 1862.06
5912.55 1287.19 1220.12 1886.65 1808.19
5915.42 1183.46 1159.62 1768.08 1845.36
5918.28 1008.21 1128.73 1881.34 1817.3
5921.15 1194.51 1119.28 1802.46 1808.76
5924.01 1155.11 1202.25 1742.49 1797.74
5926.88 1257.13 1261.23 1848.26 1849.5
5929.74 1371.44 1240.6 1957.77 1823.42
5932.61 1093.23 1235.3 1664.24 1811.75
5935.47 1241.22 1200.52 1813.24 1768.49
5938.33 1267.11 1248 1827.99 1826.2
5941.2 1235.66 1246.85 1837.37 1850.25
5944.06 1237.78 1210.48 1885.4 1827.55
5946.93 1157.98 1181.73 1759.89 1801.91
5949.79 1149.43 1155.05 1760.44 1722.84
5952.66 1157.74 1071.82 1648.18 1706.83
5955.52 908.285 1090.4 1711.85 1722.54
5958.38 1205.17 1109.75 1807.59 1781.81
5961.25 1215.8 1139.1 1825.99 1808.68
5964.11 996.339 1042.35 1792.44 1800.66
5966.97 914.925 1049.82 1783.54 1795.94
5969.84 1238.2 1108.51 1811.84 1785.21
5972.7 1172.39 1214.3 1760.24 1798.17
5975.56 1232.32 1210.94 1822.42 1793.9
5978.43 1228.12 1207.03 1799.04 1785.9
5981.29 1160.66 1192.56 1736.24 1763.33
5984.15 1188.91 1082.67 1754.71 1734.18
5987.01 898.46 1027.27 1711.59 1740.02
5989.88 994.45 1032.98 1753.78 1743.87
5992.74 1206.02 1103.75 1766.25 1737.43
5995.6 1110.78 1165.14 1692.26 1736.33
5998.46 1178.63 1051.6 1750.48 1706.92
6001.32 865.373 1080.02 1678.03 1727.69
6004.19 1196.04 1084.89 1754.56 1723.73
6007.05 1193.24 1121.31 1738.6 1750.62
6009.91 974.649 1133.47 1758.7 1768.87
6012.77 1232.51 1119.84 1809.3 1757.5
6015.63 1152.37 1103.19 1704.51 1741.57
6018.49 924.685 1016.08 1710.9 1716.98
6021.35 971.197 1018.39 1735.52 1714.87
6024.21 1159.29 1095.91 1698.2 1708.38
6027.07 1157.23 1157.05 1691.43 1702.48
6029.94 1154.63 1180.42 1717.81 1733.98
6032.8 1229.41 1203.73 1792.7 1767.07
6035.66 1227.14 1138.65 1790.7 1788.92
6038.52 959.408 1111.71 1783.38 1774
6041.38 1148.58 1092.71 1747.91 1763.38
6044.24 1170.15 1183.27 1758.85 1771.85
6047.1 1231.07 1126.54 1808.78 1769.75
6049.96 978.406 1132.29 1741.63 1752.71
6052.82 1187.38 1118.95 1707.71 1725.21
6055.67 1191.08 1104.32 1726.3 1699.36
6058.53 934.513 1026.64 1664.08 1710.61
6061.39 954.328 1039.75 1741.46 1738.49
6064.25 1230.41 1142.48 1809.93 1780.66
6067.11 1242.7 1249.05 1790.61 1806.03
6069.97 1274.03 1233.48 1817.54 1783.09
6072.83 1183.72 1221.13 1741.11 1775.97
6075.69 1205.63 1193.64 1769.25 1739.34
6078.55 1191.58 1182.16 1707.67 1712.32
6081.4 1149.27 1159.05 1660.06 1701.73
6084.26 1136.31 1168.85 1737.46 1722.96
6087.12 1220.98 1097.45 1771.36 1735.57
6089.98 935.07 1108.79 1697.9 1724.75
6092.84 1170.32 1102.22 1704.98 1725.55
6095.69 1201.27 1093.64 1773.76 1713.48
6098.55 909.326 1010.59 1661.69 1696.91
6101.41 921.175 966.976 1655.28 1640.3
6104.27 1070.43 998.587 1603.92 1663.91
6107.12 1004.16 1008.88 1732.53 1690.05
6109.98 952.056 990.807 1733.69 1740.31
6112.84 1016.2 1048.38 1754.7 1738.41
6115.69 1176.89 1115.73 1726.85 1716.49
6118.55 1154.1 1155.93 1667.91 1683.27
6121.41 1136.79 1067.17 1655.05 1675.86
6124.26 910.613 996.994 1704.63 1675.27
6127.12 943.577 976.07 1666.12 1653.95
6129.98 1074.02 968.276 1591.1 1630.47
6132.83 887.232 963.775 1634.19 1633.92
6135.69 930.075 999.04 1676.47 1666.5
6138.54 1179.81 1072.68 1688.85 1656.45
6141.4 1108.15 1121.56 1604.02 1635.5
6144.26 1076.71 1117.29 1613.62 1626.79
6147.11 1167 1147.05 1662.73 1679.18
6149.97 1197.45 1140.21 1761.19 1656.77
6152.82 1056.17 1132.49 1546.41 1650.92
6155.68 1143.85 1089.59 1645.16 1568
6158.53 1068.75 1079.3 1512.42 1566.75
6161.39 1025.29 1041.51 1542.68 1521.85
6164.24 1030.48 1066.92 1510.46 1575.14
6167.1 1144.98 1041.06 1672.28 1625.02
6169.95 947.711 1077.37 1692.31 1679.17
6172.8 1139.41 1065.25 1672.92 1675.52
6175.66 1108.62 1123.92 1661.32 1674.3
6178.51 1123.71 1155.56 1688.65 1690.09
6181.37 1234.34 1157.45 1720.31 1696.16
6184.22 1114.31 1147.39 1679.53 1648.24
6187.07 1093.54 1101.07 1544.89 1604.31
6189.93 1095.37 1112.56 1588.51 1596.14
6192.78 1148.77 1054.03 1655.01 1617.65
6195.63 917.954 1051.17 1609.42 1624.63
6198.49 1086.77 1059.85 1609.47 1624.47
6201.34 1174.81 1158.35 1654.53 1654.07
6204.19 1213.46 1187.52 1698.22 1676.56
6207.04 1174.3 1099.39 1676.93 1661.88
6209.9 910.404 1070.11 1610.5 1644.68
6212.75 1125.62 1069.31 1646.62 1645.39
6215.6 1171.92 1140.91 1679.04 1656.27
6218.45 1125.19 1158.12 1643.14 1659.12
6221.31 1177.27 1072.25 1655.18 1643.4
6224.16 914.308 1063.31 1631.86 1634.46
6227.01 1098.34 1018.48 1616.35 1593.56
6229.86 1042.79 1081.8 1532.47 1587.61
6232.71 1104.27 1109.57 1614.01 1611.51
6235.56 1181.67 1064.08 1688.03 1648.66
6238.41 906.295 1034.13 1643.92 1613.79
6241.27 1014.43 1008.42 1509.4 1600.15
6244.12 1104.53 1081.51 1647.12 1580.45
6246.97 1125.58 1095.43 1584.82 1580.05
6249.82 1056.19 1040.22 1508.2 1571.22
6252.67 938.879 956.963 1620.65 1577.9
6255.52 875.816 966.852 1604.85 1600.69
6258.37 1085.86 1003.14 1576.57 1568.79
6261.22 1047.75 1072.1 1524.94 1569.45
6264.07 1082.69 1068.1 1606.83 1582.04
6266.92 1073.87 1019.28 1614.36 1617
6269.77 901.294 1046.87 1629.8 1657.74
6272.62 1165.46 1024.99 1729.08 1630.76
6275.47 1008.23 1064.76 1533.41 1573.77
6278.32 1020.6 1037.78 1458.84 1508.09
6281.17 1084.5 1091.4 1532.01 1543.7
6284.01 1169.12 1125.64 1640.26 1582.03
6286.86 1123.3 1017.07 1573.83 1588.78
6289.71 758.803 1007.22 1552.25 1543.44
6292.56 1139.57 1000.09 1504.24 1531.24
6295.41 1101.89 1102.29 1537.22 1495.42
6298.26 1065.41 1042.65 1444.8 1435.33
6301.11 960.642 1029.22 1323.96 1407.32
6303.95 1061.61 1081.9 1453.19 1470.38
6306.8 1223.45 1132.3 1634 1571.31
6309.65 1111.84 1154.69 1626.73 1602.96
6312.5 1128.79 1065.78 1548.16 1553.71
6315.34 956.707 1032.09 1486.24 1513.41
6318.19 1010.77 1025.38 1505.82 1523.95
6321.04 1108.65 1067.37 1579.79 1550.98
6323.89 1082.7 1124.48 1567.31 1609
6326.73 1182.11 1049.13 1679.9 1625.42
6329.58 882.575 1077.63 1629.05 1643.33
6332.43 1168.21 968.263 1621.03 1601.34
6335.27 854.008 1025.69 1553.94 1571.48
6338.12 1054.84 1002.95 1539.48 1563.76
6340.97 1100.01 1079.2 1597.87 1561.13
6343.81 1082.75 1044.55 1546.03 1598.29
6346.66 950.886 1057.29 1650.96 1609.87
6349.5 1138.23 1073.59 1632.62 1640.83
6352.35 1131.65 1118.08 1638.91 1605.21
6355.19 1084.36 1007.64 1544.09 1564.74
6358.04 806.911 893.929 1511.22 1531.52
6360.88 790.514 802.733 1539.26 1536.46
6363.73 810.775 882.782 1558.9 1528.93
6366.57 1047.06 988.932 1488.62 1546.93
6369.42 1108.96 1060.24 1593.26 1500.22
6372.26 1024.71 1086.84 1418.76 1550.66
6375.11 1126.83 1038.7 1639.96 1533.65
6377.95 964.56 1040.16 1542.22 1582.17
6380.8 1029.1 1002.57 1564.32 1560.81
6383.64 1014.05 963.85 1575.88 1574.2
6386.49 848.396 953.212 1582.4 1567.06
6389.33 997.186 940.431 1542.9 1539.91
6392.17 975.71 993.738 1494.43 1519.86
6395.02 1008.32 931.629 1522.25 1499.44
6397.86 810.86 875.582 1481.65 1489.08
6400.7 807.571 852.882 1463.34 1473.06
6403.55 940.214 925.538 1474.19 1502.54
6406.39 1028.83 926.225 1570.09 1542.89
6409.23 809.632 937.668 1584.39 1563.05
6412.08 974.543 871.98 1534.68 1552.91
6414.92 831.765 948.084 1539.66 1543.98
6417.76 1037.94 884.544 1557.6 1531.15
6420.6 783.923 953.553 1496.2 1548.09
6423.44 1038.79 942.923 1590.47 1527.1
6426.29 1006.05 998.222 1494.64 1531.1
6429.13 949.82 995.859 1508.19 1514.65
6431.97 1031.71 1008.06 1541.12 1545.99
6434.81 1042.65 1012.41 1588.67 1541.65
6437.65 962.863 992.112 1495.16 1536.87
6440.49 970.819 982.94 1526.78 1536.19
6443.34 1015.14 1011.61 1586.62 1557.49
6446.18 1048.86 1021.01 1559.05 1553.55
6449.02 999.026 1002.74 1514.98 1522.07
6451.86 960.346 988.05 1492.18 1507.19
6454.7 1004.78 1005.12 1514.41 1524.03
6457.54 1050.25 998.49 1565.51 1516.41
6460.38 940.444 1032.03 1469.32 1545.97
6463.22 1105.38 1000.41 1603.07 1524.74
6466.06 955.39 997.157 1501.84 1503.28
6468.9 930.694 979.801 1404.93 1494.3
6471.74 1053.32 990.44 1576.12 1478.29
6474.58 987.308 1017.23 1453.84 1525.63
6477.42 1011.08 942.84 1546.94 1518.24
6480.26 830.137 887.977 1553.94 1538.25
6483.1 822.718 906.954 1513.88 1552.67
6485.93 1068.01 902.869 1590.2 1528.75
6488.77 817.882 901.746 1482.17 1518.15
6491.61 819.35 842.637 1482.08 1454.33
6494.45 890.678 810.272 1398.74 1442.47
6497.29 720.786 861.938 1446.57 1449.48
6500.13 974.349 880.303 1503.13 1469.69
6502.97 945.775 915.473 1459.37 1504.65
6505.8 826.296 930.94 1551.44 1493.29
6508.64 1020.75 942.645 1469.05 1467.64
6511.48 980.89 1005.66 1382.42 1476.04
6514.32 1015.34 985.003 1576.64 1459
6517.15 958.78 995.236 1417.93 1488
6519.99 1011.59 929.894 1469.43 1465.95
6522.83 819.312 942.124 1510.49 1480.38
6525.66 995.47 876.258 1461.22 1493.71
6528.5 813.992 877.031 1509.42 1498.25
6531.34 821.632 889.838 1524.11 1552.55
6534.17 1033.89 941.652 1624.1 1542.31
6537.01 969.434 999.73 1478.73 1553.6
6539.85 995.866 969.031 1557.97 1501.83
6542.68 941.794 945.736 1468.78 1492.19
6545.52 899.548 944.496 1449.82 1463.45
6548.35 992.145 944.514 1471.75 1445.72
6551.19 941.849 884.618 1415.6 1415.24
6554.02 719.86 755.276 1358.38 1343.22
6556.86 604.12 726 1255.67 1278.58
6559.7 854.021 793.746 1221.69 1286.24
6562.53 923.097 806.819 1381.37 1297.37
6565.36 643.339 843.428 1289.04 1352.64
6568.2 963.849 826.082 1387.52 1337.13
6571.03 871.059 870.57 1334.82 1406.07
6573.87 776.801 788.935 1495.86 1418.35
6576.7 718.944 807.066 1424.36 1454.22
6579.54 925.454 841.517 1442.43 1409.19
6582.37 880.153 926.021 1360.78 1426.44
6585.2 972.457 935.879 1476.11 1422.13
6588.04 955.027 903.778 1429.5 1463.47
6590.87 783.849 850.322 1484.81 1467.27
6593.7 812.09 835.002 1487.49 1460.67
6596.54 909.068 919.013 1409.72 1459.9
6599.37 1035.88 971.5 1482.5 1459.79
6602.2 969.549 1018.54 1487.14 1505.89
6605.04 1050.19 928.139 1548.03 1496.44
6607.87 764.682 868.002 1454.14 1487.86
6610.7 789.139 871.715 1461.41 1487.54
6613.53 1061.33 947.384 1547.08 1493.25
6616.36 991.689 930.593 1471.27 1493.05
6619.2 738.765 841.382 1460.81 1462.61
6622.03 793.69 836.898 1455.74 1476.86
6624.86 978.24 929.793 1514.04 1493.37
6627.69 1017.45 980.604 1510.33 1487.56
6630.52 946.126 894.943 1438.32 1441.2
6633.35 721.255 889.891 1374.96 1435.08
6636.18 1002.29 901.346 1491.95 1442.17
6639.02 980.49 988.568 1459.58 1465.96
6641.85 982.921 1000.84 1446.35 1471.34
6644.68 1039.11 1003.01 1508.09 1487.56
6647.51 987.002 969.406 1508.23 1465.05
6650.34 882.1 934.946 1378.81 1432.12
6653.17 935.735 940.466 1409.32 1421.1
6656 1003.56 1006.28 1475.18 1469.84
6658.83 1079.56 1021.83 1525.01 1486.85
6661.66 982.382 1005.41 1460.36 1466.36
6664.49 954.302 900.739 1413.7 1423.19
6667.31 765.534 906.125 1395.51 1424.46
6670.14 998.54 902.543 1464.16 1417.03
6672.97 943.557 892.21 1391.42 1413.22
6675.8 734.533 911.342 1384.08 1411.62
6678.63 1055.93 946.964 1459.38 1434.57
6681.46 1050.42 1065.7 1460.25 1483.95
6684.29 1090.76 1013.32 1532.22 1448.79
6687.12 898.777 1004.75 1353.9 1432.95
6689.94 1024.72 955.889 1412.74 1379.74
6692.77 944.169 900.109 1372.6 1394.16
6695.6 731.437 862.886 1397.15 1382.66
6698.43 913.053 871.413 1378.22 1394.01
6701.25 969.748 981.51 1406.66 1424.06
6704.08 1061.73 992.499 1487.31 1434.86
6706.91 946.02 998.265 1410.63 1463.71
6709.73 987.045 875.8 1493.2 1422.41
6712.56 694.334 874.373 1363.39 1409.22
6715.39 941.74 866.791 1371.08 1392.35
6718.21 964.3 946.031 1442.58 1400.39
6721.04 932.054 876.155 1387.5 1399.13
6723.87 732.112 817.141 1367.31 1384.47
6726.69 787.257 845.228 1398.61 1404.24
6729.52 1016.31 940.548 1446.82 1437.14
6732.34 1018.07 925.364 1466.01 1449.3
6735.17 741.706 900.472 1435.06 1420.79
6737.99 941.637 899.182 1361.28 1405.28
6740.82 1014.2 977.301 1419.48 1398.88
6743.65 976.062 999.724 1415.88 1424.45
6746.47 1008.9 947.549 1438 1410.22
6749.29 857.681 951.327 1376.8 1408.93
6752.12 987.395 946.607 1411.98 1409.35
6754.94 994.745 992.516 1439.27 1419.22
6757.77 995.408 987.106 1406.39 1428.47
6760.59 971.163 993.211 1439.76 1426.39
6763.42 1013.06 957.949 1433.01 1388.34
6766.24 889.621 957.821 1292.26 1375.77
6769.06 970.78 941.278 1402.05 1362.92
6771.89 963.432 941.975 1394.46 1363.82
6774.71 891.713 951.251 1294.96 1362.95
6777.53 998.607 963.436 1399.44 1384.24
6780.36 999.988 987.469 1458.31 1408.49
6783.18 963.813 964.214 1367.72 1385.66
6786 928.841 938.668 1330.95 1339.78
6788.82 923.351 932.086 1320.67 1332.11
6791.65 944.067 947.022 1344.72 1348.45
6794.47 973.648 971.738 1379.97 1371.94
6797.29 997.499 989.777 1391.14 1390.24
6800.11 998.185 941.557 1399.62 1385.93
6802.93 828.987 921.426 1367.04 1360.18
6805.75 937.108 901.823 1313.88 1331.75
6808.58 939.374 950.821 1314.32 1337.09
6811.4 975.98 952.117 1383.09 1345.37
6814.22 940.997 930.966 1338.72 1342.79
6817.04 875.922 945.619 1306.56 1372.17
6819.86 1019.94 941.968 1471.23 1360.43
6822.68 930.044 971.673 1303.49 1370.44
6825.5 965.038 963.839 1336.61 1315.7
6828.32 996.436 959.856 1306.98 1328.31
6831.14 918.093 972.582 1341.35 1342.91
6833.96 1003.22 882.031 1380.39 1337.79
6836.78 724.785 881.066 1291.62 1333
6839.6 915.197 866.911 1326.97 1320.74
6842.42 960.752 938.188 1343.62 1330.72
6845.24 938.617 967.984 1321.57 1345.45
6848.06 1004.58 906.228 1371.16 1330.42
6850.87 775.484 923.79 1298.54 1347.47
6853.69 991.302 934.216 1372.69 1356.53
6856.51 1035.86 977.886 1398.37 1347.28
6859.33 906.496 908.044 1270.79 1290.38
6862.15 781.774 791.653 1201.99 1174.41
6864.97 686.688 734.022 1050.45 1091.94
6867.78 733.604 649.324 1023.38 1028.71
6870.6 527.679 664.398 1012.31 1025.99
6873.42 731.91 692.039 1042.27 1049.91
6876.24 816.529 737.267 1095.15 1089.67
6879.05 663.362 701.363 1131.59 1115.16
6881.87 624.197 709.275 1118.75 1131.51
6884.69 840.265 760.976 1144.2 1121.07
6887.5 818.467 830.329 1100.26 1125.39
6890.32 832.255 763.502 1131.72 1120.71
6893.14 639.783 736.895 1130.13 1138.87
6895.95 738.648 721.288 1154.77 1121.97
6898.77 785.432 814.19 1081 1144.44
6901.58 918.491 880.004 1197.54 1167.53
6904.4 936.09 912.5 1224.04 1195.4
6907.22 882.92 890.056 1164.62 1178
6910.03 851.157 810.339 1145.33 1167.54
6912.85 696.941 802.022 1192.66 1164.23
6915.66 857.967 801.998 1154.7 1167.37
6918.48 851.085 870.938 1154.75 1183.77
6921.29 903.764 880.867 1241.87 1183.79
6924.1 887.753 873.391 1154.76 1191.47
6926.92 828.657 878.371 1177.77 1192.04
6929.73 918.703 842.054 1243.59 1164.55
6932.55 778.8 865.739 1072.3 1170.52
6935.36 899.712 848.428 1195.67 1128.46
6938.17 866.772 892.088 1117.4 1173.72
6940.99 909.778 854.165 1208.08 1140.96
6943.8 785.944 861.633 1097.39 1166.88
6946.61 889.176 862.748 1195.18 1159.56
6949.43 913.125 868.585 1186.11 1159.83
6952.24 803.455 771.207 1098.2 1127.69
6955.05 597.04 688.749 1098.76 1111.1
6957.87 665.752 660.737 1136.35 1130.63
6960.68 719.419 753.866 1156.79 1167.89
6963.49 876.426 842.455 1210.52 1211.01
6966.3 931.52 919.892 1265.71 1240.69
6969.11 951.728 914.133 1245.84 1205.64
6971.92 859.149 880.752 1105.38 1162.91
6974.74 831.377 842.226 1137.5 1139.98
6977.55 836.152 778.775 1177.06 1156.22
6980.36 668.795 758.87 1154.09 1182.61
6983.17 771.662 751.664 1216.67 1213.59
6985.98 814.537 766.1 1270 1225.72
6988.79 712.103 809.58 1190.49 1202.85
6991.6 902.099 834.452 1148.05 1170.29
6994.41 889.155 871.506 1172.32 1151.09
6997.22 823.265 859.235 1132.89 1156.13
7000.03 865.286 821.195 1163.17 1126.82
7002.84 775.034 787.548 1084.41 1142.02
7005.65 722.324 780.425 1178.47 1129.26
7008.46 843.917 790.415 1124.89 1119.76
7011.27 805.003 776.9 1055.91 1100.35
7014.08 681.779 757.937 1120.24 1087.46
7016.89 787.03 768.221 1086.25 1113.07
7019.69 835.854 826.35 1132.72 1115.79
7022.5 856.166 815.869 1128.41 1099.51
7025.31 755.587 824.973 1037.41 1106.55
7028.12 863.167 820.52 1153.82 1087.87
7030.93 842.807 848.678 1072.37 1097.82
7033.74 840.062 848.435 1067.26 1087.94
7036.54 862.436 856.48 1124.18 1109.38
7039.35 866.941 842.343 1136.69 1094.8
7042.16 797.653 777.235 1023.54 1062.66
7044.96 667.11 756.782 1027.75 1042.33
7047.77 805.583 721.094 1075.7 1060.73
7050.58 690.589 772.325 1078.74 1082.4
7053.38 820.803 724.51 1092.74 1067.01
7056.19 662.138 781.521 1029.53 1072.24
7059 861.622 740.447 1094.46 1062.55
7061.8 697.58 758.905 1063.65 1100.43
7064.61 717.513 758.226 1143.18 1099.12
7067.41 859.586 812.089 1090.51 1105.86
7070.22 859.167 868.06 1083.89 1085.32
7073.02 885.425 859.589 1081.56 1076.86
7075.83 834.175 850.741 1065.13 1066.06
7078.63 832.622 841.844 1051.49 1051.74
7081.44 858.735 834.544 1038.6 1043.25
7084.24 812.274 843.32 1039.65 1055.74
7087.05 858.952 820.889 1088.97 1043.95
7089.85 791.44 810.377 1003.23 1042.8
7092.66 780.739 808.631 1036.21 1043.94
7095.46 853.715 817.946 1092.37 1050.01
7098.26 819.385 833.567 1021.47 1054.35
7101.07 827.602 767.106 1049.2 1020.82
7103.87 654.33 717.876 991.782 1016.96
7106.67 671.696 701.335 1009.91 983.027
7109.48 777.977 780.502 947.389 1012.88
7112.28 891.831 821.76 1081.35 1018.76
7115.08 795.472 800.983 1027.53 1046.68
7117.88 715.645 759.051 1031.14 1005.5
7120.69 766.035 736.238 957.827 988.087
7123.49 727.034 724.471 975.291 974.337
7126.29 680.342 697.604 989.893 1007.89
7129.09 685.435 707.544 1058.5 1012.83
7131.89 756.856 742.114 990.089 1007.52
7134.7 784.051 784.787 973.984 977.253
7137.5 813.455 797.061 967.686 985.373
7140.3 793.677 766.13 1014.45 992.703
7143.1 691.257 757.803 995.973 1001.36
7145.9 788.476 761.128 993.669 1001.31
7148.7 803.652 780.661 1014.3 983.007
7151.5 749.857 726.384 941.055 985.637
7154.3 625.642 714.983 1001.56 970.781
7157.1 769.449 727.193 969.729 989.276
7159.9 786.487 787.076 996.538 987.699
7162.7 805.293 730.707 996.831 975.661
7165.5 600.341 662.583 933.612 935.422
7168.3 582.116 677.231 875.824 946.04
7171.1 849.236 724.745 1028.68 934.832
7173.9 742.883 784.533 899.991 965.647
7176.69 761.481 728.27 968.268 943.687
7179.49 680.446 715.224 962.802 941.336
7182.29 703.745 691.373 892.936 925.884
7185.09 689.929 649.778 921.914 893.877
7187.89 555.659 674.574 866.782 900.434
7190.68 778.134 706.096 912.607 924.979
7193.48 784.494 775.27 995.549 945.009
7196.28 763.181 759.918 926.869 945.941
7199.08 732.079 740.566 915.405 909.186
7201.87 726.438 685.265 885.283 897.659
7204.67 597.278 714.582 892.289 905.355
7207.47 820.03 711.5 938.492 906.725
7210.26 717.192 734.684 889.395 926.935
7213.06 666.83 653.679 952.919 895.588
7215.86 577.015 662.804 844.452 902.5
7218.65 744.568 660.465 910.129 871.038
7221.45 659.811 735.92 858.532 891.963
7224.24 803.381 666.704 907.228 888.245
7227.04 536.92 692.366 898.974 886.005
7229.83 736.795 668.818 851.813 862.919
7232.63 732.738 735.925 837.971 858.7
7235.42 738.24 742.014 886.316 858.259
7238.22 755.065 727.452 850.489 854.361
7241.01 689.052 720.635 826.279 833.782
7243.81 717.788 698.215 824.577 810.538
7246.6 687.804 697.554 780.757 827.979
7249.39 687.068 718.26 878.602 847.8
7252.19 779.908 758.02 884.04 903.138
7254.98 807.084 769.329 946.773 885.904
7257.77 720.995 755.638 826.9 885.26
7260.57 738.836 721.79 882.106 849.885
7263.36 705.539 726.788 840.65 867.818
7266.15 735.988 705.144 880.698 845.735
7268.94 673.904 704.501 815.858 827.693
7271.74 703.61 674.234 786.522 801.643
7274.53 645.19 711.945 802.549 822.216
7277.32 787.035 691.823 877.577 821.129
7280.11 643.243 708.265 783.261 840.476
7282.9 694.515 694.441 860.591 830.991
7285.7 745.566 724.399 849.122 856.004
7288.49 733.116 657.653 858.3 833.752
7291.28 494.277 658.454 793.833 832.741
7294.07 747.971 587.826 846.089 822.001
7296.86 521.23 658.366 826.082 831.232
7299.65 705.898 630.025 821.524 811.579
7302.44 662.948 643.654 787.13 821.198
7305.23 562.116 621.341 854.941 804.605
7308.02 638.96 628.774 771.744 810.101
7310.81 685.245 667.269 803.62 782.756
7313.6 677.601 699.175 772.903 797.772
7316.39 734.677 640.589 816.792 819.437
7319.18 509.489 633.761 868.616 808.087
7321.97 657.118 625.538 738.854 806.73
7324.75 710.007 689.421 812.718 801.246
7327.54 701.139 705.168 852.165 833.722
7330.33 704.358 655.764 836.284 846.148
7333.12 561.796 581.25 849.997 798.877
7335.91 477.596 591.141 710.351 806.691
7338.7 734.031 610.294 859.724 786.104
7341.48 619.257 665.883 788.238 808.188
7344.27 644.362 613.92 776.603 767.286
7347.06 578.142 632.521 737.018 775.933
7349.84 675.059 637.962 814.18 774.509
7352.63 660.684 616.502 772.329 784.81
7355.42 513.763 602.484 767.921 767.44
7358.2 633.004 607.157 762.072 769.949
7360.99 674.704 634.043 779.855 743.853
7363.78 594.421 642.624 689.634 739.681
7366.56 658.748 652.017 749.554 735.947
7369.35 702.883 666.267 768.655 763.774
7372.13 637.172 674.113 773.112 775.136
7374.92 682.283 662.87 783.64 790.074
7377.7 669.154 608.911 813.471 787.101
7380.49 475.294 575.447 764.192 765.732
7383.27 581.893 546.299 719.532 735.65
7386.06 581.709 612.261 723.226 726.701
7388.84 673.183 632.311 737.346 735.015
7391.63 642.043 631.124 744.473 732.548
7394.41 578.146 546.396 715.826 723.04
7397.19 418.998 465.899 708.822 729.019
7399.98 400.551 488.348 762.41 747.747
7402.76 645.495 567.55 772.008 768.406
7405.54 656.605 632.535 770.8 747.234
7408.33 595.506 567.028 698.894 712.001
7411.11 448.973 571.788 666.308 698.532
7413.89 670.885 587.515 730.395 713.002
7416.67 642.687 640.541 742.301 728.045
7419.46 608.052 583.046 711.44 725.35
7422.24 498.4 573.91 722.307 746.386
7425.02 615.279 529.651 805.411 754.616
7427.8 475.274 571.342 736.129 759.48
7430.58 623.475 590.519 736.899 741.679
7433.36 672.81 649.53 752.007 740.994
7436.14 652.305 602.091 734.076 722.031
7438.92 481.158 586.741 680.01 733.023
7441.71 626.761 527.648 784.984 721.051
7444.49 475.025 591.87 698.158 752.845
7447.27 673.824 594.7 775.392 727.814
7450.05 635.249 657.937 709.891 739.116
7452.83 664.737 627.763 732.064 710.402
7455.61 583.301 632.993 689.251 730.572
7458.38 650.939 573.656 770.4 724.105
7461.16 486.729 530.317 712.663 731.423
7463.94 453.284 517.377 711.205 700.569
7466.72 612.118 550.235 677.839 678.16
7469.5 585.303 596.949 645.436 675.244
7472.28 593.426 537.782 702.458 677.399
7475.06 434.616 547.809 684.304 682.355
7477.83 615.385 559.829 660.304 668.924
7480.61 629.487 618.361 662.165 672.484
7483.39 610.212 621.601 694.982 678.754
7486.17 625.103 605.453 679.115 681
7488.94 581.043 602.039 668.902 676.507
7491.72 599.97 558.413 681.503 670.964
7494.5 494.224 577.45 662.488 677.336
7497.27 638.154 572.319 688.018 657.924
7500.05 584.58 592.433 623.264 655.844
7502.83 554.564 596.099 656.249 656.835
7505.6 649.153 596.975 690.992 665.717
7508.38 587.208 569.944 649.909 672.879
7511.15 473.471 519.781 677.735 660.772
7513.93 498.663 553.851 654.672 686.87
7516.7 689.418 580.06 728.204 674.146
7519.48 552.1 549.412 639.562 669.211
7522.25 406.718 502.377 639.868 649.01
7525.03 548.314 449.47 667.6 645.831
7527.8 393.378 519.207 630.024 667.411
7530.58 615.93 563.417 704.609 682.714
7533.35 680.943 632.617 713.508 703.451
7536.13 600.977 622.75 692.237 689.021
7538.9 586.33 593.188 661.319 664.728
7541.67 592.257 589.905 640.628 651.261
7544.45 591.129 596.597 651.838 642.994
7547.22 606.404 591.908 636.517 658.202
7549.99 578.19 582.371 686.251 662.905
7552.76 562.519 569.599 665.946 650.091
7555.54 568.089 602.715 598.076 653.976
7558.31 677.536 575.924 697.906 646.328
7561.08 482.146 567.456 643.003 625.79
7563.85 542.686 555.653 536.46 601.288
7566.62 642.127 537.748 624.4 593.422
7569.39 428.431 562.716 619.407 628.175
7572.17 617.59 550.686 640.72 646.601
7574.94 606.037 601.831 679.675 647.025
7577.71 581.866 580.201 620.678 639.601
7580.48 552.7 571.93 618.448 610.1
7583.25 581.224 530.503 591.173 599.708
7586.02 457.587 458.961 589.503 557.976
7588.79 338.072 363.638 493.251 481.462
7591.56 295.256 263.125 361.632 387.017
7594.33 156.047 223.947 306.167 308.54
7597.1 220.538 127.323 257.82 237.259
7599.86 5.38411 123.48 147.791 186.268
7602.63 144.517 100.135 153.195 152.812
7605.4 150.502 152.645 157.45 170.358
7608.17 162.915 201.889 200.43 207.898
7610.94 292.249 282.205 265.813 274.365
7613.71 391.451 347.855 356.851 322.148
7616.47 359.864 349.992 343.779 341.492
7619.24 298.661 277.438 323.845 337.946
7622.01 173.788 237.978 346.215 318.774
7624.78 241.483 212.645 286.262 316.338
7627.54 222.663 251.553 316.535 293.212
7630.31 290.514 275.066 276.837 307.115
7633.08 312.023 304.552 327.972 304.54
7635.84 311.119 316.444 308.81 318.429
7638.61 326.191 307.311 318.505 322.895
7641.38 284.625 319.698 341.37 355.819
7644.14 348.278 323.107 407.582 389.637
7646.91 336.42 382.03 419.96 411.843
7649.67 461.393 397.641 407.988 410.301
7652.44 395.109 389.493 402.956 409.283
7655.2 311.976 388.135 416.907 418.156
7657.97 457.319 383.54 434.606 413.42
7660.73 381.325 432.915 388.748 422.965
7663.5 460.101 447.25 445.542 430.39
7666.26 500.325 482.861 456.881 466.947
7669.02 488.158 506.969 498.418 487.631
7671.79 532.424 513.753 507.595 496.889
7674.55 520.675 532.891 484.654 505.059
7677.31 545.573 532.02 522.929 511.153
7680.08 529.813 532.988 525.876 522.128
7682.84 523.578 524.718 517.578 515.276
7685.6 520.763 529.345 502.375 534.214
7688.36 543.692 528.172 582.69 535.164
7691.13 520.059 523.174 520.426 542.683
7693.89 505.77 471.562 524.933 503.769
7696.65 388.858 449.068 465.947 496.297
7699.41 452.577 424.387 498.01 476.708
7702.17 431.727 484.075 466.166 498.651
7704.93 567.92 500.529 531.777 481.13
7707.69 501.941 526.221 445.448 470.055
7710.45 508.804 510.842 432.939 443.586
7713.22 521.781 394.646 452.37 479.484
7715.98 153.355 414.311 553.143 506.828
7718.74 567.798 409.24 514.971 519.581
7721.5 506.567 534.646 490.63 515.237
7724.25 529.571 507.088 540.109 512.029
7727.01 485.126 492.028 505.347 529.766
7729.77 461.386 483.366 543.842 526.262
7732.53 503.585 492.801 529.596 512.054
7735.29 513.432 501.405 462.725 493.353
7738.05 487.197 494.765 487.738 469.092
7740.81 483.665 430.276 456.812 454.633
7743.57 319.967 429.842 419.348 405.042
7746.32 485.893 311.268 338.965 402.477
7749.08 127.944 380.412 449.118 418.959
7751.84 527.399 271.421 468.794 457.495
7754.6 158.919 304.657 454.574 446.802
7757.35 227.654 290.48 417.038 450.711
7760.11 484.867 391.85 480.521 453.096
7762.87 463.031 455.288 461.73 475.873
7765.62 417.965 397.502 485.368 467.955
7768.38 311.511 400.296 456.767 488.455
7771.13 471.413 437.862 523.23 485.42
7773.89 530.663 499.134 476.263 484.655
7776.65 495.327 504.689 454.473 452.017
7779.4 488.075 485.163 425.315 448.998
7782.16 472.085 475.959 467.208 428.261
7784.91 467.716 476.708 392.261 436.046
7787.67 490.323 482.957 448.669 433.793
7790.42 490.832 408.084 460.448 453.315
7793.17 243.096 340.306 450.829 440.852
7795.93 286.991 321.611 411.277 437.042
7798.68 434.745 412.23 449.02 451.601
7801.44 514.953 479.8 494.507 455.162
7804.19 489.7 479.278 421.959 420.336
7806.94 433.182 427.965 344.544 404.549
7809.7 361.013 414.321 447.145 410.024
7812.45 448.767 435.034 438.384 427.837
7815.2 495.321 411.597 397.981 422.46
7817.95 290.703 440.066 431.014 431.758
7820.7 534.174 336.575 466.278 440.379
7823.46 184.848 398.415 423.844 450.928
7826.21 476.222 369.268 462.662 434.133
7828.96 446.734 428.878 415.892 438.342
7831.71 363.678 428.7 436.474 430.358
7834.46 475.688 402.312 438.708 422.627
7837.21 367.571 464.223 392.701 439.373
7839.96 549.41 412.062 486.709 419.576
7842.71 319.204 441.436 379.317 430.316
7845.46 455.695 414.263 424.921 384.008
7848.21 467.889 452.114 347.785 395.754
7850.96 432.758 455.86 414.555 391.824
7853.71 466.931 439.964 413.13 407.522
7856.46 420.202 434.082 394.879 399.548
7859.21 415.112 419.447 390.635 383.23
7861.96 423.027 443.596 364.177 372.198
7864.71 492.648 450.384 361.781 344.322
7867.45 435.478 404.772 307.009 354.14
7870.2 286.189 387.608 393.631 388.255
7872.95 441.157 372.251 464.126 405.095
7875.7 389.408 381.386 357.528 408.293
7878.45 313.594 409.038 403.225 390.449
7881.19 524.111 425.073 410.596 396.601
7883.94 437.515 475.381 375.981 399.791
7886.69 464.517 450.53 412.795 378.695
7889.43 449.559 455.908 347.308 385.337
7892.18 453.648 456.642 395.91 393.605
7894.93 466.718 453.12 437.599 404.313
7897.67 438.995 411.701 379.43 385.821
7900.42 329.389 411.504 340.433 370.612
7903.16 466.126 431.473 391.972 365.485
7905.91 498.902 401.005 364.05 359.696
7908.65 237.987 384.974 323.067 329.89
7911.4 418.032 354.328 302.554 318.085
7914.14 406.965 402.833 328.635 309.912
7916.89 383.502 404.425 298.547 328.856
7919.63 422.81 338.057 359.387 346.684
7922.37 207.859 344.312 382.119 384.654
7925.12 402.268 334.73 412.457 372.608
7927.86 394.061 348.389 323.249 345.859
7930.6 248.838 320.39 301.871 328.684
7933.35 318.272 340.795 360.931 336.16
7936.09 455.275 394.283 345.679 339.883
7938.83 409.302 419.255 313.041 316.271
7941.57 393.187 368.985 290.093 313.443
7944.32 304.465 334.383 337.195 317.399
7947.06 305.498 349.652 324.908 326.127
7949.8 438.992 352.916 316.278 342.394
7952.54 314.257 349.535 385.996 342.588
7955.28 295.356 288.662 325.489 339.942
7958.02 256.371 335.829 308.341 337.517
7960.76 455.76 370.748 378.721 343.259
7963.5 400.112 419.031 342.716 343.194
7966.24 401.221 407.837 308.144 335.254
7968.98 422.177 408.845 354.902 315.433
7971.72 403.136 437.825 283.252 326.906
7974.46 488.161 438.967 342.564 323.555
7977.2 425.604 457.158 344.848 337.26
7979.94 457.71 434.547 324.369 334.264
7982.68 420.328 425.672 333.574 333.317
7985.42 398.977 362.22 342.007 355.432
7988.16 267.354 370.262 390.715 397.037
7990.89 444.454 399.079 458.39 413.079
7993.63 485.428 421.339 390.132 379.691
7996.37 334.134 399.003 290.551 350.373
7999.11 377.446 397.008 370.437 350.577
8001.84 479.443 421.119 390.743 354.082
8004.58 406.468 439.625 301.067 338.993
8007.32 432.963 375.556 325.17 327.833
8010.05 287.237 375.65 357.264 330.446
8012.79 406.749 360.419 308.906 325.786
8015.53 387.271 400.589 311.188 322.851
8018.26 407.747 406.048 348.458 306.205
8021 423.124 430.753 258.969 316.336
8023.73 461.388 428.086 341.581 307.043
8026.47 399.748 401.706 320.579 326.116
8029.2 343.984 398.786 316.187 332.154
8031.94 452.625 416.014 359.696 336.655
8034.67 451.434 431.279 334.08 334.941
8037.41 389.779 382.126 311.046 323.743
8040.14 305.165 343.602 326.103 310.605
8042.87 335.861 361.741 294.666 318.113
8045.61 444.196 408.66 333.57 323.266
8048.34 445.922 413.149 341.562 313.412
8051.07 349.33 374.656 265.102 299.514
8053.81 328.716 364.914 291.876 298.626
8056.54 416.695 385.498 338.9 327.77
8059.27 411.082 412.694 352.534 317.782
8062 410.306 428.522 261.912 309.063
8064.74 464.179 386.308 312.742 286.405
8067.47 284.439 379.095 284.561 297.712
8070.2 388.668 315.349 295.832 282.293
8072.93 272.939 375.144 266.487 293.349
8075.66 463.825 378.738 317.727 284.055
8078.39 399.448 413.656 267.952 293.358
8081.12 377.695 360.058 294.396 285.866
8083.85 303.03 369.333 295.251 295.905
8086.58 427.274 356.695 298.069 273.115
8089.31 339.779 395.603 226.027 277.53
8092.04 419.754 361.448 308.495 256.178
8094.77 324.81 385.472 234.012 283.223
8097.5 411.852 358.392 307.161 293.33
8100.23 338.516 391.437 338.817 297.994
8102.96 423.943 378.289 248.003 281.043
8105.69 372.409 395.431 256.308 263.49
8108.41 389.942 369.132 286.159 272.021
8111.14 345.046 359.553 273.596 295.998
8113.87 343.67 347.424 328.239 298.042
8116.6 353.556 357.021 292.292 302.272
8119.32 373.838 376.558 286.284 292.905
8122.05 402.279 356.288 300.139 274.407
8124.78 292.748 348.869 236.799 289.952
8127.5 351.581 329.794 332.918 284.45
8130.23 345.052 331.974 283.632 303.497
8132.96 299.289 346.675 293.942 284.532
8135.68 395.683 321.22 276.023 280.269
8138.41 268.687 338.435 270.841 269.474
8141.13 350.934 338.305 261.558 281.791
8143.86 395.293 352.289 312.973 274.95
8146.58 310.639 307.194 250.318 255.806
8149.31 215.65 295.297 204.127 221.798
8152.03 359.601 315.705 210.948 223.127
8154.75 371.865 360.432 254.305 245.921
8157.48 349.829 363.19 272.511 272.941
8160.2 367.876 351.7 292.007 262.956
8162.93 337.393 355.71 224.35 257.278
8165.65 361.86 353.707 255.477 235.239
8168.37 361.867 371.133 225.889 244.929
8171.09 389.672 364.179 253.419 226.995
8173.82 340.999 363.334 201.677 236.73
8176.54 359.33 319.268 255.093 232.034
8179.26 257.475 319.959 239.331 249.978
8181.98 343.071 324.748 255.511 258.039
8184.7 373.697 349.569 279.275 262.659
8187.42 331.939 322.587 253.19 257.87
8190.15 262.124 304.973 241.144 234.336
8192.87 320.855 307.855 208.673 227.021
8195.59 340.586 332.585 231.247 225.401
8198.31 336.315 348.923 236.282 229.216
8201.03 369.868 339.23 220.119 216.987
8203.75 311.508 327.442 194.561 222.618
8206.47 300.951 330.566 253.174 233.63
8209.19 379.238 339.049 253.153 240.166
8211.9 336.958 348.954 214.171 224.435
8214.62 330.667 335.602 205.982 217.214
8217.34 339.182 314.529 231.49 209.471
8220.06 273.738 300.352 190.941 215.994
8222.78 288.135 291.891 225.551 208.11
8225.5 313.8 317.515 207.836 218.679
8228.21 350.61 329.909 222.65 221.382
8230.93 325.317 326.546 233.661 221.771
8233.65 303.709 323.868 209.003 225.832
8236.36 342.576 312.174 234.832 215.346
8239.08 290.236 315.178 202.203 227.402
8241.8 312.72 306.364 245.171 225.54
8244.51 316.136 315.578 229.245 229.164
8247.23 317.879 320.826 213.076 230.481
8249.94 328.462 326.539 249.123 227.84
8252.66 333.276 333.576 221.323 249.881
8255.37 338.99 328.26 279.197 247.66
8258.09 312.515 313.959 242.459 236.814
8260.8 290.372 305.519 188.785 211.287
8263.52 313.671 316.091 202.616 204.578
8266.23 344.23 327.431 222.332 215.516
8268.95 324.392 334.226 221.601 219.743
8271.66 334.057 317.548 215.297 212.883
8274.37 294.194 315.329 201.75 202.331
8277.09 317.736 314.78 189.946 191.431
8279.8 332.41 319.956 182.596 182.494
8282.51 309.722 326.63 174.94 190.296
8285.22 337.756 314.863 213.351 197.586
8287.94 297.11 319.737 204.468 211.558
8290.65 324.345 311.584 216.856 189.99
8293.36 313.298 317.036 148.646 181.09
8296.07 313.465 304.139 177.768 180.172
8298.78 285.652 300.597 214.101 197.261
8301.49 302.674 304.1 199.914 213.438
8304.2 323.974 307.008 226.3 205.023
8306.91 294.375 286.646 188.855 195.361
8309.62 241.589 283.324 170.928 174.959
8312.33 314.008 287.087 165.094 187.511
8315.04 305.665 323.654 226.512 196.763
8317.75 351.289 317.424 198.684 209.013
8320.46 295.318 322.271 201.843 190.896
8323.17 320.207 311.482 172.16 189.203
8325.88 318.921 319.831 193.605 198.056
8328.59 320.366 324.573 228.402 204.091
8331.3 334.432 312.594 190.267 207.926
8334 282.984 285.083 205.109 189.589
8336.71 237.833 284.527 173.391 171.132
8339.42 332.764 298.882 134.894 172.808
8342.13 326.048 310.979 210.138 169.02
8344.83 274.126 260.659 162.027 150.535
8347.54 181.803 233.106 79.4383 128.792
8350.25 243.39 234.103 144.912 141.876
8352.95 277.115 276.829 201.279 196.817
8355.66 309.982 298.04 244.261 210.202
8358.36 307.024 294.185 185.066 209.364
8361.07 265.549 296.509 198.764 181.416
8363.78 316.954 288.242 160.418 164.68
8366.48 282.223 298.02 134.857 158.255
8369.18 294.884 295.009 179.488 166.961
8371.89 307.921 288.032 186.538 171.074
8374.59 261.292 314.772 147.197 181.929
8377.3 375.104 315.577 212.053 184.7
8380 310.336 323.703 194.849 199.221
8382.7 285.669 291.468 190.762 174.098
8385.41 278.397 294.406 136.683 170.098
8388.11 319.15 282.152 182.848 152.238
8390.81 248.908 299.004 137.184 162.888
8393.52 328.953 315.938 168.634 148.849
8396.22 369.955 358.689 140.729 159.397
8398.92 377.159 350.495 168.829 175.191
8401.62 304.371 325.367 216.016 178.314
8404.32 294.569 299.91 150.098 185.63
8407.02 300.79 313.098 190.777 176.768
8409.72 343.935 318.612 189.43 191.393
8412.42 311.111 323.39 193.973 178.29
8415.12 315.124 306.293 151.468 183.558
8417.83 292.643 300.663 205.232 176.145
8420.52 294.223 282.967 171.736 170.694
8423.22 262.036 287.868 135.113 143.61
8425.92 307.344 281.443 123.982 118.662
8428.62 274.948 291.18 96.8909 95.1205
8431.32 291.249 273.158 64.4887 97.0816
8434.02 253.277 279.885 129.865 122.455
8436.72 295.13 254.706 173.01 155.063
8439.42 215.711 268.3 162.315 168.708
8442.11 294.059 270.922 170.799 176.664
8444.81 302.995 293.808 196.88 155.303
8447.51 284.371 289.537 98.2322 165.646
8450.21 281.246 297.068 201.825 153.384
8452.9 325.587 287.744 160.094 167.842
8455.6 256.4 294.702 141.606 154.039
8458.3 302.121 282.682 160.417 149.956
8460.99 289.525 314.563 147.845 142.126
8463.69 352.043 316.127 118.117 127.634
8466.38 306.814 287.794 116.941 134.174
8469.08 204.525 285.394 167.463 152.455
8471.77 344.842 290.146 172.959 162.299
8474.47 321.07 310.5 146.474 149.47
8477.16 265.588 296.343 128.977 148.37
8479.86 302.37 305.947 169.659 160.446
8482.55 349.884 328.864 182.703 170.825
8485.24 334.338 345.01 160.113 163.863
8487.94 350.81 331.452 148.774 166.437
8490.63 309.207 312.219 190.425 149.626
8493.32 276.639 298.898 109.679 146.993
8496.02 310.847 271.532 140.875 122.701
8498.71 227.11 270.768 117.547 108.147
8501.4 274.347 270.422 66.0195 111.419
8504.09 309.809 296.14 150.691 123.076
8506.78 304.264 295.18 152.517 160.085
8509.47 271.467 297.288 177.049 155.38
8512.17 316.132 284.626 136.575 145.389
8514.86 266.28 290.827 122.542 137.681
8517.55 290.069 294.01 153.927 138.572
8520.24 325.68 306.006 139.246 148.865
8522.93 302.268 309.503 153.422 144.536
8525.62 300.56 304.458 140.939 142.035
8528.31 310.547 296.947 131.743 138.235
8531 279.733 289.824 142.025 144.372
8533.68 279.193 286.504 159.347 152.866
8536.37 300.586 276.111 157.225 152.525
8539.06 248.553 245.205 141.003 139.479
8541.75 186.476 220.224 120.208 122.906
8544.44 225.643 225.23 107.507 115.74
8547.12 263.572 251.029 119.504 109.193
8549.81 263.871 269.571 100.568 111.542
8552.5 281.27 285.721 114.555 118.758
8555.19 312.023 288.087 141.15 122.954
8557.87 270.969 301.401 113.157 127.665
8560.56 321.211 296.486 128.688 132.438
8563.24 297.278 308.332 155.468 150.672
8565.93 306.507 303.991 167.859 153.206
8568.62 308.187 300.383 136.29 145.568
8571.3 286.455 295.271 132.555 139.243
8573.99 291.17 311.191 148.885 167.794
8576.67 355.948 307.137 221.943 183.65
8579.36 274.292 313.248 180.121 185.492
8582.04 309.504 292.295 154.412 154.801
8584.72 293.091 318.24 129.869 134.316
8587.41 352.126 298.525 118.668 127.267
8590.09 250.358 288.805 133.263 129.052
8592.77 263.931 254.246 135.224 128.858
8595.46 248.449 274 118.087 144.92
8598.14 309.62 291.278 181.448 162.481
8600.82 315.764 298.985 187.907 174.677
8603.5 271.572 311.089 154.675 154.96
8606.19 345.93 302.123 122.297 131.151
8608.87 288.867 309.43 116.48 110.901
8611.55 293.494 278.423 93.9243 105.035
8614.23 252.907 284.702 104.699 119.374
8616.91 307.704 299.146 159.497 175.109
8619.59 336.827 320.45 261.132 179.291
8622.27 316.819 323.625 117.242 170.849
8624.95 317.23 319.758 134.171 129.254
8627.63 325.224 316.024 136.347 105.618
8630.31 305.618 298.828 46.3367 83.0981
8632.99 265.643 301.674 66.6107 71.3318
8635.67 333.761 292.493 101.048 84.87
8638.35 278.076 310.753 86.9515 101.418
8641.02 320.423 305.503 116.253 108.656
8643.7 318.012 303.007 122.764 133.53
8646.38 270.586 308.827 161.573 134.091
8649.06 337.883 307.421 117.935 127.377
8651.73 313.794 312.628 102.622 110.598
8654.41 286.208 297.544 111.237 102.991
8657.09 292.628 260.25 95.1138 88.4339
8659.76 201.914 230.529 58.9508 82.7473
8662.44 197.044 233.017 94.1771 73.0496
8665.12 300.094 257.128 66.0209 101.597
8667.79 274.246 273.075 144.592 86.7449
8670.47 244.885 272.651 49.6215 99.293
8673.14 298.821 274.896 103.665 94.542
8675.82 280.983 284.993 130.339 110.499
8678.49 275.174 294.463 97.491 114.444
8681.17 327.233 307.422 115.501 95.8172
8683.84 319.859 319.204 74.4593 100.211
8686.51 310.52 310.331 110.673 91.9719
8689.19 300.614 308.242 90.7835 119.657
8691.86 313.591 311.399 157.515 115.27
8694.53 319.991 314.223 97.5117 121.053
8697.21 309.088 322.348 108.132 92.3227
8699.88 337.965 303.182 71.3239 85.7364
8702.55 262.493 317.682 77.753 83.2815
8705.22 352.59 303.456 100.768 102.496
8707.89 295.285 319.329 128.967 126.47
8710.56 310.113 287.451 149.675 132.382
8713.23 256.955 290.644 118.504 114.607
8715.91 304.863 278.618 75.6412 106.539
8718.58 274.037 305.349 125.473 114.309
8721.25 337.146 302.153 141.811 116.265
8723.92 295.276 303.156 81.5107 108.17
8726.59 277.047 296.815 101.187 99.1043
8729.25 318.123 305.05 114.615 106.981
8731.92 319.98 309.542 105.142 116.019
8734.59 290.523 301.714 128.299 115.491
8737.26 294.638 300.182 113.031 121.92
8739.93 315.386 307.834 124.431 107.397
8742.6 313.477 300.044 84.7278 103.18
8745.26 271.27 303.261 100.382 98.0044
8747.93 325.035 297.89 108.904 106.243
8750.6 297.365 295.368 109.444 88.2339
8753.27 263.704 282.544 46.3544 82.5481
8755.93 286.564 273.537 91.8464 38.929
8758.6 270.343 287.537 -21.4136 33.7488
8761.26 305.705 309.196 30.8136 33.8448
8763.93 351.541 321.741 92.1345 73.8508
8766.6 307.978 324.749 98.6043 90.7355
8769.26 314.729 302.807 81.4677 84.4957
8771.93 285.714 286.982 73.4153 61.8365
8774.59 260.502 267.887 30.6264 49.8492
8777.25 257.445 251.149 45.5059 -7.15654
8779.92 235.502 260.416 -97.602 -51.9432
8782.58 288.302 254.187 -103.734 -60.4098
8785.25 238.756 268.807 20.1062 -0.886206
8787.91 279.363 265.63 80.9689 50.1986
8790.57 278.772 278.564 49.5207 57.3134
8793.23 277.558 278.614 41.4506 56.7522
8795.9 279.51 281.973 79.2855 67.4384
8798.56 288.849 291.99 81.5792 80.1911
8801.22 307.609 283.486 79.7087 66.6834
8803.88 253.998 282.817 38.7625 55.5807
8806.54 286.842 267.984 48.2708 57.5533
8809.2 263.113 269.712 85.6267 64.8488
8811.87 259.18 268.807 60.6489 58.1528
8814.53 284.129 289.214 28.183 49.0466
8817.19 324.335 305.001 58.3079 43.1465
8819.85 306.54 332.533 42.9488 52.022
8822.5 366.725 337.021 54.8092 -15.5683
8825.16 337.797 341.124 -144.463 -75.8954
8827.82 318.851 273.214 -138.033 -193.611
8830.48 162.994 257.892 -298.336 -185.441
8833.14 291.83 257.465 -119.955 -165.727
8835.8 317.571 277.807 -78.891 -60.0593
8838.46 224.02 263.483 18.6683 -11.7996
8841.11 248.859 246.859 24.8239 29.8963
8843.77 267.698 280.521 46.1968 34.2448
8846.43 325.006 313.618 31.7137 21.5991
8849.08 348.15 338.089 -13.113 3.94211
8851.74 341.111 319.034 -6.77433 -10.1179
8854.4 267.84 296.422 -10.4665 17.5732
8857.05 280.316 275.699 69.9604 34.9926
8859.71 278.942 280.333 45.484 36.5907
8862.36 281.741 283.698 -5.67231 17.8584
8865.02 290.411 291.398 13.7636 -18.5583
8867.67 302.041 287.376 -63.7662 -39.1375
8870.33 269.678 292.465 -67.4099 -59.1721
8872.98 305.676 265.201 -46.3403 -47.4823
8875.64 220.248 270.124 -28.6967 -16.5954
8878.29 284.447 253.479 25.2509 -19.6972
8880.94 255.743 311.391 -55.6458 -12.5569
8883.6 393.984 323.034 -7.27584 -53.2369
8886.25 319.376 336.759 -96.789 -100.008
8888.9 296.916 284.082 -195.958 -101.736
8891.55 235.954 282.927 -12.4621 -24.9862
8894.21 315.913 281.205 133.461 44.8172
8896.86 291.749 312.405 13.4526 64.3705
8899.51 329.553 313.741 46.1978 28.0898
8902.16 319.921 334.728 24.6192 0.434494
8904.81 354.708 321.396 -69.5135 -35.8621
8907.46 289.559 290.076 -62.6919 -19.9181
8910.11 225.961 257.801 72.451 7.36994
8912.76 257.881 234.996 12.3507 26.3639
8915.41 221.147 252.621 -5.71011 -19.9186
8918.06 278.835 265.114 -66.3963 -52.0813
8920.71 295.361 319.527 -84.1376 -105.006
8923.36 384.383 311.956 -164.484 -71.9177
8926.01 256.123 277.843 32.868 -8.02541
8928.65 193.022 249.254 107.539 71.2203
8931.3 298.617 258.833 73.2533 68.5947
8933.95 284.859 287.275 24.9913 37.9429
8936.6 278.35 290.21 15.5842 11.2267
8939.24 307.422 297.342 -6.89549 -12.1783
8941.89 306.254 288.772 -45.2236 -19.5094
8944.54 252.639 274.143 -6.40898 -21.6551
8947.18 263.537 260.226 -13.3328 -19.5807
8949.83 264.502 264.926 -39.0002 -31.8271
8952.47 266.74 261.139 -43.1484 -30.2754
8955.12 252.176 268.732 -8.67761 -26.7608
8957.76 287.28 288.438 -28.4564 -23.7274
8960.41 325.859 267.611 -34.0482 -15.1444
8963.05 189.695 245.064 17.0713 0.0777714
8965.7 219.639 194.825 17.2102 11.9721
8968.34 175.14 224.883 1.63496 19.6631
8970.99 279.869 230.808 40.1442 6.94579
8973.63 237.416 254.175 -20.9418 4.34392
8976.27 245.242 250.15 -6.17067 -11.1403
8978.91 267.791 272.786 -6.3083 -16.336
8981.56 305.326 282.698 -36.529 -27.7932
8984.2 274.977 276.296 -40.5424 -30.784
8986.84 248.584 256.452 -15.2806 -25.2282
8989.48 245.795 254.866 -19.8615 -12.6455
8992.12 270.219 250.98 -2.79435 -42.3233
8994.76 236.926 254.973 -104.314 -46.7811
8997.4 257.773 233.41 -33.2351 -52.4624
9000.04 205.531 239.096 -19.8381 -32.4102
9002.68 253.984 242.937 -44.1575 -42.56
9005.32 269.297 260.82 -63.6843 -42.4404
9007.96 259.179 248.199 -19.4793 -45.5305
9010.6 216.119 236.961 -53.4279 -42.9747
9013.24 235.583 228.05 -56.0167 -53.5404
9015.88 232.447 239.983 -51.1764 -42.1559
9018.52 251.919 245.827 -19.2745 -45.8611
9021.16 253.116 241.857 -67.1325 -57.2125
9023.79 220.536 249.688 -85.2306 -75.6959
9026.43 275.41 261.026 -74.7248 -81.8339
9029.07 287.133 276.544 -85.5462 -65.15
9031.71 267.088 268.526 -35.1791 -52.6865
9034.34 251.357 270.805 -37.334 -38.0672
9036.98 293.97 266.131 -41.6886 -47.7708
9039.61 253.068 264.85 -64.2899 -47.456
9042.25 247.513 261.995 -36.3895 -62.9358
9044.88 285.405 271.772 -88.128 -78.3778
9047.52 282.398 271.632 -110.616 -93.3143
9050.15 247.094 254.315 -81.1989 -100.709
9052.79 233.453 231.424 -110.311 -102.839
9055.42 213.726 222.567 -117.007 -116.92
9058.06 220.522 209.855 -123.442 -103.311
9060.69 195.318 223.438 -69.4829 -99.0769
9063.32 254.475 234.024 -104.306 -83.4068
9065.96 252.278 236.465 -76.4319 -73.8681
9068.59 202.641 226.743 -40.8667 -55.1987
9071.22 225.311 208.191 -48.2973 -46.5072
9073.85 196.622 175.17 -50.3575 -19.6225
9076.48 103.577 100.066 39.7874 -3.52336
