wavelength spec_sum
3532.34 46.2961
3535.26 20.8342
3538.19 37.9263
3541.11 20.6974
3544.03 31.143
3546.95 29.1323
3549.88 32.1619
3552.8 26.7137
3555.72 22.7528
3558.64 34.9039
3561.56 28.5311
3564.49 6.89684
3567.41 30.7211
3570.33 14.3152
3573.25 42.6525
3576.18 20.5552
3579.1 21.3795
3582.02 19.1052
3584.94 10.5349
3587.86 19.5524
3590.79 41.7094
3593.71 29.3051
3596.63 25.738
3599.55 22.11
3602.47 23.3889
3605.39 29.4812
3608.32 21.5522
3611.24 36.5511
3614.16 12.3856
3617.08 22.6344
3620 27.8103
3622.92 30.9671
3625.85 21.1487
3628.77 28.7889
3631.69 42.318
3634.61 37.8203
3637.53 45.6396
3640.45 45.9056
3643.37 36.3572
3646.3 25.7626
3649.22 40.4517
3652.14 32.5228
3655.06 47.5778
3657.98 46.2775
3660.9 33.1876
3663.82 33.9028
3666.74 36.3837
3669.66 40.3295
3672.58 35.0755
3675.51 35.7043
3678.43 32.331
3681.35 22.7229
3684.27 35.1451
3687.19 31.2286
3690.11 33.2568
3693.03 39.1127
3695.95 32.1903
3698.87 45.5086
3701.79 36.4948
3704.71 32.2431
3707.63 33.0212
3710.55 41.1959
3713.47 26.7195
3716.39 28.1692
3719.31 31.3876
3722.23 38.6217
3725.15 34.3169
3728.07 30.2958
3730.99 25.0618
3733.91 26.1717
3736.83 28.8505
3739.75 23.467
3742.67 32.7762
3745.59 25.6195
3748.51 32.7635
3751.43 31.6996
3754.35 41.1107
3757.27 38.1312
3760.19 31.2581
3763.11 46.3993
3766.03 36.56
3768.95 37.4991
3771.87 39.6404
3774.79 41.9183
3777.71 38.5823
3780.63 37.483
3783.55 42.9772
3786.47 37.4712
3789.39 40.7937
3792.31 41.7802
3795.22 43.7134
3798.14 46.1617
3801.06 41.519
3803.98 32.6666
3806.9 37.5408
3809.82 45.2401
3812.74 35.661
3815.66 31.2804
3818.58 31.0482
3821.5 29.179
3824.41 31.7091
3827.33 24.222
3830.25 30.3083
3833.17 23.7129
3836.09 26.4035
3839.01 25.1908
3841.93 31.6709
3844.84 36.2053
3847.76 43.3513
3850.68 42.7044
3853.6 34.8108
3856.52 32.984
3859.44 44.9433
3862.35 39.6651
3865.27 37.058
3868.19 33.9984
3871.11 29.4185
3874.03 39.2643
3876.94 28.7885
3879.86 30.6149
3882.78 30.7724
3885.7 29.8719
3888.62 37.6301
3891.53 37.0902
3894.45 39.9332
3897.37 38.8571
3900.29 35.226
3903.2 30.843
3906.12 41.5393
3909.04 42.1465
3911.96 42.8554
3914.87 45.2472
3917.79 42.5927
3920.71 35.2971
3923.63 31.0807
3926.54 30.4715
3929.46 13.9641
3932.38 24.9037
3935.29 20.7365
3938.21 24.3555
3941.13 32.5035
3944.05 29.8071
3946.96 28.6317
3949.88 38.8835
3952.8 40.5112
3955.71 36.5083
3958.63 31.5696
3961.55 34.5918
3964.46 20.35
3967.38 29.1846
3970.3 27.8433
3973.21 29.1613
3976.13 42.8226
3979.05 31.0896
3981.96 39.081
3984.88 45.2113
3987.8 41.4245
3990.71 48.2528
3993.63 49.2652
3996.54 60.2614
3999.46 56.746
4002.38 43.5292
4005.29 48.3125
4008.21 43.2105
4011.12 51.4593
4014.04 51.967
4016.96 53.115
4019.87 50.2857
4022.79 61.1045
4025.7 59.2804
4028.62 48.6607
4031.53 60.0138
4034.45 58.5591
4037.37 52.3656
4040.28 48.0875
4043.2 50.7972
4046.11 53.4939
4049.03 57.2032
4051.94 57.3403
4054.86 52.2088
4057.77 59.0651
4060.69 56.791
4063.6 48.5628
4066.52 51.738
4069.43 50.895
4072.35 58.6355
4075.26 46.2697
4078.18 53.8116
4081.09 59.2165
4084.01 55.8891
4086.92 58.3146
4089.84 57.3304
4092.75 57.1157
4095.67 47.715
4098.58 50.7201
4101.49 45.3367
4104.41 51.3587
4107.32 56.8151
4110.24 60.1206
4113.15 55.312
4116.07 56.9771
4118.98 58.7594
4121.89 60.5552
4124.81 58.7352
4127.72 55.7526
4130.64 60.8266
4133.55 57.0003
4136.46 61.9639
4139.38 51.8732
4142.29 59.7441
4145.21 62.7893
4148.12 53.9359
4151.03 58.2531
4153.95 54.3817
4156.86 57.4018
4159.77 51.1019
4162.69 63.7796
4165.6 53.4073
4168.51 55.8223
4171.43 49.5533
4174.34 65.5768
4177.25 56.2953
4180.17 53.3469
4183.08 53.7114
4185.99 55.2938
4188.91 56.546
4191.82 54.4986
4194.73 57.6493
4197.64 51.5198
4200.56 47.5322
4203.47 60.0551
4206.38 46.5636
4209.29 49.6669
4212.21 51.6177
4215.12 58.4112
4218.03 53.7303
4220.94 51.6954
4223.86 47.3146
4226.77 49.1172
4229.68 55.0566
4232.59 49.6485
4235.51 47.6043
4238.42 49.3931
4241.33 52.312
4244.24 54.2159
4247.15 51.6108
4250.07 51.5087
4252.98 44.3601
4255.89 51.5087
4258.8 54.8673
4261.71 57.8721
4264.62 51.8858
4267.54 47.0179
4270.45 50.1101
4273.36 47.2286
4276.27 45.4835
4279.18 52.5081
4282.09 47.6655
4285 45.9172
4287.92 41.7799
4290.83 54.9928
4293.74 46.6337
4296.65 38.3882
4299.56 38.2845
4302.47 38.3122
4305.38 42.3871
4308.29 41.0799
4311.2 44.1971
4314.11 41.7622
4317.02 47.0588
4319.93 50.4247
4322.85 50.2054
4325.76 48.3899
4328.67 54.6942
4331.58 56.1097
4334.49 50.456
4337.4 55.0814
4340.31 57.3563
4343.22 49.4242
4346.13 50.4897
4349.04 44.8844
4351.95 48.7611
4354.86 49.7962
4357.77 51.0671
4360.68 58.1294
4363.59 55.863
4366.5 53.577
4369.41 51.1311
4372.32 50.1248
4375.23 58.8218
4378.14 48.6294
4381.04 54.5656
4383.95 53.7543
4386.86 45.9154
4389.77 55.2391
4392.68 55.5049
4395.59 55.6205
4398.5 50.5376
4401.41 52.3445
4404.32 51.8899
4407.23 54.5935
4410.14 52.6562
4413.04 48.4655
4415.95 56.967
4418.86 55.0828
4421.77 59.3337
4424.68 56.2058
4427.59 54.9128
4430.5 60.0496
4433.41 64.3997
4436.31 61.587
4439.22 60.3206
4442.13 55.3821
4445.04 60.5144
4447.95 63.5324
4450.85 56.9254
4453.76 57.625
4456.67 53.3692
4459.58 58.1198
4462.49 57.3696
4465.39 60.6727
4468.3 62.8368
4471.21 55.5488
4474.12 64.7489
4477.02 62.9943
4479.93 63.7698
4482.84 52.5417
4485.75 57.7113
4488.65 54.9873
4491.56 65.9244
4494.47 60.6332
4497.38 56.0706
4500.28 63.4739
4503.19 61.1836
4506.1 59.7265
4509 58.4506
4511.91 64.6345
4514.82 61.5536
4517.72 63.5177
4520.63 60.8896
4523.54 55.1442
4526.44 58.7678
4529.35 60.1651
4532.26 58.3409
4535.16 54.1751
4538.07 61.3253
4540.98 59.0473
4543.88 64.5538
4546.79 56.762
4549.69 59.2835
4552.6 57.1259
4555.51 60.7638
4558.41 61.2468
4561.32 62.8767
4564.22 58.7224
4567.13 59.3735
4570.03 60.4648
4572.94 59.8717
4575.85 58.7181
4578.75 62.5585
4581.66 58.6971
4584.56 50.0966
4587.47 62.2321
4590.37 58.9843
4593.28 69.0566
4596.18 60.6239
4599.09 65.1454
4601.99 58.5395
4604.9 57.7213
4607.8 65.6713
4610.71 66.0978
4613.61 59.6107
4616.52 62.3587
4619.42 61.8029
4622.32 62.8713
4625.23 67.685
4628.13 62.6254
4631.04 51.9247
4633.94 63.2226
4636.85 64.0243
4639.75 59.125
4642.65 64.586
4645.56 59.7364
4648.46 60.3328
4651.37 57.2551
4654.27 60.8263
4657.17 63.4928
4660.08 58.8839
4662.98 62.0773
4665.88 54.5102
4668.79 63.8995
4671.69 65.0914
4674.59 59.4625
4677.5 56.7099
4680.4 61.9837
4683.3 59.9068
4686.21 58.6202
4689.11 58.0787
4692.01 58.2334
4694.92 61.5273
4697.82 59.5703
4700.72 61.5443
4703.62 60.7569
4706.53 58.8776
4709.43 64.6479
4712.33 62.9305
4715.23 61.9115
4718.14 61.1056
4721.04 56.9862
4723.94 62.6169
4726.84 57.3132
4729.75 55.9587
4732.65 54.4784
4735.55 65.744
4738.45 61.2165
4741.35 59.364
4744.25 58.3319
4747.16 61.2358
4750.06 54.7036
4752.96 60.5458
4755.86 64.4394
4758.76 56.8181
4761.66 63.6299
4764.57 62.5746
4767.47 61.6298
4770.37 51.1624
4773.27 59.1995
4776.17 53.8926
4779.07 53.8848
4781.97 58.3171
4784.87 56.5704
4787.77 60.0568
4790.67 64.9749
4793.57 59.8844
4796.47 57.6103
4799.38 60.4407
4802.28 54.0765
4805.18 56.2213
4808.08 54.5224
4810.98 58.2994
4813.88 62.253
4816.78 61.9697
4819.68 56.437
4822.58 61.7243
4825.48 57.2452
4828.38 61.826
4831.28 64.0919
4834.18 63.623
4837.07 58.0021
4839.97 57.6
4842.87 59.9282
4845.77 61.5856
4848.67 60.588
4851.57 54.1095
4854.47 51.3539
4857.37 54.8737
4860.27 50.0485
4863.17 52.9076
4866.07 59.1586
4868.97 59.7387
4871.86 60.6977
4874.76 61.3344
4877.66 63.2458
4880.56 62.7859
4883.46 57.8211
4886.36 59.2639
4889.25 55.5355
4892.15 63.3545
4895.05 60.6123
4897.95 63.4363
4900.85 59.5128
4903.74 59.7368
4906.64 63.231
4909.54 62.0434
4912.44 61.847
4915.34 56.7906
4918.23 58.1534
4921.13 58.5056
4924.03 57.6174
4926.93 58.7655
4929.82 58.6593
4932.72 60.1766
4935.62 66.2657
4938.51 63.1822
4941.41 62.1109
4944.31 62.9241
4947.2 61.816
4950.1 61.2352
4953 59.296
4955.89 53.8297
4958.79 51.3013
4961.69 62.7909
4964.58 61.0537
4967.48 60.6043
4970.38 60.245
4973.27 65.7572
4976.17 57.9369
4979.06 55.9072
4981.96 57.1103
4984.86 60.7392
4987.75 58.5077
4990.65 66.4801
4993.54 60.5201
4996.44 64.6003
4999.33 61.622
5002.23 56.997
5005.12 61.7189
5008.02 55.8691
5010.92 53.485
5013.81 57.3675
5016.71 59.1969
5019.6 57.8333
5022.5 63.2253
5025.39 62.2959
5028.28 54.0255
5031.18 64.2778
5034.07 63.8895
5036.97 65.531
5039.86 59.7892
5042.76 58.8894
5045.65 65.2349
5048.55 63.836
5051.44 61.829
5054.33 56.2053
5057.23 65.2346
5060.12 62.4844
5063.01 58.6334
5065.91 64.6623
5068.8 62.5963
5071.7 64.6772
5074.59 60.7984
5077.48 57.1445
5080.38 59.8553
5083.27 62.4912
5086.16 57.3733
5089.05 65.9723
5091.95 65.4861
5094.84 54.6744
5097.73 59.321
5100.63 62.4888
5103.52 62.005
5106.41 62.7726
5109.3 60.6275
5112.2 59.5204
5115.09 66.8955
5117.98 66.8852
5120.87 63.1262
5123.77 59.1549
5126.66 63.9902
5129.55 65.9729
5132.44 59.9058
5135.33 59.7604
5138.22 57.3325
5141.12 59.7988
5144.01 55.9666
5146.9 62.7736
5149.79 62.4811
5152.68 56.758
5155.57 62.689
5158.46 64.3609
5161.35 60.1865
5164.25 55.471
5167.14 48.8065
5170.03 50.3216
5172.92 54.7663
5175.81 58.5427
5178.7 51.8455
5181.59 50.1949
5184.48 51.138
5187.37 59.0905
5190.26 60.1024
5193.15 60.1894
5196.04 65.175
5198.93 59.3044
5201.82 50.7498
5204.71 52.1229
5207.6 54.2677
5210.49 54.7184
5213.38 51.1673
5216.27 57.4148
5219.16 23.879
5222.05 58.2744
5224.94 56.007
5227.83 51.7126
5230.71 57.8664
5233.6 57.0201
5236.49 60.175
5239.38 59.5257
5242.27 26.7587
5245.16 62.2662
5248.05 53.6025
5250.94 59.7624
5253.82 61.2758
5256.71 27.0723
5259.6 53.2688
5262.49 52.4146
5265.38 49.1096
5268.26 56.8911
5271.15 58.4165
5274.04 56.2532
5276.93 58.0004
5279.82 53.846
5282.7 56.7144
5285.59 20.1247
5288.48 60.872
5291.36 54.1001
5294.25 56.9278
5297.14 58.8625
5300.03 59.2081
5302.91 59.8989
5305.8 58.2356
5308.69 29.0124
5311.57 59.9005
5314.46 60.9571
5317.35 54.7392
5320.23 24.119
5323.12 52.0827
5326 54.5382
5328.89 54.2335
5331.78 27.9391
5334.66 54.4709
5337.55 55.5076
5340.43 27.8447
5343.32 26.2594
5346.21 55.9587
5349.09 23.1365
5351.98 53.82
5354.86 56.673
5357.75 57.7563
5360.63 55.6046
5363.52 59.5184
5366.4 59.1017
5369.29 52.4587
5372.17 55.9194
5375.06 53.6264
5377.94 54.9491
5380.82 62.3987
5383.71 56.2399
5386.59 58.4341
5389.48 53.521
5392.36 58.364
5395.25 53.9294
5398.13 55.5645
5401.01 58.5371
5403.9 46.6757
5406.78 25.9485
5409.66 57.7265
5412.55 52.5899
5415.43 54.2631
5418.31 56.7671
5421.2 21.8447
5424.08 22.5743
5426.96 56.4697
5429.85 28.5496
5432.73 52.3939
5435.61 31.317
5438.49 59.5916
5441.38 59.278
5444.26 57.5912
5447.14 53.7935
5450.02 27.7283
5452.91 54.2756
5455.79 52.0994
5458.67 28.4282
5461.55 52.6554
5464.43 62.1755
5467.32 23.5886
5470.2 19.8616
5473.08 58.8695
5475.96 24.5364
5478.84 55.157
5481.72 21.3166
5484.6 63.5435
5487.49 56.1642
5490.37 25.9967
5493.25 60.5662
5496.13 55.1639
5499.01 59.1698
5501.89 56.5636
5504.77 54.9748
5507.65 26.1216
5510.53 55.9197
5513.41 62.5358
5516.29 30.6815
5519.17 24.6162
5522.05 58.0222
5524.93 56.0103
5527.81 55.4889
5530.69 55.5033
5533.57 23.1502
5536.45 54.8017
5539.33 59.4224
5542.21 59.0059
5545.09 56.5476
5547.96 66.52
5550.84 56.8071
5553.72 60.8371
5556.6 57.5511
5559.48 55.2067
5562.36 58.5621
5565.24 52.231
5568.12 56.2303
5570.99 24.5755
5573.87 55.0425
5576.75 59.6356
5579.63 11.0204
5582.51 9.79076
5585.38 51.3845
5588.26 21.0317
5591.14 55.6681
5594.02 20.5178
5596.89 24.2194
5599.77 56.4231
5602.65 27.138
5605.52 56.0407
5608.4 21.0966
5611.28 55.1094
5614.15 53.9476
5617.03 60.0011
5619.91 57.7687
5622.78 57.6439
5625.66 55.2286
5628.54 56.5944
5631.41 57.5919
5634.29 59.4566
5637.17 57.7254
5640.04 27.6056
5642.92 28.5846
5645.79 53.5803
5648.67 57.408
5651.54 54.9404
5654.42 53.9673
5657.29 49.0369
5660.17 19.9918
5663.04 24.7469
5665.92 56.6786
5668.79 57.0659
5671.67 57.6951
5674.54 21.4868
5677.42 53.6869
5680.29 54.9413
5683.17 58.8896
5686.04 53.6508
5688.91 53.1177
5691.79 53.1904
5694.66 52.3646
5697.54 57.577
5700.41 51.9041
5703.28 54.8043
5706.16 53.3528
5709.03 55.4369
5711.9 51.2305
5714.78 20.5398
5717.65 56.1097
5720.52 59.2191
5723.4 50.3415
5726.27 53.1943
5729.14 55.0008
5732.01 22.0291
5734.89 60.9444
5737.76 51.8165
5740.63 50.8746
5743.5 51.5987
5746.37 50.8108
5749.25 55.07
5752.12 50.5393
5754.99 45.0201
5757.86 50.315
5760.73 54.3962
5763.6 18.763
5766.47 19.3174
5769.35 51.2833
5772.22 55.006
5775.09 15.5217
5777.96 54.6413
5780.83 53.0307
5783.7 21.7859
5786.57 18.8814
5789.44 54.0359
5792.31 20.1244
5795.18 51.6472
5798.05 21.0838
5800.92 24.1457
5803.79 53.7538
5806.66 51.4548
5809.53 20.4309
5812.4 49.3344
5815.27 53.5822
5818.14 53.4095
5821.01 19.4256
5823.88 51.148
5826.75 52.6302
5829.61 52.5795
5832.48 57.8845
5835.35 53.4652
5838.22 20.8047
5841.09 50.1434
5843.96 52.5125
5846.82 53.9209
5849.69 17.1618
5852.56 59.2588
5855.43 54.8566
5858.3 22.9392
5861.16 56.7674
5864.03 47.998
5866.9 56.3401
5869.77 17.2429
5872.63 49.1346
5875.5 22.2801
5878.37 56.2278
5881.23 54.3385
5884.1 8.35797
5886.97 47.9416
5889.83 7.61848
5892.7 8.98179
5895.57 50.6359
5898.43 16.467
5901.3 52.7603
5904.16 18.8884
5907.03 54.103
5909.9 22.5569
5912.76 58.0373
5915.63 54.674
5918.49 58.2326
5921.36 56.5248
5924.22 62.5169
5927.09 24.5203
5929.95 22.0592
5932.82 28.7222
5935.68 58.7027
5938.55 24.4469
5941.41 57.1933
5944.28 57.4977
5947.14 16.9865
5950 12.5379
5952.87 61.8051
5955.73 57.8191
5958.6 25.1461
5961.46 19.7793
5964.32 58.9352
5967.19 56.8264
5970.05 21.309
5972.91 24.9849
5975.78 49.7071
5978.64 59.5002
5981.5 59.652
5984.36 51.6398
5987.23 58.3007
5990.09 59.3762
5992.95 55.3643
5995.81 51.9562
5998.68 63.0161
6001.54 53.3864
6004.4 61.3958
6007.26 50.5756
6010.12 58.5304
6012.98 23.6588
6015.85 58.848
6018.71 52.2787
6021.57 56.2596
6024.43 51.8582
6027.29 25.2547
6030.15 52.8534
6033.01 53.7156
6035.87 21.269
6038.73 58.2674
6041.59 55.4785
6044.45 56.7278
6047.31 56.6902
6050.17 55.0644
6053.03 54.4023
6055.89 57.0478
6058.75 52.098
6061.61 58.6531
6064.47 56.405
6067.33 53.5974
6070.19 22.8619
6073.05 55.966
6075.91 59.202
6078.77 18.6749
6081.62 26.4849
6084.48 55.9609
6087.34 57.4029
6090.2 53.2301
6093.06 51.9026
6095.92 19.704
6098.77 62.7182
6101.63 55.2489
6104.49 23.2825
6107.35 55.4793
6110.2 61.0035
6113.06 59.9891
6115.92 25.6992
6118.78 55.5302
6121.63 59.4181
6124.49 57.772
6127.35 59.1599
6130.2 55.1574
6133.06 50.1472
6135.92 57.7554
6138.77 52.6302
6141.63 51.3627
6144.48 59.179
6147.34 23.9937
6150.19 56.4817
6153.05 52.935
6155.91 53.0316
6158.76 57.6245
6161.62 53.5275
6164.47 26.3363
6167.33 56.3102
6170.18 57.9248
6173.04 53.8896
6175.89 52.9478
6178.74 54.1239
6181.6 23.776
6184.45 53.934
6187.31 55.9804
6190.16 24.2995
6193.01 54.2977
6195.87 22.7176
6198.72 56.4333
6201.57 21.6902
6204.43 18.9055
6207.28 51.4034
6210.13 53.7414
6212.99 52.0194
6215.84 26.4107
6218.69 28.5464
6221.54 58.225
6224.4 22.679
6227.25 55.1425
6230.1 57.491
6232.95 49.5414
6235.8 55.2796
6238.66 57.8376
6241.51 20.439
6244.36 54.3208
6247.21 55.7087
6250.06 54.6137
6252.91 54.6109
6255.76 55.841
6258.61 52.5198
6261.46 16.8648
6264.32 63.2839
6267.17 58.3908
6270.02 54.4398
6272.87 55.4701
6275.72 59.3976
6278.57 56.7012
6281.42 48.6893
6284.27 57.3744
6287.11 57.0142
6289.96 52.1727
6292.81 53.2668
6295.66 55.3281
6298.51 -0.314027
6301.36 61.24
6304.21 55.3629
6307.06 11.5872
6309.91 56.7087
6312.75 56.7999
6315.6 53.7123
6318.45 53.9066
6321.3 27.6958
6324.15 58.117
6326.99 59.2114
6329.84 25.5523
6332.69 58.3816
6335.53 56.1036
6338.38 58.7534
6341.23 56.0919
6344.08 58.1252
6346.92 24.8637
6349.77 58.7499
6352.61 59.1065
6355.46 52.407
6358.31 16.1121
6361.15 15.8483
6364 16.3906
6366.84 58.5379
6369.69 54.239
6372.54 51.0542
6375.38 21.5044
6378.23 54.2052
6381.07 54.4068
6383.92 57.8941
6386.76 52.3701
6389.6 58.1612
6392.45 45.2044
6395.29 53.606
6398.14 57.4695
6400.98 53.7513
6403.83 21.2451
6406.67 52.306
6409.51 51.4191
6412.36 59.3073
6415.2 50.2706
6418.04 16.7619
6420.89 56.6899
6423.73 51.9908
6426.57 50.6467
6429.41 53.6735
6432.26 24.6128
6435.1 53.3732
6437.94 24.0377
6440.78 50.9594
6443.63 54.5254
6446.47 56.6816
6449.31 58.4884
6452.15 53.2014
6454.99 18.7646
6457.83 28.6566
6460.67 56.5052
6463.51 52.6375
6466.36 49.2901
6469.2 58.3858
6472.04 27.54
6474.88 57.771
6477.72 57.5398
6480.56 55.6885
6483.4 53.0018
6486.24 52.6996
6489.08 48.1544
6491.92 50.3908
6494.76 51.3621
6497.59 47.9291
6500.43 48.4376
6503.27 10.6962
6506.11 40.1283
6508.95 16.2463
6511.79 52.073
6514.63 45.6106
6517.46 19.2888
6520.3 45.2821
6523.14 50.0747
6525.98 42.5956
6528.82 45.1105
6531.65 51.2477
6534.49 46.0237
6537.33 46.6233
6540.17 16.0078
6543 44.1518
6545.84 15.8625
6548.68 46.7948
6551.51 47.0061
6554.35 38.4358
6557.18 36.122
6560.02 39.0705
6562.86 38.6869
6565.69 42.8911
6568.53 13.8899
6571.36 47.1833
6574.2 44.5651
6577.03 50.8936
6579.87 15.7954
6582.7 47.6433
6585.54 50.6884
6588.37 50.0081
6591.21 56.1568
6594.04 49.9077
6596.87 52.3248
6599.71 44.6115
6602.54 52.5115
6605.38 41.4557
6608.21 46.3779
6611.04 51.4208
6613.88 17.1127
6616.71 47.9675
6619.54 45.5213
6622.37 48.9901
6625.21 18.2847
6628.04 51.3463
6630.87 27.2698
6633.7 24.0392
6636.54 17.4624
6639.37 49.2516
6642.2 47.9929
6645.03 48.521
6647.86 23.9782
6650.69 19.3262
6653.52 53.6782
6656.36 46.0025
6659.19 16.787
6662.02 53.2299
6664.85 53.7593
6667.68 54.0198
6670.51 20.3983
6673.34 17.7071
6676.17 51.095
6679 54.5439
6681.83 49.6187
6684.66 52.3252
6687.49 54.5807
6690.31 48.5092
6693.14 47.8176
6695.97 49.573
6698.8 19.54
6701.63 48.7616
6704.46 50.4117
6707.29 48.4835
6710.11 42.0797
6712.94 14.9114
6715.77 50.5665
6718.6 46.0514
6721.42 52.2074
6724.25 12.2488
6727.08 44.8072
6729.9 44.0497
6732.73 43.5551
6735.56 48.7229
6738.38 47.4793
6741.21 15.1434
6744.04 48.1015
6746.86 51.0623
6749.69 48.1685
6752.51 46.9623
6755.34 50.962
6758.16 46.2767
6760.99 53.6224
6763.81 47.2937
6766.64 49.894
6769.46 52.072
6772.29 48.2011
6775.11 19.9293
6777.94 46.5735
6780.76 22.7814
6783.58 19.4538
6786.41 46.8594
6789.23 45.5573
6792.06 50.9465
6794.88 41.6507
6797.7 43.4509
6800.52 53.45
6803.35 51.3911
6806.17 52.0929
6808.99 48.5579
6811.81 49.0636
6814.64 22.7728
6817.46 49.9001
6820.28 42.4654
6823.1 47.1324
6825.92 17.539
6828.74 50.0967
6831.57 17.751
6834.39 48.656
6837.21 47.4177
6840.03 47.0892
6842.85 17.1791
6845.67 49.4334
6848.49 48.8134
6851.31 49.8259
6854.13 44.679
6856.95 41.0194
6859.77 43.2836
6862.59 41.0504
6865.41 7.12773
6868.22 32.7578
6871.04 11.8156
6873.86 39.5736
6876.68 41.1058
6879.5 15.1492
6882.32 40.7921
6885.14 37.8647
6887.95 42.1851
6890.77 39.4727
6893.59 39.5178
6896.41 42.2793
6899.22 43.652
6902.04 44.1438
6904.86 16.1021
6907.67 42.8358
6910.49 17.4436
6913.31 45.2799
6916.12 50.3392
6918.94 50.1673
6921.75 49.346
6924.57 47.1468
6927.38 49.5196
6930.2 45.1301
6933.02 21.3823
6935.83 54.2894
6938.64 46.4311
6941.46 45.0933
6944.27 46.1964
6947.09 48.5533
6949.9 52.1011
6952.72 49.1922
6955.53 48.3523
6958.34 53.2084
6961.16 51.2096
6963.97 47.2455
6966.78 49.488
6969.6 24.1902
6972.41 50.4914
6975.22 48.9687
6978.03 47.9625
6980.85 51.4484
6983.66 50.8125
6986.47 23.3857
6989.28 50.3413
6992.09 48.0267
6994.9 17.8653
6997.72 51.9371
7000.53 51.7126
7003.34 54.2043
7006.15 54.8557
7008.96 50.4628
7011.77 15.17
7014.58 51.2793
7017.39 20.1862
7020.2 47.8467
7023.01 50.8287
7025.82 49.1473
7028.63 44.4961
7031.44 49.2407
7034.25 45.1503
7037.05 47.6939
7039.86 49.9663
7042.67 47.2663
7045.48 19.8696
7048.29 40.7366
7051.09 48.8024
7053.9 56.1638
7056.71 47.1399
7059.52 50.721
7062.32 22.1857
7065.13 51.5047
7067.94 22.2147
7070.74 51.4947
7073.55 50.2812
7076.36 52.0962
7079.16 50.9139
7081.97 21.9086
7084.78 51.4303
7087.58 49.685
7090.39 52.9605
7093.19 25.2804
7096 54.065
7098.8 50.7114
7101.61 48.6427
7104.41 20.2208
7107.21 52.41
7110.02 51.918
7112.82 29.9734
7115.63 22.5368
7118.43 51.4762
7121.23 55.3418
7124.04 49.3748
7126.84 21.026
7129.64 49.5837
7132.45 21.4595
7135.25 20.1729
7138.05 49.8391
7140.85 49.5853
7143.65 53.2955
7146.46 45.6747
7149.26 50.7199
7152.06 53.4454
7154.86 15.6297
7157.66 51.9323
7160.46 51.1545
7163.26 49.6409
7166.06 47.4347
7168.86 20.6135
7171.66 50.6523
7174.46 46.0875
7177.26 48.2783
7180.06 49.293
7182.86 42.0107
7185.66 49.3068
7188.46 41.3314
7191.26 19.2731
7194.06 19.037
7196.86 17.917
7199.65 46.067
7202.45 46.2771
7205.25 47.4725
7208.05 49.1376
7210.85 21.8081
7213.64 22.6414
7216.44 50.8586
7219.24 49.649
7222.03 51.7819
7224.83 48.0135
7227.63 51.2248
7230.42 41.9815
7233.22 48.2846
7236.01 48.5999
7238.81 8.52771
7241.61 52.4484
7244.4 45.7347
7247.2 49.3645
7249.99 46.8519
7252.79 51.1392
7255.58 43.225
7258.37 43.9375
7261.17 43.5317
7263.96 42.9009
7266.76 41.3483
7269.55 46.6666
7272.34 48.8577
7275.14 41.1439
7277.93 46.8023
7280.72 48.4322
7283.51 45.456
7286.31 45.8904
7289.1 48.7667
7291.89 45.0271
7294.68 49.5958
7297.47 52.4391
7300.27 47.3226
7303.06 46.2123
7305.85 18.9963
7308.64 45.2436
7311.43 14.4562
7314.22 9.02079
7317.01 48.1276
7319.8 50.0078
7322.59 46.7003
7325.38 11.3592
7328.17 50.5068
7330.96 16.4827
7333.75 15.0485
7336.54 41.9202
7339.33 45.5079
7342.11 9.16322
7344.9 14.7944
7347.69 45.2896
7350.48 16.0551
7353.27 47.8301
7356.05 17.5632
7358.84 50.2282
7361.63 54.8898
7364.42 49.049
7367.2 47.5293
7369.99 39.0358
7372.77 49.1493
7375.56 46.8484
7378.35 42.2415
7381.13 19.0592
7383.92 12.9947
7386.7 51.225
7389.49 17.9732
7392.27 49.2537
7395.06 48.2338
7397.84 54.4774
7400.63 42.0483
7403.41 47.2276
7406.2 42.0743
7408.98 48.2688
7411.76 38.7842
7414.55 20.5984
7417.33 52.0294
7420.11 46.4795
7422.9 47.5372
7425.68 47.9985
7428.46 50.9326
7431.24 47.8237
7434.02 49.6737
7436.81 18.4753
7439.59 45.302
7442.37 46.4726
7445.15 16.9092
7447.93 56.4179
7450.71 49.5387
7453.49 51.8423
7456.27 44.4098
7459.05 44.1351
7461.83 46.0125
7464.61 39.1845
7467.39 42.1577
7470.17 50.4423
7472.95 43.4935
7475.73 42.5491
7478.51 45.1062
7481.29 17.2297
7484.07 14.6873
7486.84 50.5706
7489.62 45.3682
7492.4 42.309
7495.18 42.4934
7497.95 40.2379
7500.73 44.5092
7503.51 14.6206
7506.28 39.9571
7509.06 45.8508
7511.84 38.5346
7514.61 49.2057
7517.39 42.3027
7520.17 7.69113
7522.94 42.5364
7525.72 43.4439
7528.49 42.7767
7531.27 46.3965
7534.04 38.5804
7536.81 38.8293
7539.59 37.8166
7542.36 15.3358
7545.14 43.2498
7547.91 36.9409
7550.68 43.4737
7553.46 36.6246
7556.23 37.1618
7559 40.9757
7561.77 15.0687
7564.55 37.2837
7567.32 44.4043
7570.09 40.2616
7572.86 11.0369
7575.63 14.1026
7578.41 41.1707
7581.18 38.3907
7583.95 37.837
7586.72 33.9887
7589.49 34.7095
7592.26 -1.39117
7595.03 10.3969
7597.8 -16.4297
7600.57 -12.4162
7603.34 4.6961
7606.11 7.73391
7608.87 11.8796
7611.64 18.0841
7614.41 24.5237
7617.18 25.4379
7619.95 24.7466
7622.72 20.7042
7625.48 22.1064
7628.25 19.191
7631.02 -3.40657
7633.79 20.2031
7636.55 13.5555
7639.32 23.2189
7642.08 24.0253
7644.85 2.33765
7647.62 23.8224
7650.38 25.2457
7653.15 7.43323
7655.91 30.1939
7658.68 27.7892
7661.44 11.816
7664.21 11.8913
7666.97 14.0737
7669.74 32.3124
7672.5 36.2353
7675.26 15.1368
7678.03 38.5031
7680.79 36.5764
7683.55 43.6078
7686.32 33.0624
7689.08 12.901
7691.84 41.4037
7694.6 33.7621
7697.37 40.4683
7700.13 40.0786
7702.89 38.6537
7705.65 15.8803
7708.41 41.6485
7711.17 40.0599
7713.93 39.2197
7716.69 41.1027
7719.45 43.8661
7722.21 34.7914
7724.97 39.993
7727.73 43.1122
7730.49 7.77327
7733.25 38.36
7736.01 44.0724
7738.77 37.2414
7741.53 10.396
7744.29 37.7809
7747.04 36.8582
7749.8 0.979973
7752.56 41.4493
7755.32 40.9347
7758.07 43.2823
7760.83 32.9515
7763.59 40.3912
7766.34 15.1417
7769.1 39.9408
7771.85 12.7227
7774.61 36.1075
7777.37 39.3808
7780.12 45.6413
7782.88 39.9495
7785.63 9.61157
7788.39 38.8645
7791.14 41.1509
7793.89 39.8175
7796.65 34.8867
7799.4 8.61868
7802.16 38.8772
7804.91 9.96303
7807.66 39.7246
7810.41 29.3523
7813.17 19.7815
7815.92 43.7937
7818.67 39.5305
7821.42 42.6611
7824.17 39.5556
7826.93 4.52188
7829.68 39.4405
7832.43 35.9955
7835.18 43.5439
7837.93 42.0226
7840.68 40.7728
7843.43 37.0048
7846.18 37.8282
7848.93 39.9233
7851.68 35.741
7854.43 49.3136
7857.18 34.9989
7859.93 4.34733
7862.67 39.2028
7865.42 33.7515
7868.17 44.4093
7870.92 43.062
7873.66 42.0301
7876.41 39.3283
7879.16 38.3285
7881.91 9.20069
7884.65 45.0091
7887.4 7.50624
7890.14 36.3722
7892.89 5.35706
7895.64 40.5034
7898.38 40.5262
7901.13 44.7445
7903.87 8.21635
7906.62 38.8789
7909.36 36.4683
7912.1 39.5521
7914.85 45.499
7917.59 41.4027
7920.34 -2.66739
7923.08 38.3828
7925.82 39.9924
7928.57 39.5638
7931.31 39.8495
7934.05 37.0015
7936.79 43.0978
7939.53 33.4007
7942.28 13.6604
7945.02 35.1841
7947.76 42.3944
7950.5 36.7894
7953.24 43.1165
7955.98 36.4327
7958.72 44.7109
7961.46 42.0058
7964.2 41.1775
7966.94 40.0877
7969.68 42.4273
7972.42 42.149
7975.16 40.3417
7977.89 4.91228
7980.63 40.4818
7983.37 39.1741
7986.11 40.5675
7988.85 34.4047
7991.58 1.79049
7994.32 9.86336
7997.06 40.8979
7999.79 42.8442
8002.53 35.8221
8005.27 29.606
8008 37.4179
8010.74 39.6392
8013.47 39.164
8016.21 30.725
8018.94 37.9232
8021.68 33.445
8024.41 8.58739
8027.15 39.7307
8029.88 35.2265
8032.61 40.9508
8035.35 38.8994
8038.08 18.3429
8040.81 44.8229
8043.54 41.1143
8046.28 35.804
8049.01 42.1313
8051.74 39.8884
8054.47 39.6098
8057.2 42.4997
8059.94 42.7711
8062.67 14.0428
8065.4 18.6303
8068.13 16.1759
8070.86 33.596
8073.59 14.9638
8076.32 38.7054
8079.05 17.1083
8081.78 38.3642
8084.5 15.9113
8087.23 32.6943
8089.96 44.9593
8092.69 41.5658
8095.42 15.1076
8098.15 44.1005
8100.87 35.1128
8103.6 41.6997
8106.33 37.0783
8109.05 41.1793
8111.78 14.0302
8114.51 40.522
8117.23 40.5693
8119.96 33.7589
8122.68 33.5168
8125.41 39.2099
8128.13 15.2075
8130.86 10.2804
8133.58 37.1718
8136.31 40.2653
8139.03 16.7926
8141.75 6.99631
8144.48 43.4244
8147.2 35.7992
8149.92 8.85098
8152.65 35.2951
8155.37 8.64126
8158.09 41.2283
8160.81 15.7651
8163.53 13.5822
8166.26 2.78502
8168.98 11.7096
8171.7 42.0447
8174.42 35.5433
8177.14 7.04401
8179.86 34.4425
8182.58 37.3162
8185.3 37.7487
8188.02 21.476
8190.74 8.87984
8193.46 33.7487
8196.17 39.425
8198.89 32.602
8201.61 13.7791
8204.33 15.9933
8207.05 18.0658
8209.76 39.7257
8212.48 13.8403
8215.2 40.3927
8217.91 30.0474
8220.63 33.4114
8223.34 28.9632
8226.06 27.7658
8228.78 32.3864
8231.49 38.1916
8234.21 30.216
8236.92 38.9546
8239.63 35.9391
8242.35 36.2909
8245.06 28.8818
8247.78 35.4729
8250.49 30.444
8253.2 27.2061
8255.92 37.1617
8258.63 39.8524
8261.34 30.2426
8264.05 40.8154
8266.76 37.2759
8269.48 41.0814
8272.19 32.3891
8274.9 38.482
8277.61 42.8739
8280.32 32.4343
8283.03 36.4574
8285.74 31.9216
8288.45 29.87
8291.16 35.6936
8293.87 28.9238
8296.58 30.0999
8299.28 35.2886
8301.99 30.5177
8304.7 22.6948
8307.41 33.9398
8310.12 23.3381
8312.82 30.7353
8315.53 31.207
8318.24 25.2905
8320.94 30.9205
8323.65 34.9865
8326.36 27.8571
8329.06 28.7034
8331.77 35.9984
8334.47 32.6219
8337.18 32.3455
8339.88 37.568
8342.59 37.9764
8345.29 32.2842
8347.99 29.9765
8350.7 20.8687
8353.4 31.6483
8356.1 34.5141
8358.81 37.2812
8361.51 30.1564
8364.21 30.9733
8366.91 25.6012
8369.61 23.9378
8372.31 31.4614
8375.02 36.2807
8377.72 31.0489
8380.42 33.1043
8383.12 31.316
8385.82 31.2364
8388.52 31.6743
8391.22 33.4359
8393.92 34.6027
8396.61 31.3896
8399.31 39.31
8402.01 32.5085
8404.71 35.2838
8407.41 30.6968
8410.1 37.5579
8412.8 37.8872
8415.5 31.7405
8418.2 34.786
8420.89 30.5064
8423.59 31.0309
8426.28 33.7379
8428.98 29.3332
8431.67 26.7142
8434.37 29.6383
8437.06 33.5514
8439.76 36.1268
8442.45 27.0115
8445.15 29.3073
8447.84 36.6139
8450.53 33.327
8453.23 38.3575
8455.92 30.5918
8458.61 29.7276
8461.3 45.4095
8464 28.0837
8466.69 34.9553
8469.38 32.6804
8472.07 27.4195
8474.76 33.1069
8477.45 35.3286
8480.14 30.3343
8482.83 33.084
8485.52 27.2838
8488.21 34.1892
8490.9 28.9421
8493.59 31.6474
8496.28 27.8196
8498.97 38.7006
8501.65 28.8337
8504.34 32.4539
8507.03 36.1863
8509.72 24.0021
8512.4 34.3469
8515.09 27.1759
8517.78 33.6951
8520.46 34.231
8523.15 32.4872
8525.83 32.1361
8528.52 35.8418
8531.2 33.2082
8533.89 27.4391
8536.57 25.2666
8539.26 26.5968
8541.94 23.481
8544.62 33.2604
8547.31 31.6113
8549.99 34.1351
8552.67 29.7162
8555.35 31.6881
8558.04 33.3019
8560.72 29.4173
8563.4 32.2159
8566.08 36.4702
8568.76 33.932
8571.44 40.8507
8574.12 28.7396
8576.8 34.6622
8579.48 31.8206
8582.16 33.2685
8584.84 31.0916
8587.52 35.4763
8590.2 25.2279
8592.88 31.0199
8595.55 29.5233
8598.23 35.8199
8600.91 30.8023
8603.59 38.6871
8606.26 27.9392
8608.94 31.6446
8611.61 35.7718
8614.29 36.3115
8616.97 33.9045
8619.64 34.6844
8622.32 33.6137
8624.99 32.9089
8627.67 40.2567
8630.34 34.1474
8633.01 27.5714
8635.69 34.3573
8638.36 28.5897
8641.03 62.3611
8643.71 21.7456
8646.38 35.7551
8649.05 33.5489
8651.72 27.4861
8654.39 30.3629
8657.07 24.5793
8659.74 19.6609
8662.41 28.4275
8665.08 27.1055
8667.75 34.0333
8670.42 29.4138
8673.09 36.5244
8675.76 33.0241
8678.42 29.5649
8681.09 27.8253
8683.76 30.109
8686.43 35.4001
8689.1 28.1313
8691.76 31.4968
8694.43 33.8229
8697.1 36.8987
8699.76 40.4712
8702.43 31.9733
8705.1 30.3828
8707.76 25.5586
8710.43 31.0603
8713.09 32.9708
8715.76 31.7102
8718.42 34.0534
8721.08 30.8878
8723.75 32.1113
8726.41 39.0091
8729.07 25.2248
8731.74 34.6764
8734.4 33.2752
8737.06 30.5225
8739.72 30.6941
8742.39 33.4445
8745.05 32.1008
8747.71 35.2825
8750.37 31.9498
8753.03 25.399
8755.69 34.8561
8758.35 32.2794
8761.01 23.2683
8763.67 33.3709
8766.33 28.9566
8768.98 22.1812
8771.64 32.2191
8774.3 37.8202
8776.96 30.0094
8779.62 20.5473
8782.27 21.9035
8784.93 27.479
8787.59 34.0905
8790.24 30.2712
8792.9 29.4231
8795.55 27.846
8798.21 31.3743
8800.86 22.4575
8803.52 26.4781
8806.17 18.285
8808.83 25.3658
8811.48 25.7473
8814.13 31.884
8816.79 32.2024
8819.44 26.9451
8822.09 32.6861
8824.74 31.1923
8827.39 24.4287
8830.05 26.1052
8832.7 21.7191
8835.35 18.2055
8838 30.6136
8840.65 27.5181
8843.3 19.2021
8845.95 20.7633
8848.6 24.4127
8851.25 19.8881
8853.89 25.7443
8856.54 21.1686
8859.19 21.7913
8861.84 15.1234
8864.49 26.4304
8867.13 19.4101
8869.78 16.0207
8872.43 20.2583
8875.07 20.4123
8877.72 25.7328
8880.36 19.2246
8883.01 22.5447
8885.65 17.2192
8888.3 18.774
8890.94 23.4996
8893.59 18.015
8896.23 19.0071
8898.87 27.0896
8901.52 33.6416
8904.16 25.6754
8906.8 21.8687
8909.44 18.4677
8912.08 23.5733
8914.73 22.9134
8917.37 21.2849
8920.01 31.7117
8922.65 28.5813
8925.29 25.8659
8927.93 23.5555
8930.57 29.2202
8933.21 27.8653
8935.84 28.031
8938.48 31.5139
8941.12 26.2723
8943.76 23.8738
8946.4 23.5544
8949.03 27.6439
8951.67 26.3762
8954.31 26.9383
8956.94 29.7494
8959.58 23.8863
8962.21 16.715
8964.85 21.0912
8967.48 26.6839
8970.12 26.836
8972.75 28.3498
8975.39 23.44
8978.02 27.5561
8980.65 24.834
8983.29 23.9663
8985.92 21.7701
8988.55 23.2353
8991.18 32.8837
8993.82 23.656
8996.45 24.6084
8999.08 26.6395
9001.71 18.6203
9004.34 22.8663
9006.97 21.0382
9009.6 22.7072
9012.23 26.0496
9014.86 25.2353
9017.49 32.4344
9020.11 18.9067
9022.74 29.243
9025.37 33.0149
9028 25.4008
9030.62 25.9339
9033.25 28.4965
9035.88 28.1478
9038.5 28.8826
9041.13 20.0302
9043.75 28.6495
9046.38 24.4067
9049 23.9009
9051.63 23.9469
9054.25 21.3172
9056.88 19.9213
9059.5 20.6758
9062.12 27.229
9064.74 23.2471
9067.37 30.2374
