wavelength spec_sum spec_optimal
3531.66 22.5894 15.0158
3534.58 14.611 11.488
3537.51 17.5765 12.6229
3540.43 11.4162 15.2074
3543.35 23.0589 22.9745
3546.27 19.1404 17.4311
3549.19 18.561 16.798
3552.11 16.8339 15.2579
3555.03 18.6329 21.5862
3557.95 12.4373 15.6564
3560.87 6.94301 12.9651
3563.79 15.9767 15.3781
3566.71 18.0609 21.6175
3569.63 14.3049 16.6361
3572.56 4.29598 8.02605
3575.48 6.95471 15.3407
3578.4 12.4938 10.059
3581.32 14.9394 6.6089
3584.24 8.28633 9.75451
3587.16 6.52566 10.1661
3590.08 15.4752 14.4731
3593 21.6261 24.3277
3595.92 9.03492 13.0526
3598.84 15.4831 16.3075
3601.76 19.3919 17.8349
3604.68 14.6827 13.596
3607.6 21.9922 21.868
3610.52 16.2273 13.4594
3613.44 18.8449 18.6817
3616.36 13.8456 10.9866
3619.28 25.4228 26.7765
3622.2 23.2244 26.1541
3625.12 20.972 17.2693
3628.04 18.1102 22.9204
3630.96 24.0932 20.2019
3633.88 17.5769 19.1228
3636.81 24.3663 22.8065
3639.73 29.6412 26.0297
3642.65 25.7473 21.9401
3645.57 18.4929 19.6204
3648.49 30.8602 24.6548
3651.41 25.0589 24.7333
3654.33 32.1665 29.5656
3657.25 29.6601 27.9214
3660.17 22.0816 23.9228
3663.09 16.2524 18.0297
3666.01 28.7405 26.7336
3668.93 26.0825 27.7264
3671.85 31.1048 30.3762
3674.77 18.4716 18.1215
3677.69 21.959 20.8182
3680.61 18.9337 18.5938
3683.53 22.6939 22.9823
3686.44 18.3723 18.581
3689.36 28.7835 23.1008
3692.28 22.22 19.9484
3695.2 26.0473 26.4648
3698.12 29.2668 27.5032
3701.04 22.345 24.4463
3703.96 21.4649 21.2366
3706.88 21.2936 17.29
3709.8 23.6716 20.9448
3712.72 26.4111 26.5896
3715.64 23.9715 19.5248
3718.56 25.7493 21.2909
3721.48 25.2488 25.1234
3724.4 18.0714 23.3813
3727.32 14.1141 17.4305
3730.24 15.277 19.5961
3733.16 15.5746 16.2398
3736.08 19.5635 21.0511
3739 23.3078 28.746
3741.92 18.6042 21.1193
3744.83 17.9035 17.0129
3747.75 16.7072 18.7154
3750.67 21.0182 18.2461
3753.59 15.6429 15.2374
3756.51 16.0406 16.5134
3759.43 20.7575 22.4341
3762.35 16.9917 18.22
3765.27 21.1565 21.8612
3768.19 27.7757 27.758
3771.11 24.8518 26.8508
3774.03 27.4818 27.6301
3776.94 25.6784 30.625
3779.86 27.2219 27.9986
3782.78 26.5773 29.9201
3785.7 16.0194 24.4627
3788.62 23.0167 28.0152
3791.54 25.1783 26.0636
3794.46 22.3339 25.1921
3797.38 26.6329 24.607
3800.29 22.4381 23.835
3803.21 24.1319 26.388
3806.13 15.4003 17.6828
3809.05 19.5475 25.7907
3811.97 13.6298 14.8151
3814.89 26.5632 31.2138
3817.81 13.7879 18.2975
3820.72 18.5759 23.715
3823.64 14.823 17.4993
3826.56 19.9948 21.3317
3829.48 12.3733 13.0526
3832.4 17.6281 17.6626
3835.32 14.3265 13.452
3838.23 17.0967 15.9847
3841.15 15.8866 13.4822
3844.07 13.576 12.8342
3846.99 17.3828 18.0978
3849.91 22.8416 20.6517
3852.83 14.6833 14.5848
3855.74 14.2072 14.2555
3858.66 11.9831 13.9691
3861.58 15.9609 20.5608
3864.5 15.9769 13.4682
3867.42 15.2581 16.5069
3870.33 9.07399 11.8746
3873.25 14.6453 20.6515
3876.17 16.882 22.5161
3879.09 13.3397 15.9698
3882.01 17.7217 18.4657
3884.92 15.2671 19.0024
3887.84 18.2958 18.6806
3890.76 23.6403 23.1163
3893.68 25.5796 24.5562
3896.59 25.2269 24.9086
3899.51 26.2043 26.5452
3902.43 24.4501 24.0682
3905.35 32.1574 31.7843
3908.26 26.6704 31.3513
3911.18 29.8972 28.9798
3914.1 25.8549 30.4993
3917.02 21.1092 26.7997
3919.93 19.7371 31.3144
3922.85 18.7168 26.1389
3925.77 15.39 21.3155
3928.69 19.7397 19.8714
3931.6 14.26 17.9345
3934.52 10.4465 11.2821
3937.44 13.6084 11.9052
3940.35 21.4746 23.2268
3943.27 21.8331 24.1564
3946.19 23.0931 27.2713
3949.1 22.2939 28.2969
3952.02 26.2281 32.7755
3954.94 21.9389 29.287
3957.86 22.707 27.2253
3960.77 21.8949 28.5491
3963.69 14.2964 17.0618
3966.61 12.5953 13.1862
3969.52 19.3998 18.8366
3972.44 21.7411 22.9031
3975.36 28.6779 29.1057
3978.27 25.6458 25.6306
3981.19 29.2307 29.5653
3984.11 29.2553 30.8294
3987.02 32.8488 36.0296
3989.94 32.7712 37.8762
3992.86 37.6381 43.7678
3995.77 32.8587 37.0557
3998.69 36.8542 37.154
4001.6 41.351 39.6086
4004.52 37.5318 39.3507
4007.44 38.9799 43.4622
4010.35 39.0791 42.5101
4013.27 35.1598 39.0249
4016.19 35.7585 39.4469
4019.1 38.0413 42.4477
4022.02 39.3057 44.6408
4024.93 40.2217 41.7594
4027.85 38.6223 43.0107
4030.77 38.6408 41.4595
4033.68 35.7029 43.7397
4036.6 36.8498 45.3595
4039.51 36.9015 42.489
4042.43 39.6837 49.2517
4045.34 36.188 43.7285
4048.26 37.4282 46.4255
4051.18 32.7616 38.7383
4054.09 34.6401 43.8211
4057.01 29.8104 35.5649
4059.92 29.8859 34.0693
4062.84 38.6426 42.4738
4065.75 31.2364 36.4166
4068.67 27.1936 32.2853
4071.58 38.6239 42.557
4074.5 43.1111 47.431
4077.42 39.8898 45.6672
4080.33 36.1276 42.3249
4083.25 43.8384 48.3286
4086.16 38.2597 46.8891
4089.08 37.1113 44.7748
4091.99 40.8 48.1422
4094.91 34.3958 40.135
4097.82 38.8599 45.526
4100.74 37.7024 46.0802
4103.65 32.2412 36.8967
4106.57 38.8243 45.435
4109.48 37.9156 43.1957
4112.4 44.4791 48.9453
4115.31 36.8337 44.1837
4118.23 38.5342 44.4873
4121.14 38.125 41.3211
4124.05 39.9372 46.5624
4126.97 44.7016 49.8373
4129.88 36.7765 46.3303
4132.8 42.2761 47.8134
4135.71 40.601 48.0024
4138.63 38.2176 45.2775
4141.54 36.8168 43.4209
4144.46 40.4436 47.5792
4147.37 37.9574 45.1875
4150.28 32.8018 40.5408
4153.2 35.047 44.6544
4156.11 33.9081 40.8586
4159.03 41.7139 50.3415
4161.94 39.2474 48.9894
4164.86 36.0814 42.1335
4167.77 37.5589 46.5044
4170.68 39.3594 45.633
4173.6 34.1733 39.9917
4176.51 37.3947 44.4982
4179.42 39.962 47.6991
4182.34 35.7598 43.6265
4185.25 37.83 45.5878
4188.17 41.5305 46.9263
4191.08 33.4652 43.125
4193.99 35.0948 42.9227
4196.91 32.252 40.5229
4199.82 33.3203 39.9518
4202.73 42.5469 48.4711
4205.65 35.731 42.6744
4208.56 36.8986 45.1604
4211.47 39.0332 48.9916
4214.39 34.9647 44.9634
4217.3 41.4082 51.8173
4220.21 39.836 48.844
4223.13 35.4294 44.2385
4226.04 37.0895 43.3052
4228.95 36.2827 45.9419
4231.87 37.1443 44.7261
4234.78 40.0139 46.7393
4237.69 41.4464 47.1225
4240.6 40.0268 45.2278
4243.52 42.0796 47.8474
4246.43 34.1022 41.1779
4249.34 39.7686 48.0569
4252.26 34.279 44.3696
4255.17 32.835 41.4853
4258.08 40.101 48.0664
4260.99 38.3294 47.6235
4263.91 41.7548 48.9787
4266.82 36.5444 44.7112
4269.73 36.8713 47.5694
4272.64 37.6637 46.9891
4275.56 39.6383 50.9548
4278.47 35.5965 44.2029
4281.38 35.8364 45.8833
4284.29 32.6652 42.8866
4287.2 34.9557 41.9976
4290.12 39.032 44.4862
4293.03 35.0741 41.3161
4295.94 31.952 39.5365
4298.85 31.6172 39.6574
4301.76 29.8636 36.85
4304.68 28.4085 34.7865
4307.59 26.3401 32.7108
4310.5 34.1971 38.1104
4313.41 37.9799 46.3936
4316.32 36.2995 47.5305
4319.23 36.5677 44.2055
4322.15 36.5468 42.1072
4325.06 42.094 48.9133
4327.97 42.995 51.9652
4330.88 49.0715 60.484
4333.79 41.2917 54.0549
4336.7 36.3692 46.6316
4339.61 36.0221 45.9082
4342.52 41.3699 50.4621
4345.44 46.8715 51.7952
4348.35 44.316 52.8684
4351.26 42.9906 51.3894
4354.17 41.2664 49.8076
4357.08 41.4363 52.2384
4359.99 40.106 50.082
4362.9 44.1366 54.2149
4365.81 38.8934 49.0715
4368.72 43.7184 53.9422
4371.63 38.9968 50.0628
4374.54 44.0439 52.9618
4377.45 44.3585 55.0972
4380.36 34.8702 44.8352
4383.27 39.1923 48.4945
4386.19 37.7943 48.6078
4389.1 42.1683 52.106
4392.01 41.1184 50.044
4394.92 37.0179 46.4311
4397.83 39.0983 47.9222
4400.74 41.1668 48.7095
4403.65 40.5407 49.4785
4406.56 40.357 49.6401
4409.47 45.0513 53.2152
4412.38 42.7925 51.1926
4415.29 46.3199 56.901
4418.2 47.036 57.9241
4421.11 43.8483 55.2309
4424.02 39.4523 49.8427
4426.92 46.5405 57.4887
4429.83 42.8082 54.3874
4432.74 44.2448 55.3273
4435.65 47.0446 60.0628
4438.56 42.7687 54.9445
4441.47 47.084 57.4776
4444.38 46.8879 60.1732
4447.29 48.9247 61.6991
4450.2 44.1207 56.7415
4453.11 45.17 57.946
4456.02 43.2886 58.0668
4458.93 40.8086 53.8447
4461.84 45.7215 56.8374
4464.74 47.993 60.2011
4467.65 47.2077 59.9375
4470.56 45.0008 56.5299
4473.47 47.0811 61.7239
4476.38 45.631 59.3019
4479.29 45.7157 59.9009
4482.2 51.9206 64.9007
4485.11 46.4429 62.2436
4488.01 51.5894 63.5905
4490.92 46.0486 59.3025
4493.83 48.1997 60.5188
4496.74 53.1671 67.7894
4499.65 51.4251 63.2404
4502.56 52.2264 64.521
4505.46 52.188 66.4097
4508.37 49.6584 63.8847
4511.28 51.9282 66.5096
4514.19 52.8002 66.7758
4517.1 54.015 68.2359
4520 49.8607 65.9149
4522.91 49.2202 62.9696
4525.82 47.3386 59.9509
4528.73 49.5798 62.712
4531.63 48.2154 60.5907
4534.54 50.3075 62.9928
4537.45 49.3544 63.2382
4540.36 44.4455 58.6059
4543.26 50.2773 64.2564
4546.17 46.0807 61.1031
4549.08 53.4709 66.183
4551.99 52.6335 66.0909
4554.89 52.1818 67.3375
4557.8 47.6001 63.6598
4560.71 54.0169 68.1576
4563.61 49.1678 65.0909
4566.52 53.1523 69.955
4569.43 51.1573 67.3426
4572.33 50.7479 67.1275
4575.24 49.82 65.8816
4578.15 46.8417 60.8802
4581.05 48.2247 65.5598
4583.96 46.1634 63.3109
4586.87 47.4091 64.0914
4589.77 53.5537 68.7051
4592.68 46.8988 62.7976
4595.59 46.6549 62.9047
4598.49 49.4001 67.0687
4601.4 46.5495 62.606
4604.3 50.0364 66.7409
4607.21 48.3703 65.2675
4610.12 50.7297 66.9453
4613.02 49.3822 66.3188
4615.93 50.59 65.7314
4618.83 50.6808 65.723
4621.74 51.1124 66.9555
4624.65 50.3217 70.1779
4627.55 52.548 70.7604
4630.46 46.471 62.9612
4633.36 53.4035 69.1816
4636.27 46.2042 63.659
4639.17 49.4943 66.4169
4642.08 52.0154 68.572
4644.98 47.7577 65.5816
4647.89 46.7055 64.5111
4650.79 47.0353 64.2006
4653.7 49.5906 66.902
4656.6 47.9228 66.1762
4659.51 47.1819 63.7044
4662.41 42.9292 58.9604
4665.32 44.784 62.8672
4668.22 43.3315 58.8238
4671.13 43.9632 61.5504
4674.03 46.8475 63.5971
4676.94 45.8384 62.3505
4679.84 48.9126 66.4296
4682.75 46.0526 61.2582
4685.65 48.0531 64.4931
4688.55 46.4033 63.0801
4691.46 45.5491 61.9094
4694.36 47.4562 65.2624
4697.27 40.4791 56.5122
4700.17 50.2022 67.9921
4703.07 43.4083 61.2017
4705.98 48.4543 65.9269
4708.88 43.6928 60.997
4711.79 45.7076 62.4247
4714.69 42.1534 59.5072
4717.59 51.5703 71.7414
4720.5 52.0701 70.8304
4723.4 51.0769 69.1363
4726.3 48.2672 66.3063
4729.21 46.1682 63.4683
4732.11 52.3612 69.0484
4735.01 51.5481 70.1669
4737.92 49.2598 67.0685
4740.82 51.2408 68.1091
4743.72 53.8537 70.9462
4746.63 52.5084 69.9935
4749.53 47.531 68.2569
4752.43 46.4617 64.965
4755.33 47.317 64.866
4758.24 49.4414 68.2587
4761.14 50.9581 68.6909
4764.04 47.4109 65.9595
4766.94 49.6267 65.6819
4769.85 44.2869 61.6533
4772.75 52.4745 70.0272
4775.65 50.5599 70.6759
4778.55 53.9588 72.0719
4781.46 48.2917 67.8308
4784.36 47.2026 66.5301
4787.26 49.1675 69.3054
4790.16 50.4966 69.1556
4793.06 51.7465 69.3372
4795.97 51.06 68.7367
4798.87 51.5698 69.0985
4801.77 45.0382 65.5875
4804.67 43.3744 61.6516
4807.57 48.2126 66.1503
4810.47 49.2509 68.5453
4813.37 46.3388 65.3059
4816.28 52.5766 69.8912
4819.18 51.3504 69.8464
4822.08 48.8932 67.6988
4824.98 53.8732 73.1055
4827.88 46.8775 66.359
4830.78 49.6493 66.7015
4833.68 47.6998 67.6675
4836.58 52.2016 70.2279
4839.48 51.3904 68.9004
4842.38 49.5741 68.0032
4845.28 50.9493 69.4988
4848.19 52.1262 71.136
4851.09 45.2532 64.0008
4853.99 43.9338 63.0695
4856.89 40.9866 58.924
4859.79 41.2422 60.004
4862.69 44.2983 60.6535
4865.59 47.3439 65.2524
4868.49 44.0699 62.3217
4871.39 45.0247 62.9052
4874.29 46.5245 62.9985
4877.19 51.2079 70.618
4880.09 49.3149 67.797
4882.99 49.8849 68.6776
4885.89 51.9311 72.6597
4888.78 48.145 66.5388
4891.68 51.2935 72.0707
4894.58 50.7116 71.6788
4897.48 49.9112 72.4606
4900.38 52.1487 74.4156
4903.28 50.7142 70.9688
4906.18 54.5267 75.746
4909.08 55.2905 75.4703
4911.98 51.0124 71.0286
4914.88 50.8394 73.3819
4917.78 46.8443 66.1345
4920.67 46.3847 66.9883
4923.57 48.4558 69.9157
4926.47 52.4292 73.1324
4929.37 48.9775 69.2732
4932.27 52.5828 72.6723
4935.17 48.6528 67.9126
4938.07 52.7483 71.6957
4940.96 47.8853 67.4053
4943.86 53.6015 72.3807
4946.76 50.256 71.2429
4949.66 51.7181 71.634
4952.56 50.8969 70.552
4955.45 47.9013 68.7424
4958.35 52.4406 70.4703
4961.25 50.9603 72.356
4964.15 51.0055 70.8434
4967.04 47.7305 67.2545
4969.94 48.5726 71.583
4972.84 53.6608 74.8692
4975.74 53.6649 72.49
4978.63 48.5857 66.8962
4981.53 48.8943 68.0324
4984.43 49.1861 68.9364
4987.32 51.4356 72.9888
4990.22 50.7085 69.4087
4993.12 49.9019 69.5143
4996.01 48.8044 67.7705
4998.91 52.2213 70.0924
5001.81 51.4449 70.838
5004.7 46.9468 66.0538
5007.6 47.7703 68.7792
5010.5 46.8522 68.2762
5013.39 44.2257 62.637
5016.29 45.9692 64.0033
5019.18 47.5803 67.8448
5022.08 47.1709 67.888
5024.98 44.3769 62.6217
5027.87 51.2408 71.8619
5030.77 45.8077 64.4687
5033.66 48.8373 69.5912
5036.56 47.02 64.4167
5039.46 46.9757 65.3726
5042.35 44.5314 65.9667
5045.25 51.926 70.0311
5048.14 47.7364 67.2866
5051.04 47.9696 69.7292
5053.93 51.4982 74.7788
5056.83 47.7434 68.8482
5059.72 48.5019 70.7688
5062.62 48.7495 70.4151
5065.51 49.3531 67.8997
5068.41 52.5309 71.9099
5071.3 51.1305 70.7889
5074.2 52.2006 71.5617
5077.09 47.4968 69.2114
5079.98 49.5076 69.4995
5082.88 48.9236 71.9139
5085.77 47.9765 66.654
5088.67 51.9306 72.5088
5091.56 53.3503 75.6262
5094.46 52.6332 72.1938
5097.35 43.7152 63.4174
5100.24 48.3658 71.4075
5103.14 51.6881 69.7333
5106.03 46.6912 66.8965
5108.92 44.8291 65.1206
5111.82 51.1157 71.0402
5114.71 50.12 70.2701
5117.6 49.0476 70.719
5120.5 47.0413 68.4882
5123.39 48.6954 70.1157
5126.28 47.1271 67.9849
5129.18 46.1862 68.239
5132.07 48.7392 70.2851
5134.96 45.1039 65.9427
5137.86 45.4445 68.8962
5140.75 48.8819 68.5364
5143.64 48.1407 70.728
5146.53 45.7257 66.413
5149.43 42.6619 65.014
5152.32 46.9501 68.812
5155.21 50.3736 71.5292
5158.1 52.776 74.6243
5160.99 41.8987 62.9874
5163.89 42.2655 61.3714
5166.78 38.5476 57.3087
5169.67 36.8765 56.2619
5172.56 44.3409 62.9369
5175.45 45.147 66.4419
5178.35 44.7179 66.0406
5181.24 40.7506 60.8822
5184.13 46.9231 66.6868
5187.02 46.1262 67.0174
5189.91 44.3699 66.0647
5192.8 49.2329 70.0251
5195.69 46.6738 70.7898
5198.58 53.3029 74.9039
5201.47 50.6747 74.0906
5204.37 50.8344 74.531
5207.26 47.4645 69.5618
5210.15 47.83 72.9092
5213.04 51.3084 75.5326
5215.93 53.8337 78.7535
5218.82 51.4011 77.1148
5221.71 50.0792 76.494
5224.6 46.5365 70.544
5227.49 49.0246 73.1103
5230.38 50.2639 73.365
5233.27 50.8718 73.6768
5236.16 49.0892 73.9444
5239.05 54.4573 79.2932
5241.94 56.5831 80.8396
5244.83 51.3628 75.2243
5247.72 48.865 75.2301
5250.61 51.6778 78.8152
5253.5 50.6146 75.9412
5256.38 55.7074 81.8771
5259.27 53.0922 77.937
5262.16 47.6988 70.7129
5265.05 46.2731 67.6883
5267.94 47.2052 69.5681
5270.83 45.5776 70.6927
5273.72 46.7289 74.0493
5276.61 46.7621 73.6941
5279.5 46.5443 76.3821
5282.38 48.381 74.3448
5285.27 48.7422 75.8882
5288.16 53.5713 82.3125
5291.05 50.8176 79.1765
5293.94 42.2634 80.9879
5296.82 47.7335 75.8364
5299.71 38.6966 76.0535
5302.6 50.5228 79.5811
5305.49 55.0476 84.9732
5308.38 53.4455 84.536
5311.26 50.9535 80.8901
5314.15 50.8706 81.1799
5317.04 47.9412 78.8058
5319.92 46.0705 75.2066
5322.81 49.9773 79.0878
5325.7 46.522 75.5411
5328.59 37.334 73.2535
5331.47 46.0957 74.145
5334.36 47.4741 78.3247
5337.25 40.9951 77.2095
5340.13 47.926 75.524
5343.02 47.2802 74.5821
5345.91 52.044 80.6527
5348.79 48.5982 79.2753
5351.68 52.2725 80.6151
5354.56 54.6075 85.3272
5357.45 43.9507 83.2928
5360.34 38.6097 77.4031
5363.22 49.1257 78.5783
5366.11 49.356 76.7536
5368.99 51.3814 78.059
5371.88 50.1951 79.855
5374.76 49.8102 78.1003
5377.65 51.4812 81.3314
5380.54 43.1782 79.3983
5383.42 52.6051 81.5476
5386.31 49.9493 81.6697
5389.19 50.8296 80.3923
5392.08 45.5034 76.0124
5394.96 44.6078 72.3898
5397.85 39.7904 76.5559
5400.73 34.1268 72.0211
5403.61 43.8795 70.5106
5406.5 46.8418 74.8326
5409.38 46.1781 72.5109
5412.27 49.4158 79.269
5415.15 41.2231 77.766
5418.04 45.2524 72.613
5420.92 45.8516 75.3061
5423.8 45.7346 75.4917
5426.69 47.932 75.2941
5429.57 45.4298 72.953
5432.45 46.4533 75.5261
5435.34 38.6459 77.8755
5438.22 51.5288 81.2567
5441.1 49.3797 78.4476
5443.99 46.3731 74.6694
5446.87 51.026 81.7071
5449.75 50.128 79.729
5452.64 38.8347 78.228
5455.52 49.1351 76.8588
5458.4 50.6948 78.9876
5461.28 44.9454 73.8097
5464.17 49.6098 78.5871
5467.05 51.5892 80.8419
5469.93 45.0628 74.3655
5472.81 47.3432 76.0706
5475.7 48.5961 77.2376
5478.58 41.0362 79.0447
5481.46 51.887 79.6616
5484.34 40.2876 78.1029
5487.22 45.4609 77.0034
5490.1 42.5834 80.414
5492.99 43.4292 80.4836
5495.87 48.127 77.8697
5498.75 48.6873 78.9412
5501.63 48.3355 77.4798
5504.51 48.7013 79.3034
5507.39 48.8281 79.159
5510.27 48.5931 75.2302
5513.15 48.7323 76.9681
5516.03 39.8189 78.0434
5518.92 55.3753 83.7455
5521.8 49.7787 77.5045
5524.68 48.4825 76.0615
5527.56 49.8153 77.1196
5530.44 47.204 76.3216
5533.32 50.9783 78.6033
5536.2 48.9008 77.1049
5539.08 50.9599 80.4761
5541.96 38.5991 77.3719
5544.84 50.1698 80.719
5547.72 49.7925 78.6183
5550.6 52.2396 83.1771
5553.47 40.6071 76.5298
5556.35 47.7874 74.9874
5559.23 49.4006 79.469
5562.11 46.2239 72.7901
5564.99 46.5954 75.5845
5567.87 44.971 71.9067
5570.75 49.9174 79.2802
5573.63 49.502 76.2574
5576.51 49.0514 77.182
5579.38 47.197 73.0382
5582.26 47.6828 74.0091
5585.14 46.4458 72.786
5588.02 43.6665 68.6333
5590.9 47.5834 73.1232
5593.78 46.5919 72.8135
5596.65 36.8746 75.0808
5599.53 45.8904 71.7639
5602.41 47.556 74.8652
5605.29 48.1287 75.6639
5608.16 45.1726 73.899
5611.04 49.1443 76.8848
5613.92 48.5974 75.6388
5616.8 45.091 73.4818
5619.67 48.1091 75.4221
5622.55 43.1948 69.9203
5625.43 51.5309 79.5591
5628.3 46.0153 74.7909
5631.18 48.082 76.1077
5634.06 50.0827 78.406
5636.93 41.2377 77.3819
5639.81 49.4131 77.2406
5642.68 49.044 76.8221
5645.56 48.1399 75.2695
5648.44 51.5628 78.8089
5651.31 45.8459 72.9716
5654.19 45.472 72.3075
5657.06 42.6103 67.7307
5659.94 46.3059 72.0585
5662.81 47.1889 72.8063
5665.69 46.3062 73.8629
5668.56 45.9553 72.0331
5671.44 47.96 74.8754
5674.31 48.1563 74.2679
5677.19 52.3317 78.7687
5680.06 48.6639 76.8405
5682.94 49.8749 75.5895
5685.81 47.3898 75.7433
5688.69 47.9097 74.2128
5691.56 51.8513 75.8009
5694.44 46.757 73.5152
5697.31 47.5433 74.7621
5700.18 47.2673 74.717
5703.06 47.0242 73.1695
5705.93 46.6246 74.1217
5708.81 42.629 68.1013
5711.68 46.5482 72.5208
5714.55 45.1112 70.4756
5717.43 49.8011 76.2441
5720.3 48.3216 73.8501
5723.17 36.6525 73.6902
5726.05 38.0696 73.863
5728.92 47.1403 72.6093
5731.79 51.7668 78.9306
5734.66 48.4513 76.3794
5737.54 50.5948 75.1982
5740.41 47.7598 73.3656
5743.28 49.1169 73.1008
5746.15 39.5956 73.3353
5749.03 38.7368 72.2613
5751.9 46.5737 73.9737
5754.77 47.2759 73.4422
5757.64 46.2818 71.5132
5760.51 42.951 68.9103
5763.39 48.2816 73.9721
5766.26 46.0505 70.1388
5769.13 50.8936 74.9044
5772 48.1945 74.8957
5774.87 47.7532 73.2837
5777.74 43.0674 67.5056
5780.61 46.0922 69.9773
5783.48 44.6897 70.3867
5786.35 43.6669 68.4062
5789.22 48.2755 72.9139
5792.09 48.2718 73.0199
5794.97 41.8251 75.8288
5797.84 49.3061 72.8137
5800.71 47.9491 71.9646
5803.58 46.3477 71.5405
5806.45 40.926 73.6541
5809.32 49.5677 73.8111
5812.18 49.9198 75.0174
5815.05 45.3609 69.5707
5817.92 51.0237 76.3491
5820.79 50.6543 75.7402
5823.66 50.7889 77.6353
5826.53 39.0848 73.7751
5829.4 41.4101 75.1395
5832.27 48.3856 73.447
5835.14 50.5574 76.4105
5838.01 40.5243 74.5891
5840.88 54.3242 78.3804
5843.74 53.3016 78.9513
5846.61 47.9236 72.6716
5849.48 52.1987 77.3285
5852.35 46.9711 70.4721
5855.22 48.7016 75.5057
5858.08 45.5124 71.1381
5860.95 51.0561 74.416
5863.82 51.4137 76.2555
5866.69 50.4768 72.6925
5869.55 46.4096 73.0293
5872.42 45.8779 71.6917
5875.29 52.8405 76.574
5878.16 46.8116 72.7612
5881.02 48.2525 74.5922
5883.89 33.0878 68.3421
5886.76 30.1229 66.26
5889.62 39.5602 60.5487
5892.49 40.6717 62.5749
5895.35 41.2485 58.7057
5898.22 41.1898 62.8048
5901.09 29.2651 63.0175
5903.95 48.5686 72.5249
5906.82 49.6356 76.7897
5909.68 47.3358 70.4182
5912.55 51.2079 75.056
5915.42 47.0766 70.3321
5918.28 40.1025 74.8321
5921.15 47.5106 71.6912
5924.01 45.9423 69.3043
5926.88 49.9998 73.5107
5929.74 54.547 77.8674
5932.61 43.483 66.1948
5935.47 49.3716 72.1247
5938.33 50.4045 72.7158
5941.2 49.157 73.0942
5944.06 49.2454 75.0112
5946.93 46.0748 70.0241
5949.79 45.7391 70.0529
5952.66 46.0745 65.5925
5955.52 36.1508 68.1335
5958.38 47.9722 71.9518
5961.25 48.4006 72.692
5964.11 39.668 71.3638
5966.97 36.4303 71.0166
5969.84 49.3071 72.1504
5972.7 46.6905 70.1017
5975.56 49.0811 72.5837
5978.43 48.9172 71.6576
5981.29 46.2331 69.1604
5984.15 47.3609 69.8999
5987.01 35.7923 68.1853
5989.88 39.6179 69.8689
5992.74 48.0483 70.368
5995.6 44.2551 67.4221
5998.46 46.9595 69.7434
6001.32 34.4792 66.8581
6004.19 47.6548 69.9084
6007.05 47.5438 69.2733
6009.91 38.8346 70.0749
6012.77 49.1094 72.0917
6015.63 45.9166 67.9168
6018.49 36.8447 68.1719
6021.35 38.6982 69.1533
6024.21 46.1933 67.6668
6027.07 46.1116 67.3976
6029.94 46.0085 68.4494
6032.8 48.9888 71.4345
6035.66 48.8991 71.3559
6038.52 38.2313 71.0656
6041.38 45.7706 69.6537
6044.24 46.6315 70.0916
6047.1 49.0608 72.0838
6049.96 38.9931 69.4104
6052.82 47.3235 68.0614
6055.67 47.4731 68.8054
6058.53 37.2488 66.3287
6061.39 38.0406 69.4165
6064.25 49.048 72.1495
6067.11 49.5405 71.3831
6069.97 50.7922 72.4604
6072.83 47.1942 69.4169
6075.69 48.0701 70.5423
6078.55 47.5121 68.0903
6081.4 45.8271 66.1948
6084.26 45.3121 69.2839
6087.12 48.6902 70.6383
6089.98 37.2899 67.7109
6092.84 46.6726 67.9949
6095.69 47.9077 70.7392
6098.55 36.2651 66.2704
6101.41 36.7378 66.0149
6104.27 42.69 63.9662
6107.12 40.0465 69.0942
6109.98 37.9675 69.1387
6112.84 40.5241 69.974
6115.69 46.9298 68.86
6118.55 46.0182 66.5057
6121.41 45.3248 65.9883
6124.26 36.3043 67.9602
6127.12 37.6158 66.4201
6129.98 42.8131 63.4252
6132.83 35.3653 65.1392
6135.69 37.0715 66.8218
6138.54 47.0246 67.3138
6141.4 44.1686 63.933
6144.26 42.917 64.3178
6147.11 46.519 66.2799
6149.97 47.738 70.2123
6152.82 42.1121 61.6591
6155.68 45.6173 65.6097
6158.53 42.6331 60.3313
6161.39 40.9123 61.5577
6164.24 41.1348 60.2947
6167.1 45.7258 66.784
6169.95 37.8672 67.6188
6172.8 45.554 66.8839
6175.66 44.3531 66.4653
6178.51 44.9912 67.6104
6181.37 49.4632 68.9373
6184.22 44.696 67.3675
6187.07 43.9094 62.0327
6189.93 44.0344 63.8588
6192.78 46.2396 66.6165
6195.63 36.9991 64.8694
6198.49 43.8668 64.9653
6201.34 47.4922 66.8851
6204.19 49.1319 68.7595
6207.04 47.6238 68.008
6209.9 36.9833 65.4233
6212.75 45.8039 67.0045
6215.6 47.7702 68.4416
6218.45 45.9451 67.0946
6221.31 48.1555 67.7042
6224.16 37.464 66.8658
6227.01 45.0818 66.3437
6229.86 42.8738 63.0067
6232.71 45.4761 66.4683
6235.56 48.7412 69.6274
6238.41 37.4399 67.912
6241.27 41.9686 62.4463
6244.12 45.7593 68.2381
6246.97 46.6914 65.7416
6249.82 43.8649 62.6374
6252.67 39.0345 67.3796
6255.52 36.4471 66.7858
6258.37 45.2247 65.6621
6261.22 43.6665 63.5541
6264.07 45.1464 67.0022
6266.92 44.7963 67.3428
6269.77 37.6078 68.0057
6272.62 48.6386 72.1604
6275.47 42.0798 63.9989
6278.32 42.5953 60.8855
6281.17 45.2579 63.9332
6284.01 48.7814 68.4396
6286.86 46.8593 65.6535
6289.71 31.6457 64.7363
6292.56 47.5114 62.7154
6295.41 45.9256 64.0698
6298.26 44.3903 60.1976
6301.11 40.0116 55.1441
6303.95 44.2024 60.5067
6306.8 50.925 68.0138
6309.65 46.2662 67.6919
6312.5 46.96 64.4066
6315.34 39.7932 61.8186
6318.19 42.0362 62.6245
6321.04 46.1038 65.6964
6323.89 45.0254 65.1784
6326.73 49.1647 69.8681
6329.58 36.7145 67.7674
6332.43 48.6123 67.4553
6335.27 35.5527 64.6911
6338.12 43.9366 64.123
6340.97 45.8465 66.5964
6343.81 45.1588 64.481
6346.66 39.69 68.9112
6349.5 47.55 68.2033
6352.35 47.3181 68.5283
6355.19 45.3841 64.6254
6358.04 33.8059 63.3132
6360.88 33.1532 64.5548
6363.73 34.0393 65.4483
6366.57 44.007 62.5654
6369.42 46.6598 67.0368
6372.26 43.1623 59.7602
6375.11 47.5157 69.1532
6377.95 40.717 65.1018
6380.8 43.4875 66.1048
6383.64 42.8955 66.6616
6386.49 35.9237 67.0037
6389.33 42.2636 65.3926
6392.17 41.39 63.3943
6395.02 42.8086 64.6277
6397.86 34.4511 62.951
6400.7 34.3343 62.2146
6403.55 39.9969 62.7123
6406.39 43.7881 66.8247
6409.23 34.4728 67.4608
6412.08 41.5081 65.3657
6414.92 35.4358 65.5943
6417.76 44.2274 66.3706
6420.6 33.4074 63.7615
6423.44 44.2709 67.7822
6426.29 42.8752 63.6976
6429.13 40.4762 64.271
6431.97 43.9609 65.6668
6434.81 44.4199 67.682
6437.65 41.0125 63.6853
6440.49 41.3414 65.0164
6443.34 43.2168 67.546
6446.18 44.6388 66.3521
6449.02 42.5039 64.4553
6451.86 40.8439 63.463
6454.7 42.718 64.3848
6457.54 44.6341 66.5319
6460.38 39.952 62.4197
6463.22 46.9403 68.0749
6466.06 40.555 63.751
6468.9 39.4913 59.6141
6471.74 44.6775 66.8525
6474.58 41.862 61.6431
6477.42 42.8547 65.5671
6480.26 35.1733 65.8412
6483.1 34.8474 64.1226
6485.93 45.2228 67.3339
6488.77 34.621 62.7404
6491.61 34.673 62.7183
6494.45 37.681 59.175
6497.29 30.4854 61.1822
6500.13 41.1994 63.5583
6502.97 39.9815 61.6932
6505.8 34.9228 65.5705
6508.64 43.132 62.075
6511.48 41.4394 58.4027
6514.32 42.8867 66.5953
6517.15 40.4906 59.8811
6519.99 42.7139 62.046
6522.83 34.5899 63.7702
6525.66 42.0212 61.6817
6528.5 34.3564 63.7085
6531.34 34.675 64.3214
6534.17 43.6286 68.5345
6537.01 40.9052 62.3949
6539.85 42.0174 65.7337
6542.68 39.7337 61.9669
6545.52 37.9496 61.1642
6548.35 41.8547 62.0874
6551.19 39.7321 59.7174
6554.02 30.3672 57.3032
6556.86 25.4849 52.9707
6559.7 36.0277 51.5382
6562.53 38.943 58.2763
6565.36 27.142 54.3836
6568.2 40.6664 58.5418
6571.03 36.754 56.3222
6573.87 32.7796 63.1225
6576.7 30.341 60.1112
6579.54 39.0605 60.8805
6582.37 37.1531 57.4413
6585.2 41.055 62.3181
6588.04 40.3251 60.3593
6590.87 33.1026 62.7048
6593.7 34.3013 62.829
6596.54 38.4047 59.5553
6599.37 43.7708 62.6426
6602.2 40.9767 62.8521
6605.04 44.395 65.4404
6607.87 32.3334 61.4861
6610.7 33.376 61.8091
6613.53 44.9 65.4499
6616.36 41.9656 62.2601
6619.2 31.2717 61.8356
6622.03 33.6069 61.6398
6624.86 41.4344 64.1288
6627.69 43.1095 63.9929
6630.52 40.1013 60.9629
6633.35 30.5811 58.2981
6636.18 42.5125 63.2817
6639.02 41.6036 61.9321
6641.85 41.7228 61.3944
6644.68 44.1253 64.0403
6647.51 41.9293 64.0718
6650.34 37.4881 58.5977
6653.17 39.7839 59.919
6656 42.6853 62.7452
6658.83 45.9372 64.8919
6661.66 41.8197 62.1671
6664.49 40.6416 60.2063
6667.31 32.6161 59.4567
6670.14 42.5615 62.408
6672.97 40.2349 59.3326
6675.8 31.335 59.0444
6678.63 45.0644 62.2827
6681.46 44.8478 62.3456
6684.29 46.5891 65.445
6687.12 38.4045 57.8518
6689.94 43.8033 60.3898
6692.77 40.3756 58.6967
6695.6 31.2904 59.7692
6698.43 39.0743 58.9812
6701.25 41.5153 60.2197
6704.08 45.4687 63.6942
6706.91 40.5266 60.4301
6709.73 42.297 63.9869
6712.56 29.7622 58.4409
6715.39 40.3776 58.7858
6718.21 41.3545 61.8658
6721.04 39.9797 59.5157
6723.87 31.4087 58.6597
6726.69 33.7791 60.0107
6729.52 43.6115 62.0854
6732.34 43.6896 62.9126
6735.17 31.8302 61.5854
6737.99 40.4091 58.4175
6740.82 43.5198 60.9105
6743.65 41.878 60.7484
6746.47 43.2792 61.6865
6749.29 36.7837 59.0474
6752.12 42.3345 60.5386
6754.94 42.6348 61.6871
6757.77 42.6456 60.253
6760.59 41.587 61.6533
6763.42 43.3575 61.3307
6766.24 38.0512 55.273
6769.06 41.4941 59.9279
6771.89 41.149 59.5586
6774.71 38.055 55.2642
6777.53 42.5802 59.6716
6780.36 42.6004 62.1253
6783.18 41.0206 58.2112
6786 39.4937 56.5912
6788.82 39.2213 56.0983
6791.65 40.0606 57.062
6794.47 41.2738 58.4982
6797.29 42.2419 58.9117
6800.11 42.2282 59.2108
6802.93 35.0352 57.7748
6805.75 39.566 55.4739
6808.58 39.6239 55.4396
6811.4 41.1303 58.287
6814.22 39.6214 56.3679
6817.04 36.851 54.9684
6819.86 42.877 61.8487
6822.68 39.0703 54.7584
6825.5 40.5146 56.114
6828.32 41.8093 54.8394
6831.14 38.5038 56.2547
6833.96 42.0577 57.8697
6836.78 30.3762 54.1326
6839.6 38.3494 55.6039
6842.42 40.2551 56.2971
6845.24 39.3284 55.3743
6848.06 42.0973 57.4589
6850.87 32.5038 54.4273
6853.69 41.5623 57.5527
6856.51 43.4476 58.6525
6859.33 38.0398 53.3269
6862.15 32.8245 50.4682
6864.97 28.8507 44.1339
6867.78 30.844 43.0275
6870.6 22.2037 42.596
6873.42 30.8241 43.8948
6876.24 34.4201 46.1652
6879.05 27.9915 47.7491
6881.87 26.3671 47.2578
6884.69 35.5343 48.3876
6887.5 34.6536 46.5846
6890.32 35.2813 47.9763
6893.14 27.1572 47.9711
6895.95 31.3959 49.083
6898.77 33.4311 46.0116
6901.58 39.1508 51.0453
6904.4 39.9602 52.2523
6907.22 37.7479 49.7915
6910.03 36.4465 49.0429
6912.85 29.8905 51.151
6915.66 36.8562 49.6031
6918.48 36.621 49.6873
6921.29 38.9527 53.5253
6924.1 38.3274 49.8551
6926.92 35.8375 50.9359
6929.73 39.8005 53.8755
6932.55 33.7986 46.536
6935.36 39.1144 51.981
6938.17 37.7487 48.6638
6940.99 39.6918 52.7062
6943.8 34.3498 47.9615
6946.61 38.9301 52.3276
6949.43 40.0492 52.0222
6952.24 35.3009 48.2509
6955.05 26.2775 48.3596
6957.87 29.3525 50.1008
6960.68 31.7728 51.0892
6963.49 38.7724 53.5525
6966.3 41.2784 56.0873
6969.11 42.243 55.2974
6971.92 38.1952 49.1419
6974.74 37.0191 50.6499
6977.55 37.289 52.4922
6980.36 29.8703 51.545
6983.17 34.5149 54.4193
6985.98 36.4841 56.8848
6988.79 31.9394 53.3961
6991.6 40.5143 51.5603
6994.41 39.9837 52.7171
6997.22 37.0662 51.0066
7000.03 39.0044 52.4321
7002.84 34.9764 48.9381
7005.65 32.6341 53.2424
7008.46 38.169 50.877
7011.27 36.4476 47.8077
7014.08 30.9004 50.7728
7016.89 35.7068 49.2821
7019.69 37.9594 51.4413
7022.5 38.9199 51.2957
7025.31 34.3809 47.2044
7028.12 39.3135 52.5515
7030.93 38.4226 48.8881
7033.74 38.3336 48.701
7036.54 39.3915 51.3466
7039.35 39.6347 51.967
7042.16 36.5016 46.8385
7044.96 30.557 47.0761
7047.77 36.9355 49.3202
7050.58 31.6942 49.5082
7053.38 37.7079 50.2008
7056.19 30.4499 47.3452
7059 39.665 50.3838
7061.8 32.1475 49.0176
7064.61 33.1022 52.7402
7067.41 39.7008 50.3662
7070.22 39.7265 50.1174
7073.02 40.9879 50.0674
7075.83 38.661 49.3649
7078.63 38.6351 48.791
7081.44 39.8954 48.2516
7084.24 37.7835 48.36
7087.05 40.0049 50.7178
7089.85 36.9074 46.7839
7092.66 36.4554 48.3842
7095.46 39.9149 51.073
7098.26 38.3603 47.8212
7101.07 38.7969 49.1851
7103.87 30.7155 46.5562
7106.67 31.5737 47.4718
7109.48 36.6201 44.5944
7112.28 42.0376 50.9708
7115.08 37.5481 48.5018
7117.88 33.8279 48.741
7120.69 36.2615 45.3403
7123.49 34.4647 46.2332
7126.29 32.2978 46.9931
7129.09 32.5868 50.323
7131.89 36.0348 47.1393
7134.7 37.3844 46.4407
7137.5 38.8433 46.2079
7140.3 37.9543 48.5119
7143.1 33.1048 47.6978
7145.9 37.8155 47.6567
7148.7 38.5991 48.7164
7151.5 36.067 45.2633
7154.3 30.1351 48.2418
7157.1 37.1138 46.7741
7159.9 37.9881 48.1337
7162.7 38.9493 48.2134
7165.5 29.0752 45.216
7168.3 28.2295 42.4727
7171.1 41.2359 49.9491
7173.9 36.1166 43.7547
7176.69 37.0654 47.1308
7179.49 33.1597 46.9195
7182.29 34.3338 43.5639
7185.09 33.6962 45.0263
7187.89 27.1665 42.3775
7190.68 38.0808 44.6618
7193.48 38.4279 48.7663
7196.28 37.4167 45.4419
7199.08 35.9213 44.9167
7201.87 35.6717 43.4718
7204.67 29.3504 43.8473
7207.47 40.3238 46.149
7210.26 35.2895 43.7628
7213.06 32.8317 46.9174
7215.86 28.4264 41.6016
7218.65 36.702 44.863
7221.45 32.5426 42.3438
7224.24 39.6461 44.7708
7227.04 26.5116 44.3889
7229.83 36.402 42.0846
7232.63 36.2233 41.4256
7235.42 36.518 43.8428
7238.22 37.3747 42.0981
7241.01 34.1307 40.9279
7243.81 35.5802 40.8736
7246.6 34.1206 38.7318
7249.39 34.1127 43.6223
7252.19 38.7572 43.932
7254.98 40.1467 47.0953
7257.77 35.9021 41.1756
7260.57 36.8323 43.9746
7263.36 35.2155 41.9592
7266.15 36.7838 44.0162
7268.94 33.7289 40.8337
7271.74 35.2695 39.4256
7274.53 32.3932 40.2938
7277.32 39.5818 44.1354
7280.11 32.4073 39.4616
7282.9 35.0545 43.4369
7285.7 37.7023 42.939
7288.49 37.1443 43.4869
7291.28 25.0924 40.2997
7294.07 38.0472 43.0381
7296.86 26.5668 42.105
7299.65 36.052 41.9573
7302.44 33.9268 40.2819
7305.23 28.8245 43.8402
7308.02 32.8303 39.6528
7310.81 35.2775 41.3717
7313.6 34.9512 39.8669
7316.39 37.9664 42.2099
7319.18 26.3771 44.9697
7321.97 34.0797 38.3187
7324.75 36.8841 42.2199
7327.54 36.4813 44.3394
7330.33 36.7034 43.578
7333.12 29.3152 44.3539
7335.91 24.9531 37.114
7338.7 38.395 44.9696
7341.48 32.4246 41.2725
7344.27 33.77 40.7005
7347.06 30.3244 38.6577
7349.84 35.4339 42.7364
7352.63 34.7026 40.5667
7355.42 27.002 40.3598
7358.2 33.2876 40.0749
7360.99 35.4992 41.0317
7363.78 31.2911 36.3032
7366.56 34.6945 39.477
7369.35 37.0375 40.5033
7372.13 33.5923 40.7591
7374.92 35.9901 41.3367
7377.7 35.3181 42.9352
7380.49 25.1021 40.3599
7383.27 30.7535 38.0278
7386.06 30.7677 38.2528
7388.84 35.6368 39.0334
7391.63 34.0213 39.449
7394.41 30.6687 37.9721
7397.19 22.2533 37.6461
7399.98 21.3025 40.5472
7402.76 34.381 41.1195
7405.54 35.0313 41.1238
7408.33 31.8305 37.3567
7411.11 24.0466 35.6868
7413.89 36.0099 39.2041
7416.67 34.5757 39.9348
7419.46 32.7916 38.3672
7422.24 26.9456 39.0509
7425.02 33.3505 43.6564
7427.8 25.8297 40.0064
7430.58 33.9748 40.1556
7433.36 36.7621 41.0894
7436.14 35.7379 40.2179
7438.92 26.4319 37.3556
7441.71 34.5216 43.2364
7444.49 26.2316 38.5533
7447.27 37.3025 42.9253
7450.05 35.2514 39.3934
7452.83 36.9718 40.7164
7455.61 32.5117 38.4171
7458.38 36.353 43.0246
7461.16 27.2311 39.8714
7463.94 25.4002 39.853
7466.72 34.3473 38.035
7469.5 32.8793 36.2573
7472.28 33.3639 39.494
7475.06 24.449 38.4949
7477.83 34.6269 37.1544
7480.61 35.4191 37.2578
7483.39 34.3238 39.0921
7486.17 35.1415 38.1779
7488.94 32.6384 37.5737
7491.72 33.6673 38.2425
7494.5 27.6998 37.1304
7497.27 35.7172 38.508
7500.05 32.6683 34.8301
7502.83 30.939 36.612
7505.6 36.1516 38.4816
7508.38 32.6403 36.1256
7511.15 26.2669 37.5989
7513.93 27.6089 36.2465
7516.7 38.0926 40.2356
7519.48 30.4426 35.2652
7522.25 22.3804 35.2099
7525.03 30.1108 36.6614
7527.8 21.5597 34.5294
7530.58 33.692 38.5429
7533.35 37.1799 38.958
7536.13 32.7565 37.7306
7538.9 31.9063 35.987
7541.67 32.181 34.8093
7544.45 32.0767 35.371
7547.22 32.8674 34.4995
7549.99 31.3072 37.1583
7552.76 30.4336 36.0292
7555.54 30.7147 32.336
7558.31 36.6139 37.7147
7561.08 26.0462 34.736
7563.85 29.3112 28.9749
7566.62 34.6809 33.7235
7569.39 23.1419 33.4575
7572.17 33.3678 34.6175
7574.94 32.7565 36.7367
7577.71 31.4667 33.5656
7580.48 29.9093 33.4672
7583.25 31.4778 32.0166
7586.02 24.8047 31.9555
7588.79 18.3452 26.7659
7591.56 16.0405 19.6465
7594.33 8.48851 16.6546
7597.1 12.0134 14.0443
7599.86 0.293731 8.06275
7602.63 7.8969 8.37109
7605.4 8.23812 8.61843
7608.17 8.93387 10.9911
7610.94 16.0571 14.6046
7613.71 21.5512 19.6463
7616.47 19.854 18.9666
7619.24 16.5138 17.9063
7622.01 9.6313 19.1872
7624.78 13.4149 15.9024
7627.54 12.3998 17.6274
7630.31 16.2195 15.4559
7633.08 17.466 18.3588
7635.84 17.4622 17.3326
7638.61 18.3588 17.9263
7641.38 16.0648 19.2676
7644.14 19.7143 23.0712
7646.91 19.0995 23.8423
7649.67 26.2734 23.2323
7652.44 22.5681 23.0163
7655.2 17.8752 23.8874
7657.97 26.2861 24.9806
7660.73 21.9884 22.4165
7663.5 26.6175 25.7753
7666.26 29.0398 26.5183
7669.02 28.4279 29.0254
7671.79 31.1103 29.6595
7674.55 30.5269 28.415
7677.31 32.0959 30.7638
7680.08 31.2763 31.0438
7682.84 31.015 30.6596
7685.6 30.9553 29.8623
7688.36 32.4307 34.7569
7691.13 31.1297 31.1516
7693.89 30.3801 31.5312
7696.65 23.4391 28.0858
7699.41 27.3751 30.1232
7702.17 26.2048 28.2952
7704.93 34.591 32.3896
7707.69 30.6779 27.2251
7710.45 31.2041 26.5515
7713.22 32.1095 27.8381
7715.98 9.46911 34.1546
7718.74 35.1769 31.9041
7721.5 31.4874 30.4968
7724.25 33.0246 33.6817
7727.01 30.3505 31.6156
7729.77 28.957 34.132
7732.53 31.7041 33.3417
7735.29 32.4231 29.221
7738.05 30.8587 30.8929
7740.81 30.7248 29.0189
7743.57 20.384 26.7152
7746.32 31.0404 21.6542
7749.08 8.19555 28.7686
7751.84 33.8713 30.1075
7754.6 10.232 29.2679
7757.35 14.693 26.9161
7760.11 31.3669 31.0857
7762.87 30.0215 29.9372
7765.62 27.1579 31.5375
7768.38 20.2829 29.7408
7771.13 30.7556 34.1362
7773.89 34.688 31.132
7776.65 32.4384 29.7629
7779.4 32.0207 27.9033
7782.16 31.0255 30.705
7784.91 30.79 25.8227
7787.67 32.331 29.5844
7790.42 32.4158 30.4091
7793.17 16.0794 29.8198
7795.93 19.0115 27.2448
7798.68 28.8419 29.789
7801.44 34.2128 32.8544
7804.19 32.5815 28.0744
7806.94 28.8618 22.9561
7809.7 24.0871 29.8339
7812.45 29.9838 29.2901
7815.2 33.1402 26.6276
7817.95 19.477 28.8778
7820.7 35.8396 31.2842
7823.46 12.4197 28.4775
7826.21 32.0424 31.13
7828.96 30.1018 28.0236
7831.71 24.5413 29.4537
7834.46 32.1476 29.6485
7837.21 24.8784 26.5793
7839.96 37.2429 32.9925
7842.71 21.6715 25.7527
7845.46 30.987 28.8944
7848.21 31.8672 23.6871
7850.96 29.5224 28.2806
7853.71 31.9063 28.23
7856.46 28.7615 27.0282
7859.21 28.4616 26.7833
7861.96 29.0546 25.0126
7864.71 33.896 24.8919
7867.45 30.016 21.1611
7870.2 19.762 27.1812
7872.95 30.5195 32.1085
7875.7 26.9903 24.7807
7878.45 21.7773 28.0017
7881.19 36.4675 28.5691
7883.94 30.5027 26.2127
7886.69 32.4509 28.8376
7889.43 31.4705 24.3126
7892.18 31.8234 27.7731
7894.93 32.8103 30.7632
7897.67 30.9282 26.7317
7900.42 23.2574 24.0372
7903.16 32.9854 27.7379
7905.91 35.3846 25.8203
7908.65 16.9176 22.9657
7911.4 29.7847 21.5569
7914.14 29.0631 23.4692
7916.89 27.4513 21.3701
7919.63 30.3353 25.7849
7922.37 14.948 27.4797
7925.12 28.9963 29.7308
7927.86 28.4708 23.3546
7930.6 18.0201 21.8606
7933.35 23.1017 26.1981
7936.09 33.1217 25.1484
7938.83 29.8447 22.8257
7941.57 28.7341 21.2
7944.32 22.2998 24.6971
7947.06 22.4245 23.8492
7949.8 32.2927 23.2657
7952.54 23.1659 28.4543
7955.28 21.8177 24.0436
7958.02 18.9762 22.8229
7960.76 33.8012 28.0876
7963.5 29.7309 25.466
7966.24 29.8688 22.9397
7968.98 31.4858 26.4685
7971.72 30.1189 21.1622
7974.46 36.5341 25.6376
7977.2 31.9061 25.8521
7979.94 34.3699 24.3572
7982.68 31.6142 25.0892
7985.42 30.0565 25.7648
7988.16 20.1728 29.4808
7990.89 33.5881 34.6413
7993.63 36.7419 29.529
7996.37 25.3299 22.0259
7999.11 28.6577 28.1256
8001.84 36.4584 29.7134
8004.58 30.9576 22.93
8007.32 33.0276 24.8049
8010.05 21.9461 27.2965
8012.79 31.1277 23.64
8015.53 29.6859 23.8538
8018.26 31.3077 26.7554
8021 32.5441 19.9183
8023.73 35.5493 26.3183
8026.47 30.8555 24.7447
8029.2 26.6003 24.4508
8031.94 35.0683 27.8684
8034.67 35.0445 25.9344
8037.41 30.3191 24.1948
8040.14 23.786 25.418
8042.87 26.2332 23.0156
8045.61 34.7688 26.1097
8048.34 34.979 26.7928
8051.07 27.4616 20.8403
8053.81 25.898 22.9955
8056.54 32.9018 26.7592
8059.27 32.5304 27.8973
8062 32.5409 20.772
8064.74 36.8953 24.8583
8067.47 22.6585 22.6682
8070.2 31.0293 23.6177
8072.93 21.8374 21.3212
8075.66 37.1896 25.4755
8078.39 32.0957 21.53
8081.12 30.4111 23.7041
8083.85 24.4491 23.8215
8086.58 34.5422 24.0969
8089.31 27.5222 18.3083
8092.04 34.0644 25.0353
8094.77 26.4074 19.0254
8097.5 33.5427 25.0163
8100.23 27.6162 27.6408
8102.96 34.6409 20.2646
8105.69 30.4768 20.9755
8108.41 31.9586 23.4528
8111.14 28.3192 22.4551
8113.87 28.245 26.9768
8116.6 29.096 24.0543
8119.32 30.8046 23.5901
8122.05 33.1898 24.7628
8124.78 24.1827 19.561
8127.5 29.0776 27.5341
8130.23 28.5717 23.4858
8132.96 24.8117 24.3684
8135.68 32.8415 22.9098
8138.41 22.3273 22.5063
8141.13 29.1966 21.7608
8143.86 32.9268 26.0698
8146.58 25.9071 20.8764
8149.31 18.0077 17.0455
8152.03 30.0669 17.6377
8154.75 31.1336 21.2911
8157.48 29.329 22.8468
8160.2 30.886 24.5162
8162.93 28.3689 18.8639
8165.65 30.4732 21.5144
8168.37 30.5231 19.0535
8171.09 32.9239 21.4117
8173.82 28.8619 17.0698
8176.54 30.468 21.6296
8179.26 21.8717 20.3304
8181.98 29.1972 21.7454
8184.7 31.8639 23.8129
8187.42 28.3574 21.6299
8190.15 22.4362 20.6404
8192.87 27.5157 17.8953
8195.59 29.2634 19.8689
8198.31 28.9508 20.3397
8201.03 31.8981 18.9835
8203.75 26.9137 16.8097
8206.47 26.0476 21.9124
8209.19 32.8795 21.9481
8211.9 29.2617 18.5988
8214.62 28.7604 17.9157
8217.34 29.5447 20.1641
8220.06 23.8773 16.6552
8222.78 25.1654 19.6994
8225.5 27.439 18.1734
8228.21 30.6898 19.4891
8230.93 28.5019 20.4717
8233.65 26.6294 18.3255
8236.36 30.0559 20.603
8239.08 25.4761 17.7488
8241.8 27.4592 21.5279
8244.51 27.7653 20.1339
8247.23 27.9217 18.7161
8249.94 28.8519 21.8828
8252.66 29.2729 19.4396
8255.37 29.7708 24.5197
8258.09 27.4405 21.2892
8260.8 25.4902 16.5724
8263.52 27.5281 17.7818
8266.23 30.2013 19.5064
8268.95 28.4523 19.4365
8271.66 29.2914 18.8781
8274.37 25.789 17.6854
8277.09 27.8458 16.6465
8279.8 29.1259 15.9991
8282.51 27.1339 15.326
8285.22 29.5874 18.6896
8287.94 26.0268 17.9114
8290.65 28.4151 18.9982
8293.36 27.4525 13.025
8296.07 27.4757 15.5816
8298.78 25.0488 18.7745
8301.49 26.5568 17.5406
8304.2 28.4466 19.8703
8306.91 25.8705 16.5971
8309.62 21.2532 15.037
8312.33 27.6558 14.5404
8315.04 26.9551 19.975
8317.75 31.0207 17.5449
8320.46 26.1161 17.8497
8323.17 28.3605 15.2481
8325.88 28.2917 17.1748
8328.59 28.4667 20.2951
8331.3 29.7667 16.935
8334 25.2305 18.2872
8336.71 21.2415 15.486
8339.42 29.7714 12.0686
8342.13 29.2206 18.8327
8344.83 24.6087 14.5454
8347.54 16.3477 7.14309
8350.25 21.9207 13.0513
8352.95 24.9963 18.1557
8355.66 28.0017 22.0649
8358.36 27.7723 16.7404
8361.07 24.051 18.0022
8363.78 28.7396 14.5458
8366.48 25.6162 12.2404
8369.18 26.7885 16.3055
8371.89 27.9927 16.958
8374.59 23.7668 13.3889
8377.3 34.1329 19.296
8380 28.247 17.7353
8382.7 26.0056 17.3658
8385.41 25.3445 12.4432
8388.11 29.0527 16.6449
8390.81 22.6549 12.4861
8393.52 29.9335 15.345
8396.22 33.6544 12.802
8398.92 34.2976 15.3528
8401.62 27.6675 19.636
8404.32 26.765 13.6381
8407.02 27.3179 17.3265
8409.72 31.2219 17.1962
8412.42 28.2292 17.6005
8415.12 28.5805 13.7376
8417.83 26.5303 18.6058
8420.52 26.6632 15.5631
8423.22 23.7381 12.24
8425.92 27.8347 11.2285
8428.62 24.8953 8.77303
8431.32 26.3676 5.83835
8434.02 22.9288 11.7565
8436.72 26.7191 15.6632
8439.42 19.5323 14.6974
8442.11 26.634 15.4699
8444.81 27.4537 17.8389
8447.51 25.7783 8.90478
8450.21 25.509 18.3055
8452.9 29.5488 14.5294
8455.6 23.2853 12.8602
8458.3 27.4573 14.579
8460.99 26.3323 13.4465
8463.69 32.0431 10.7511
8466.38 27.9483 10.6524
8469.08 18.6454 15.2666
8471.77 31.4618 15.78
8474.47 29.3152 13.3738
8477.16 24.2671 11.7848
8479.86 27.6469 15.5126
8482.55 32.0115 16.7158
8485.24 30.6065 14.6573
8487.94 32.1302 13.626
8490.63 28.3312 17.4478
8493.32 25.3549 10.0524
8496.02 28.4957 12.9142
8498.71 20.821 10.7765
8501.4 25.1501 6.05217
8504.09 28.3952 13.8114
8506.78 27.8771 13.9738
8509.47 24.8596 16.2132
8512.17 28.9309 12.4987
8514.86 24.3497 11.2057
8517.55 26.5012 14.0631
8520.24 29.7249 12.709
8522.93 27.5579 13.9875
8525.62 27.3699 12.8343
8528.31 28.2441 11.9819
8531 25.4083 12.9002
8533.68 25.3251 14.4541
8536.37 27.2279 14.2418
8539.06 22.4828 12.7544
8541.75 16.8437 10.858
8544.44 20.3525 9.69691
8547.12 23.7403 10.7639
8549.81 23.7342 9.04572
8552.5 25.265 10.2899
8555.19 27.9907 12.6622
8557.87 24.2775 10.1383
8560.56 28.7449 11.5162
8563.24 26.5739 13.8974
8565.93 27.371 14.9898
8568.62 27.4958 12.1595
8571.3 25.5365 11.8168
8573.99 25.9391 13.2635
8576.67 31.6923 19.761
8579.36 24.4113 16.0303
8582.04 27.5361 13.7378
8584.72 26.0701 11.5517
8587.41 31.3174 10.5541
8590.09 22.2657 11.8518
8592.77 23.4741 12.0269
8595.46 22.1001 10.5041
8598.14 27.5471 16.1436
8600.82 28.1014 16.7228
8603.5 24.1766 13.7699
8606.19 30.8082 10.8916
8608.87 25.7373 10.3781
8611.55 26.1619 8.37235
8614.23 22.5553 9.33751
8616.91 27.457 14.2322
8619.59 30.0723 23.3141
8622.27 28.302 10.4734
8624.95 28.3549 11.9926
8627.63 29.0862 12.1941
8630.31 27.3483 4.14645
8632.99 23.7844 5.964
8635.67 29.8994 9.05222
8638.35 24.9238 7.79341
8641.02 28.7331 10.4247
8643.7 28.5296 11.0135
8646.38 24.2849 14.5011
8649.06 30.3363 10.5886
8651.73 28.1832 9.21691
8654.41 25.7136 9.99379
8657.09 26.2978 8.54766
8659.76 18.1501 5.2991
8662.44 17.7163 8.46748
8665.12 26.9867 5.9371
8667.79 24.6663 13.0049
8670.47 22.0286 4.46369
8673.14 26.8834 9.32622
8675.82 25.2808 11.727
8678.49 24.7597 8.77209
8681.17 29.4451 10.393
8683.84 28.7821 6.70012
8686.51 27.9416 9.95872
8689.19 27.0495 8.16879
8691.86 28.216 14.1727
8694.53 28.79 8.77325
8697.21 27.8068 9.72797
8699.88 30.4016 6.41594
8702.55 23.6098 6.99347
8705.22 31.7094 9.06236
8707.89 26.552 11.5967
8710.56 27.8809 13.4566
8713.23 23.0976 10.6523
8715.91 27.3987 6.79805
8718.58 24.6231 11.2741
8721.25 30.2865 12.7392
8723.92 26.5184 7.32039
8726.59 24.8743 9.08494
8729.25 28.5535 10.2874
8731.92 28.7105 9.43398
8734.59 26.058 11.5076
8737.26 26.4166 10.1341
8739.93 28.2647 11.1514
8742.6 28.0806 7.58972
8745.26 24.2877 8.98752
8747.93 29.0858 9.74528
8750.6 26.5944 9.78795
8753.27 23.5694 4.14307
8755.93 25.5957 8.20366
8758.6 24.1299 -1.9113
8761.26 27.2658 2.74826
8763.93 31.3289 8.2109
8766.6 27.4234 8.78005
8769.26 27.9995 7.24767
8771.93 25.3941 6.52511
8774.59 23.1301 2.71934
8777.25 22.8348 4.03627
8779.92 20.8659 -8.6477
8782.58 25.516 -9.18093
8785.25 21.1078 1.77754
8787.91 24.6712 7.15055
8790.57 24.5934 4.36874
8793.23 24.4621 3.65318
8795.9 24.6114 6.98125
8798.56 25.4126 7.17724
8801.22 27.0433 7.00755
8803.88 22.3165 3.4057
8806.54 25.1902 4.2391
8809.2 23.0989 7.51723
8811.87 22.7501 5.32359
8814.53 24.9409 2.47391
8817.19 28.4769 5.11949
8819.85 26.9268 3.77267
8822.5 32.2358 4.81783
8825.16 29.7212 -12.7106
8827.82 28.0885 -12.1597
8830.48 14.3803 -26.321
8833.14 25.7939 -10.6024
8835.8 28.1294 -6.98791
8838.46 19.8925 1.65771
8841.11 22.1612 2.2106
8843.77 23.916 4.1272
8846.43 29.1396 2.84341
8849.08 31.3348 -1.18022
8851.74 30.8276 -0.612224
8854.4 24.3104 -0.949988
8857.05 25.5565 6.3783
8859.71 25.5482 4.16587
8862.36 25.9248 -0.521946
8865.02 26.8482 1.27243
8867.67 28.0536 -5.92261
8870.33 25.1632 -6.28991
8872.98 28.6498 -4.34329
8875.64 20.7323 -2.70126
8878.29 26.8849 2.38663
8880.94 24.2643 -5.27955
8883.6 37.5118 -0.692743
8886.25 30.5034 -9.24427
8888.9 28.4351 -18.7665
8891.55 22.6473 -1.19613
8894.21 30.3738 12.8317
8896.86 28.082 1.29487
8899.51 31.7366 4.44894
8902.16 30.8034 2.37045
8904.81 34.1219 -6.687
8907.46 27.808 -6.02066
8910.11 21.6468 6.94071
8912.76 24.626 1.17941
8915.41 21.0376 -0.543199
8918.06 26.41 -6.28876
8920.71 27.841 -7.93089
8923.36 36.0454 -15.4244
8926.01 23.8874 3.06545
8928.65 17.9015 9.97352
8931.3 27.5362 6.75487
8933.95 26.1167 2.29127
8936.6 25.3748 1.42068
8939.24 27.87 -0.625125
8941.89 27.6158 -4.07794
8944.54 22.666 -0.574995
8947.18 23.5332 -1.19058
8949.83 23.5186 -3.46777
8952.47 23.6288 -3.82224
8955.12 22.2675 -0.766246
8957.76 25.3031 -2.50639
8960.41 28.6488 -2.99344
8963.05 16.6605 1.49933
8965.7 19.2873 1.51129
8968.34 15.3916 0.143683
8970.99 24.6397 3.53431
8973.63 20.9628 -1.84907
8976.27 21.7416 -0.547053
8978.91 23.8626 -0.562126
8981.56 27.3736 -3.27497
8984.2 24.8235 -3.65996
8986.84 22.6123 -1.38999
8989.48 22.5424 -1.82154
8992.12 24.9974 -0.258499
8994.76 22.1147 -9.73668
8997.4 24.2814 -3.13064
9000.04 19.5389 -1.88592
9002.68 24.365 -4.23609
9005.32 26.0626 -6.16336
9007.96 25.2946 -1.90109
9010.6 21.2575 -5.25517
9013.24 23.336 -5.54882
9015.88 23.1672 -5.10057
9018.52 25.235 -1.93074
9021.16 25.451 -6.75023
9023.79 22.2272 -8.59017
9026.43 27.7791 -7.53707
9029.07 28.9328 -8.62001
9031.71 26.8351 -3.53455
9034.34 25.1307 -3.73266
9036.98 29.1834 -4.13857
9039.61 24.8897 -6.32303
9042.25 24.0645 -3.53798
9044.88 27.411 -8.46402
9047.52 26.82 -10.5055
9050.15 23.2728 -7.64781
9052.79 21.9057 -10.3508
9055.42 20.1065 -11.0075
9058.06 20.9714 -11.7392
9060.69 18.9704 -6.74856
9063.32 25.57 -10.4808
9065.96 26.6607 -8.07732
9068.59 22.9963 -4.63767
