wavelength spec_sum
3531.69 16.4922
3534.61 13.026
3537.53 19.0742
3540.45 10.9592
3543.37 22.5597
3546.29 14.9914
3549.21 17.4968
3552.13 13.8692
3555.05 18.6502
3557.98 15.6594
3560.9 10.0396
3563.82 10.3813
3566.74 24.4721
3569.66 14.8527
3572.58 9.54554
3575.5 11.0923
3578.42 10.6959
3581.34 16.5587
3584.26 10.6154
3587.18 8.51546
3590.1 18.8055
3593.02 20.1258
3595.94 10.0902
3598.86 14.0802
3601.78 16.3567
3604.71 11.9343
3607.63 22.712
3610.55 14.6848
3613.47 15.5338
3616.39 14.3103
3619.31 24.1921
3622.23 24.4507
3625.15 18.7044
3628.07 19.0615
3630.99 23.6995
3633.91 16.8011
3636.83 20.0857
3639.75 25.5367
3642.67 25.1484
3645.59 14.6433
3648.51 27.7366
3651.43 24.6166
3654.35 29.6883
3657.27 26.4789
3660.19 23.6731
3663.11 18.9927
3666.03 26.6889
3668.95 26.032
3671.87 28.2325
3674.79 20.4085
3677.71 21.3042
3680.63 17.9571
3683.55 22.0887
3686.47 19.4192
3689.39 26.7527
3692.31 25.188
3695.23 28.9013
3698.15 29.466
3701.07 25.0494
3703.99 26.1751
3706.91 23.017
3709.82 25.9521
3712.74 26.7031
3715.66 22.5272
3718.58 25.4371
3721.5 26.5164
3724.42 18.7326
3727.34 16.5214
3730.26 20.0926
3733.18 16.0334
3736.1 21.3124
3739.02 22.1665
3741.94 18.959
3744.86 19.7065
3747.78 18.1203
3750.7 21.2659
3753.61 18.6409
3756.53 16.5346
3759.45 23.6062
3762.37 16.8514
3765.29 23.7425
3768.21 25.9078
3771.13 26.3347
3774.05 28.1681
3776.97 27.4738
3779.89 29.0765
3782.8 26.5559
3785.72 17.5683
3788.64 26.0092
3791.56 24.0217
3794.48 21.5267
3797.4 24.0825
3800.32 21.1868
3803.23 24.0973
3806.15 14.8376
3809.07 20.9312
3811.99 15.0725
3814.91 27.3931
3817.83 14.3887
3820.75 17.9567
3823.66 15.4415
3826.58 19.5627
3829.5 15.0043
3832.42 16.6399
3835.34 13.1972
3838.26 13.9089
3841.17 12.6769
3844.09 10.5372
3847.01 13.0084
3849.93 18.4138
3852.85 12.2891
3855.76 11.8202
3858.68 10.096
3861.6 14.4546
3864.52 13.3093
3867.44 14.0325
3870.35 6.79582
3873.27 13.3276
3876.19 14.3195
3879.11 11.6552
3882.03 13.2295
3884.94 14.33
3887.86 15.1478
3890.78 21.3513
3893.7 19.9436
3896.61 21.6476
3899.53 22.5933
3902.45 20.47
3905.37 25.957
3908.28 22.4866
3911.2 23.9892
3914.12 22.6862
3917.04 17.6606
3919.95 18.2005
3922.87 16.7522
3925.79 12.7658
3928.7 14.781
3931.62 12.5494
3934.54 10.0939
3937.46 11.6932
3940.37 17.4578
3943.29 16.457
3946.21 18.7963
3949.12 20.3938
3952.04 21.6035
3954.96 19.5209
3957.87 20.2005
3960.79 18.5349
3963.71 11.7386
3966.62 11.5036
3969.54 17.1019
3972.46 19.8448
3975.37 23.6575
3978.29 21.5365
3981.21 24.9305
3984.12 24.3028
3987.04 29.4128
3989.96 29.4291
3992.87 33.7987
3995.79 28.123
3998.71 32.8594
4001.62 34.2381
4004.54 30.9395
4007.46 35.4368
4010.37 36.4786
4013.29 32.4275
4016.2 30.1278
4019.12 35.4232
4022.04 35.5714
4024.95 36.1577
4027.87 35.2933
4030.78 33.6365
4033.7 33.4376
4036.61 34.7466
4039.53 34.0855
4042.45 38.3833
4045.36 34.6345
4048.28 37.4416
4051.19 31.0739
4054.11 34.2663
4057.02 28.8757
4059.94 27.5438
4062.86 35.4442
4065.77 29.8506
4068.69 24.6838
4071.6 33.7766
4074.52 37.8554
4077.43 36.2798
4080.35 34.5964
4083.26 40.2892
4086.18 35.1167
4089.09 33.7333
4092.01 36.436
4094.92 31.9912
4097.84 35.6029
4100.75 34.5974
4103.67 32.1909
4106.58 35.9031
4109.5 36.186
4112.41 40.793
4115.33 34.6874
4118.24 35.762
4121.16 34.0705
4124.07 37.8385
4126.99 40.0509
4129.9 34.1405
4132.81 38.4397
4135.73 38.7046
4138.64 36.7
4141.56 35.0505
4144.47 38.8496
4147.39 35.1091
4150.3 31.2945
4153.21 33.6153
4156.13 31.3739
4159.04 39.2753
4161.96 36.6597
4164.87 32.8636
4167.78 34.1363
4170.7 35.2415
4173.61 32.7343
4176.53 35.3881
4179.44 37.5533
4182.35 34.324
4185.27 36.8239
4188.18 37.6888
4191.09 30.5542
4194.01 31.2702
4196.92 31.3409
4199.83 31.5049
4202.75 37.742
4205.66 33.424
4208.57 34.7133
4211.49 35.6571
4214.4 35.0757
4217.31 39.1407
4220.23 37.9109
4223.14 33.4619
4226.05 35.6431
4228.97 36.1944
4231.88 34.5624
4234.79 36.9529
4237.71 37.5579
4240.62 36.9121
4243.53 38.354
4246.44 30.0567
4249.36 38.3946
4252.27 32.6471
4255.18 31.7386
4258.09 38.8329
4261.01 35.5253
4263.92 37.2084
4266.83 33.8474
4269.74 35.2474
4272.66 36.7005
4275.57 37.8972
4278.48 33.7415
4281.39 34.7064
4284.3 34.1706
4287.22 31.3197
4290.13 33.7667
4293.04 33.8899
4295.95 29.2645
4298.86 30.1288
4301.78 27.7557
4304.69 27.0731
4307.6 24.2775
4310.51 31.327
4313.42 36.0909
4316.33 36.1777
4319.25 34.5701
4322.16 33.5465
4325.07 39.2782
4327.98 39.789
4330.89 46.2191
4333.8 40.0692
4336.71 34.3276
4339.62 36.3631
4342.54 39.2693
4345.45 42.0272
4348.36 41.9154
4351.27 41.08
4354.18 37.4163
4357.09 39.8955
4360 39.5295
4362.91 39.5138
4365.82 37.1247
4368.73 41.3375
4371.64 37.5748
4374.55 40.4337
4377.46 41.3679
4380.38 34.5107
4383.29 37.3531
4386.2 35.5621
4389.11 39.9266
4392.02 39.34
4394.93 34.4948
4397.84 36.2349
4400.75 38.2154
4403.66 38.4499
4406.57 36.9435
4409.48 42.2628
4412.39 40.6168
4415.3 43.6273
4418.21 44.6072
4421.12 42.8944
4424.02 37.8322
4426.93 42.2132
4429.84 40.0566
4432.75 42.1777
4435.66 43.8095
4438.57 42.2614
4441.48 42.4733
4444.39 45.084
4447.3 45.7664
4450.21 41.7854
4453.12 43.1222
4456.03 42.4558
4458.94 40.4986
4461.84 43.5499
4464.75 44.1679
4467.66 46.0167
4470.57 41.7898
4473.48 47.5685
4476.39 43.0175
4479.3 45.7406
4482.21 50.9675
4485.11 45.3201
4488.02 47.2278
4490.93 43.7592
4493.84 44.6533
4496.75 50.4866
4499.66 46.5454
4502.56 48.9269
4505.47 48.1676
4508.38 48.4887
4511.29 49.2814
4514.2 49.4423
4517.1 49.9099
4520.01 47.4006
4522.92 47.5339
4525.83 43.7106
4528.73 47.1737
4531.64 43.8254
4534.55 45.1365
4537.46 47.8268
4540.36 43.3388
4543.27 47.4103
4546.18 44.9504
4549.09 50.3968
4551.99 49.8942
4554.9 50.8581
4557.81 47.4924
4560.71 50.4483
4563.62 47.3746
4566.53 51.8748
4569.43 49.2999
4572.34 47.4364
4575.25 47.8512
4578.15 44.6062
4581.06 47.3587
4583.97 45.2768
4586.87 45.9607
4589.78 50.1929
4592.69 45.4153
4595.59 44.2552
4598.5 48.2524
4601.4 45.4725
4604.31 49.425
4607.22 46.488
4610.12 49.1366
4613.03 48.1316
4615.93 47.8974
4618.84 47.7089
4621.75 49.8011
4624.65 50.4511
4627.56 50.1477
4630.46 45.382
4633.37 51.1001
4636.27 46.4048
4639.18 47.2241
4642.08 49.2118
4644.99 47.3341
4647.89 45.9985
4650.8 46.2181
4653.7 47.7416
4656.61 47.5588
4659.51 45.546
4662.42 41.2836
4665.32 44.8284
4668.23 42.6613
4671.13 43.2579
4674.04 45.9278
4676.94 44.5922
4679.85 48.3096
4682.75 44.3127
4685.65 45.9736
4688.56 45.4684
4691.46 44.8181
4694.37 47.7969
4697.27 38.3869
4700.17 47.6015
4703.08 42.9495
4705.98 47.058
4708.89 44.0653
4711.79 44.6695
4714.69 42.6038
4717.6 50.9158
4720.5 52.3941
4723.4 49.1088
4726.31 46.9339
4729.21 44.9439
4732.11 49.8577
4735.02 50.1733
4737.92 47.0909
4740.82 48.9653
4743.73 51.4652
4746.63 49.7403
4749.53 48.744
4752.43 46.3142
4755.34 45.7739
4758.24 48.4274
4761.14 48.4828
4764.04 46.6102
4766.95 46.168
4769.85 43.0001
4772.75 51.0269
4775.65 48.8451
4778.56 49.9711
4781.46 47.5458
4784.36 46.831
4787.26 48.3857
4790.16 49.915
4793.07 50.1797
4795.97 50.4653
4798.87 50.2572
4801.77 45.6725
4804.67 43.0656
4807.57 45.9814
4810.47 48.9978
4813.38 46.1363
4816.28 49.439
4819.18 48.5941
4822.08 47.9844
4824.98 52.2757
4827.88 44.9781
4830.78 46.4372
4833.68 47.7656
4836.58 49.3968
4839.48 48.3849
4842.38 47.8567
4845.29 49.2563
4848.19 50.4537
4851.09 44.5336
4853.99 42.4366
4856.89 39.9586
4859.79 41.4534
4862.69 42.3483
4865.59 45.4395
4868.49 43.5978
4871.39 42.9516
4874.29 45.5662
4877.19 50.402
4880.09 47.7565
4882.99 49.3375
4885.89 50.1493
4888.78 46.1316
4891.68 49.5818
4894.58 49.9101
4897.48 49.4003
4900.38 52.2621
4903.28 49.9552
4906.18 53.4039
4909.08 53.5711
4911.98 48.391
4914.88 50.5734
4917.78 44.4958
4920.67 46.5841
4923.57 47.6218
4926.47 50.4658
4929.37 47.6816
4932.27 50.118
4935.17 46.5116
4938.06 49.7326
4940.96 46.0123
4943.86 51.0123
4946.76 49.8617
4949.66 50.2799
4952.55 49.4923
4955.45 47.6121
4958.35 51.125
4961.25 48.7391
4964.14 49.0671
4967.04 46.6724
4969.94 48.6089
4972.84 51.3196
4975.73 50.5283
4978.63 47.108
4981.53 47.7916
4984.42 47.1965
4987.32 51.0021
4990.22 47.8313
4993.12 50.1319
4996.01 47.6221
4998.91 51.1219
5001.8 49.9192
5004.7 47.7029
5007.6 47.2329
5010.49 46.6696
5013.39 44.3448
5016.29 44.6091
5019.18 48.1819
5022.08 47.6387
5024.97 42.9382
5027.87 51.2039
5030.77 45.6635
5033.66 48.8292
5036.56 46.3379
5039.45 45.8717
5042.35 45.6098
5045.24 50.4461
5048.14 46.9725
5051.03 49.1839
5053.93 50.4809
5056.82 46.564
5059.72 48.5073
5062.61 48.0363
5065.51 47.9266
5068.4 50.8194
5071.3 50.6665
5074.19 50.0714
5077.09 46.1223
5079.98 48.2269
5082.88 47.4164
5085.77 45.8388
5088.66 50.0961
5091.56 52.1643
5094.45 47.7817
5097.35 43.0811
5100.24 47.0667
5103.13 48.1592
5106.03 44.2389
5108.92 44.7651
5111.81 48.988
5114.71 46.9429
5117.6 47.7571
5120.49 47.1663
5123.39 47.1462
5126.28 47.3916
5129.17 46.3655
5132.07 48.196
5134.96 45.8556
5137.85 47.5649
5140.74 48.0581
5143.64 48.3592
5146.53 45.6492
5149.42 43.6018
5152.31 47.8694
5155.21 50.7179
5158.1 53.8565
5160.99 43.9196
5163.88 42.9169
5166.77 39.9198
5169.66 39.8839
5172.56 45.3303
5175.45 47.9954
5178.34 47.0405
5181.23 44.1624
5184.12 47.9788
5187.01 48.9152
5189.91 48.5178
5192.8 50.6012
5195.69 51.3434
5198.58 56.3313
5201.47 55.5346
5204.36 54.6022
5207.25 50.7211
5210.14 51.2044
5213.03 53.9172
5215.92 56.0905
5218.81 56.5713
5221.7 53.5941
5224.59 49.8704
5227.48 39.1054
5230.37 42.4675
5233.26 41.4528
5236.15 42.9272
5239.04 45.7345
5241.93 45.843
5244.82 41.4749
5247.71 40.722
5250.6 44.5514
5253.49 40.4692
5256.38 46.1255
5259.27 43.3242
5262.16 38.8323
5265.05 37.1103
5267.93 39.2164
5270.82 41.1458
5273.71 40.3496
5276.6 41.878
5279.49 39.9625
5282.38 42.431
5285.27 43.3618
5288.15 48.4895
5291.04 44.9534
5293.93 45.0855
5296.82 42.2441
5299.71 42.4591
5302.59 45.5717
5305.48 49.1471
5308.37 47.8553
5311.26 45.3143
5314.14 46.5853
5317.03 43.2649
5319.92 40.3715
5322.8 44.2003
5325.69 42.7684
5328.58 41.8108
5331.47 42.6119
5334.35 43.1811
5337.24 44.9269
5340.13 43.746
5343.01 42.4733
5345.9 47.1236
5348.78 45.865
5351.67 47.8479
5354.56 50.1316
5357.44 46.5085
5360.33 44.239
5363.21 44.2126
5366.1 44.8276
5368.99 43.9191
5371.87 47.084
5374.76 44.9858
5377.64 47.7108
5380.53 45.9247
5383.41 48.3147
5386.3 45.4203
5389.18 46.1865
5392.07 41.9065
5394.95 40.9591
5397.84 44.1622
5400.72 40.0478
5403.61 38.9686
5406.49 42.6264
5409.37 43.3097
5412.26 44.3231
5415.14 45.8377
5418.03 41.3245
5420.91 42.4491
5423.79 42.7093
5426.68 42.2753
5429.56 41.0635
5432.45 43.2877
5435.33 44.9993
5438.21 48.1177
5441.1 45.5065
5443.98 42.8998
5446.86 48.3847
5449.74 46.2128
5452.63 45.2935
5455.51 44.1647
5458.39 46.1878
5461.28 40.9044
5464.16 45.4987
5467.04 47.4066
5469.92 42.3668
5472.8 45.435
5475.69 46.2589
5478.57 46.7295
5481.45 46.8858
5484.33 44.6503
5487.21 43.3022
5490.1 46.8737
5492.98 48.5146
5495.86 44.6197
5498.74 45.9205
5501.62 44.6286
5504.5 45.9733
5507.38 44.9317
5510.26 44.5833
5513.14 45.6459
5516.02 45.9805
5518.91 51.2508
5521.79 46.3434
5524.67 45.332
5527.55 46.978
5530.43 43.4703
5533.31 47.7036
5536.19 45.1942
5539.07 47.7143
5541.95 44.6818
5544.83 48.2075
5547.71 46.3467
5550.59 48.0161
5553.46 45.196
5556.34 44.7163
5559.22 46.4519
5562.1 43.2149
5564.98 43.4248
5567.86 42.6816
5570.74 46.5181
5573.62 48.5323
5576.5 45.1688
5579.37 43.2891
5582.25 44.3863
5585.13 41.5577
5588.01 41.8262
5590.89 44.4382
5593.76 42.1306
5596.64 44.9658
5599.52 44.9863
5602.4 44.5278
5605.28 46.6741
5608.15 43.6842
5611.03 46.8515
5613.91 45.085
5616.78 44.7045
5619.66 45.2138
5622.54 40.3832
5625.41 49.59
5628.29 43.7427
5631.17 46.7815
5634.04 47.0458
5636.92 46.9603
5639.8 47.029
5642.67 47.1234
5645.55 46.1457
5648.43 49.6257
5651.3 43.2441
5654.18 43.2902
5657.05 40.2297
5659.93 42.6099
5662.8 45.1724
5665.68 44.6263
5668.55 43.8962
5671.43 45.7524
5674.3 45.5083
5677.18 49.0745
5680.05 46.397
5682.93 47.8799
5685.8 45.4318
5688.68 45.2162
5691.55 47.1083
5694.43 43.84
5697.3 45.8904
5700.17 45.5055
5703.05 45.1041
5705.92 45.7427
5708.79 40.1404
5711.67 43.816
5714.54 43.5427
5717.41 49.0084
5720.29 45.9992
5723.16 45.6604
5726.03 46.5144
5728.91 44.5245
5731.78 48.5142
5734.65 47.5953
5737.53 49.6213
5740.4 46.1212
5743.27 47.2912
5746.14 45.0884
5749.01 45.0003
5751.89 45.0692
5754.76 45.6312
5757.63 45.1711
5760.5 43.1881
5763.37 46.2895
5766.24 43.297
5769.12 48.5285
5771.99 45.2703
5774.86 44.4425
5777.73 41.9472
5780.6 43.5631
5783.47 43.0793
5786.34 43.1388
5789.21 47.8399
5792.08 47.0186
5794.95 48.0063
5797.82 46.7124
5800.69 47.1062
5803.56 44.9982
5806.43 46.7657
5809.3 47.2085
5812.17 47.9341
5815.04 43.3932
5817.91 49.17
5820.78 48.7097
5823.65 48.8891
5826.52 46.8057
5829.39 47.0174
5832.26 47.0801
5835.13 48.3313
5837.99 48.1447
5840.86 49.5487
5843.73 50.8048
5846.6 46.6442
5849.47 50.0443
5852.34 45.0586
5855.2 46.8001
5858.07 43.9034
5860.94 47.5375
5863.81 49.0119
5866.67 47.2876
5869.54 44.5048
5872.41 44.292
5875.28 49.2564
5878.14 44.1537
5881.01 48.0511
5883.88 44.9487
5886.74 41.0463
5889.61 37.873
5892.48 37.7177
5895.34 37.9047
5898.21 40.2801
5901.07 40.6528
5903.94 45.6401
5906.81 47.8962
5909.67 46.7761
5912.54 47.9108
5915.4 45.7086
5918.27 49.069
5921.13 47.8793
5924 45.2641
5926.86 47.6875
5929.73 51.4436
5932.59 43.3843
5935.46 46.0858
5938.32 49.3831
5941.19 47.5187
5944.05 47.2631
5946.91 43.6756
5949.78 43.3509
5952.64 44.4228
5955.51 44.2353
5958.37 47.3464
5961.23 46.595
5964.1 47.3304
5966.96 45.0328
5969.82 47.2664
5972.69 45.1542
5975.55 48.1341
5978.41 47.0942
5981.28 44.5515
5984.14 43.9881
5987 44.7597
5989.86 47.3987
5992.72 46.7521
5995.59 42.9146
5998.45 45.842
6001.31 43.4833
6004.17 46.0269
6007.03 46.4531
6009.9 46.2737
6012.76 48.053
6015.62 45.2408
6018.48 44.455
6021.34 44.5179
6024.2 44.1884
6027.06 44.9843
6029.92 46.1842
6032.78 47.3025
6035.64 45.726
6038.5 45.1417
6041.36 45.6778
6044.22 44.6222
6047.08 46.5087
6049.94 45.1753
6052.8 46.1139
6055.66 44.3659
6058.52 45.504
6061.38 46.1721
6064.24 46.3262
6067.1 48.2682
6069.96 48.613
6072.82 46.6561
6075.67 46.9441
6078.53 45.1237
6081.39 44.4405
6084.25 45.4671
6087.11 47.6564
6089.97 44.0155
6092.82 45.0007
6095.68 46.5999
6098.54 44.6654
6101.4 43.1851
6104.25 42.8694
6107.11 48.2438
6109.97 45.9761
6112.82 46.3615
6115.68 45.1418
6118.54 43.91
6121.39 45.5748
6124.25 45.6535
6127.11 46.0097
6129.96 41.8353
6132.82 43.3437
6135.68 45.0109
6138.53 45.4641
6141.39 43.2936
6144.24 42.3417
6147.1 44.2105
6149.95 46.9628
6152.81 41.4382
6155.66 45.3059
6158.52 41.4723
6161.37 40.0268
6164.23 40.4812
6167.08 44.0217
6169.94 44.1383
6172.79 44.8348
6175.64 42.3267
6178.5 44.0004
6181.35 47.6425
6184.21 44.1897
6187.06 42.5652
6189.91 43.7569
6192.77 44.0682
6195.62 44.5283
6198.47 43.7121
6201.33 47.8677
6204.18 48.0729
6207.03 46.8071
6209.88 46.0714
6212.74 46.1829
6215.59 48.2215
6218.44 45.6071
6221.29 48.2954
6224.14 45.7294
6227 44.8711
6229.85 46.2685
6232.7 48.0038
6235.55 49.7492
6238.4 49.1112
6241.25 45.8039
6244.1 48.4467
6246.95 47.2001
6249.8 45.377
6252.65 50.9867
6255.51 47.5054
6258.36 48.562
6261.21 46.4292
6264.06 48.6476
6266.91 48.7706
6269.75 49.8019
6272.6 51.6639
6275.45 43.4087
6278.3 46.884
6281.15 48.801
6284 52.1496
6286.85 48.6947
6289.7 45.0999
6292.55 49.1918
6295.4 48.3898
6298.24 45.529
6301.09 44.0613
6303.94 45.3112
6306.79 53.506
6309.64 49.8112
6312.48 49.9757
6315.33 43.7563
6318.18 44.5922
6321.03 49.4258
6323.87 47.867
6326.72 51.6421
6329.57 48.983
6332.41 50.2387
6335.26 46.7335
6338.11 45.5464
6340.95 47.2294
6343.8 48.4912
6346.64 49.8867
6349.49 49.9875
6352.34 49.1828
6355.18 47.3925
6358.03 45.6875
6360.87 47.173
6363.72 50.1946
6366.56 45.7026
6369.41 47.0909
6372.25 37.4047
6375.1 39.7028
6377.94 37.9202
6380.78 37.8982
6383.63 38.9742
6386.47 40.2985
6389.32 38.8063
6392.16 37.9923
6395 39.3114
6397.85 37.3881
6400.69 37.6061
6403.53 36.8576
6406.38 40.409
6409.22 38.989
6412.06 38.2814
6414.91 40.8829
6417.75 39.43
6420.59 37.4866
6423.43 38.9529
6426.27 39.5926
6429.12 36.3783
6431.96 40.3431
6434.8 41.1973
6437.64 37.4162
6440.48 39.5891
6443.32 39.8518
6446.16 40.5375
6449 39.4131
6451.85 37.2026
6454.69 39.4149
6457.53 41.1911
6460.37 36.6303
6463.21 41.988
6466.05 37.0861
6468.89 36.7756
6471.73 40.6508
6474.57 37.9032
6477.41 41.1647
6480.24 38.3287
6483.08 38.8323
6485.92 43.1138
6488.76 38.2875
6491.6 36.921
6494.44 34.2219
6497.28 37.5591
6500.11 38.5155
6502.95 38.2051
6505.79 38.2234
6508.63 41.6195
6511.47 38.3221
6514.3 39.4181
6517.14 36.9339
6519.98 39.4705
6522.82 40.6361
6525.65 38.5076
6528.49 40.5157
6531.33 39.2814
6534.16 39.4221
6537 36.9832
6539.83 38.9862
6542.67 37.1353
6545.51 36.8579
6548.34 38.0025
6551.18 38.1456
6554.01 36.9911
6556.85 32.0497
6559.68 32.2476
6562.52 35.961
6565.35 33.5896
6568.19 38.3616
6571.02 35.2622
6573.86 39.8563
6576.69 36.7461
6579.52 37.6054
6582.36 37.0644
6585.19 38.7832
6588.03 38.2001
6590.86 39.1409
6593.69 40.4398
6596.53 35.0768
6599.36 40.0375
6602.19 39.5968
6605.02 41.3997
6607.86 37.3099
6610.69 38.3969
6613.52 42.9442
6616.35 38.8699
6619.18 36.1839
6622.02 37.1572
6624.85 39.0616
6627.68 40.1272
6630.51 37.9208
6633.34 36.8958
6636.17 39.8114
6639 38.6341
6641.83 39.4256
6644.67 42.1278
6647.5 39.4255
6650.33 35.8338
6653.16 38.3066
6655.99 39.0238
6658.82 42.0522
6661.64 40.1491
6664.47 39.3112
6667.3 37.9212
6670.13 40.6393
6672.96 37.2719
6675.79 37.3871
6678.62 43.7144
6681.45 42.0793
6684.28 42.4552
6687.1 36.9978
6689.93 42.1509
6692.76 38.6844
6695.59 38.2885
6698.42 37.3182
6701.24 39.0575
6704.07 43.4766
6706.9 40.3276
6709.72 40.1261
6712.55 37.4974
6715.38 38.523
6718.2 39.0793
6721.03 38.3864
6723.86 37.4659
6726.68 40.9903
6729.51 39.4914
6732.33 41.2443
6735.16 37.6903
6737.98 39.5598
6740.81 40.3704
6743.63 39.2329
6746.46 41.1498
6749.28 42.9707
6752.11 40.6113
6754.93 38.3881
6757.76 40.1061
6760.58 38.2095
6763.4 40.482
6766.23 37.7877
6769.05 39.5754
6771.88 39.3262
6774.7 36.6247
6777.52 40.627
6780.34 39.58
6783.17 38.6654
6785.99 37.7273
6788.81 38.5176
6791.63 38.2161
6794.46 39.682
6797.28 39.3361
6800.1 40.0729
6802.92 39.838
6805.74 38.292
6808.57 38.5144
6811.39 40.561
6814.21 38.5421
6817.03 34.8412
6819.85 39.8691
6822.67 37.1405
6825.49 37.6278
6828.31 38.5838
6831.13 37.3875
6833.95 41.095
6836.77 38.8672
6839.59 36.7835
6842.41 39.4361
6845.23 36.7668
6848.05 39.7674
6850.86 36.5026
6853.68 38.5604
6856.5 39.3669
6859.32 36.7587
6862.14 33.7907
6864.96 26.7639
6867.77 30.2566
6870.59 30.0039
6873.41 29.075
6876.23 33.4615
6879.04 34.0395
6881.86 33.711
6884.68 34.1786
6887.49 33.1444
6890.31 33.426
6893.13 32.6686
6895.94 35.4318
6898.76 31.8367
6901.58 36.8573
6904.39 37.7475
6907.21 35.5381
6910.02 35.747
6912.84 34.6337
6915.65 34.753
6918.47 34.4449
6921.28 37.3792
6924.1 34.9903
6926.91 34.787
6929.72 36.8992
6932.54 33.3742
6935.35 37.7631
6938.17 37.4298
6940.98 36.9469
6943.79 34.1897
6946.61 36.0929
6949.42 38.8498
6952.23 34.441
6955.04 34.0207
6957.86 36.8968
6960.67 38.28
6963.48 37.5502
6966.29 38.6853
6969.1 42.1914
6971.92 36.8569
6974.73 35.9251
6977.54 36.6777
6980.35 36.8035
6983.16 41.105
6985.97 41.2754
6988.78 37.8767
6991.59 39.9464
6994.4 38.8023
6997.21 37.4905
7000.02 37.7783
7002.83 33.2166
7005.64 39.6887
7008.45 37.2048
7011.26 35.2014
7014.07 37.51
7016.88 34.2517
7019.69 35.7721
7022.49 37.7341
7025.3 35.2177
7028.11 37.2115
7030.92 36.9488
7033.73 37.1614
7036.53 38.0253
7039.34 39.3162
7042.15 35.3509
7044.96 37.5131
7047.76 36.2222
7050.57 38.9321
7053.38 36.7922
7056.18 35.7071
7058.99 37.8752
7061.79 37.4063
7064.6 38.335
7067.41 39.8137
7070.21 38.6213
7073.02 38.5117
7075.82 36.6853
7078.63 37.5014
7081.43 37.9305
7084.24 36.2398
7087.04 38.1531
7089.84 35.1907
7092.65 33.8643
7095.45 38.5084
7098.26 37.5728
7101.06 36.7354
7103.86 36.263
7106.67 38.0964
7109.47 35.5987
7112.27 40.2746
7115.07 37.645
7117.88 37.9668
7120.68 36.4864
7123.48 32.9829
7126.28 39.1086
7129.09 37.5951
7131.89 35.1158
7134.69 36.7326
7137.49 37.1635
7140.29 36.9148
7143.09 38.2075
7145.89 36.484
7148.69 37.5751
7151.49 35.7891
7154.29 38.2716
7157.09 38.2336
7159.89 36.8559
7162.69 38.5996
7165.49 35.7294
7168.29 35.8036
7171.09 40.7518
7173.89 36.7962
7176.69 37.7575
7179.49 38.8971
7182.28 35.4954
7185.08 34.5892
7187.88 35.9766
7190.68 38.7157
7193.47 38.5223
7196.27 39.249
7199.07 38.4771
7201.87 37.6492
7204.66 37.0531
7207.46 39.9284
7210.26 37.4907
7213.05 42.5196
7215.85 37.5662
7218.64 37.8348
7221.44 35.2422
7224.24 41.2045
7227.03 36.4127
7229.83 37.867
7232.62 38.8218
7235.42 37.6714
7238.21 39.3403
7241 36.7695
7243.8 37.3766
7246.59 37.0319
7249.39 37.3065
7252.18 39.6616
7254.97 41.136
7257.77 37.6873
7260.56 38.7929
7263.35 36.9473
7266.15 37.7302
7268.94 36.5925
7271.73 37.3112
7274.52 35.8203
7277.31 42.204
7280.11 35.5551
7282.9 38.3529
7285.69 39.7526
7288.48 37.7605
7291.27 36.4929
7294.06 39.647
7296.85 37.6838
7299.64 38.4745
7302.43 36.4764
7305.22 38.5343
7308.01 35.6032
7310.8 37.8635
7313.59 38.6761
7316.38 39.6242
7319.17 41.6985
7321.96 36.5264
7324.75 39.5581
7327.54 38.9592
7330.33 40.7141
7333.11 42.8932
7335.9 40.0908
7338.69 41.6905
7341.48 38.9856
7344.26 38.0615
7347.05 35.7525
7349.84 39.8293
7352.62 39.2403
7355.41 40.3213
7358.2 29.752
7360.98 33.2948
7363.77 28.8734
7366.56 30.7877
7369.34 34.1151
7372.13 29.9445
7374.91 33.4222
7377.7 32.1174
7380.48 30.596
7383.27 27.8073
7386.05 27.3386
7388.84 33.2245
7391.62 30.6582
7394.4 28.9775
7397.19 29.1158
7399.97 29.9506
7402.75 30.4134
7405.54 31.8051
7408.32 29.0686
7411.1 28.6482
7413.89 33.0545
7416.67 31.0242
7419.45 29.8954
7422.23 30.9584
7425.01 36.4714
7427.8 30.6352
7430.58 31.7845
7433.36 34.1033
7436.14 32.7887
7438.92 31.4382
7441.7 31.4902
7444.48 31.0049
7447.26 33.7045
7450.04 31.4142
7452.82 33.3797
7455.6 29.9956
7458.38 33.0325
7461.16 29.6384
7463.94 29.9477
7466.72 30.0349
7469.49 32.001
7472.27 32.5129
7475.05 30.4371
7477.83 31.737
7480.61 33.2937
7483.38 33.5553
7486.16 32.7781
7488.94 29.5359
7491.72 31.5952
7494.49 31.1976
7497.27 31.9814
7500.05 31.6415
7502.82 28.8806
7505.6 32.7927
7508.37 29.1827
7511.15 30.462
7513.92 32.7801
7516.7 35.3141
7519.47 28.7837
7522.25 33.5809
7525.02 29.4568
7527.8 30.5964
7530.57 31.3826
7533.35 34.7227
7536.12 29.2532
7538.89 30.7287
7541.67 30.6191
7544.44 30.6688
7547.21 30.3859
7549.99 27.8088
7552.76 28.2503
7555.53 29.1751
7558.3 32.6277
7561.07 31.9745
7563.85 29.8913
7566.62 31.1758
7569.39 29.4029
7572.16 29.4906
7574.93 31.3051
7577.7 29.0806
7580.47 28.2954
7583.24 29.5334
7586.01 29.7197
7588.78 21.8207
7591.55 15.0749
7594.32 13.2064
7597.09 10.4059
7599.86 3.65397
7602.63 7.24973
7605.4 8.14303
7608.17 10.3396
7610.93 13.8906
7613.7 21.0201
7616.47 17.4192
7619.24 15.6963
7622 13.6421
7624.77 14.4589
7627.54 15.4075
7630.31 14.9924
7633.07 16.0966
7635.84 15.9412
7638.6 16.2752
7641.37 19.2245
7644.14 21.9247
7646.9 19.4776
7649.67 25.5931
7652.43 19.825
7655.2 21.5837
7657.96 25.6053
7660.73 21.3217
7663.49 24.8796
7666.25 28.4166
7669.02 26.796
7671.78 28.3454
7674.55 28.9839
7677.31 31.3193
7680.07 29.4263
7682.83 29.8505
7685.6 28.1377
7688.36 29.9536
7691.12 27.936
7693.88 28.8861
7696.64 30.0086
7699.41 32.8695
7702.17 32.0254
7704.93 32.0547
7707.69 28.0326
7710.45 28.5099
7713.21 28.8581
7715.97 29.7159
7718.73 33.402
7721.49 28.8152
7724.25 31.4764
7727.01 29.6127
7729.77 28.1532
7732.53 29.5588
7735.29 30.5634
7738.04 29.0168
7740.8 28.8756
7743.56 28.3249
7746.32 28.5272
7749.08 27.0653
7751.83 34.4507
7754.59 25.7952
7757.35 26.2888
7760.1 28.5336
7762.86 27.4099
7765.62 33.4503
7768.37 26.2921
7771.13 29.1408
7773.89 33.8709
7776.64 30.6516
7779.4 29.4089
7782.15 30.3407
7784.91 30.4955
7787.66 31.3461
7790.42 32.1136
7793.17 32.5724
7795.92 32.9037
7798.68 29.5712
7801.43 32.2838
7804.18 31.2347
7806.94 28.0827
7809.69 32.3516
7812.44 29.0095
7815.19 33.7113
7817.95 31.9033
7820.7 32.1359
7823.45 29.6885
7826.2 30.9483
7828.95 29.3579
7831.7 31.203
7834.46 30.4292
7837.21 32.1188
7839.96 34.2052
7842.71 29.9789
7845.46 30.5256
7848.21 28.5524
7850.96 28.5142
7853.71 30.693
7856.46 28.7785
7859.2 29.4082
7861.95 27.0736
7864.7 32.5532
7867.45 28.9375
7870.2 32.7233
7872.95 29.5465
7875.69 26.3731
7878.44 31.277
7881.19 32.6858
7883.93 28.5011
7886.68 30.4418
7889.43 29.6491
7892.17 29.2209
7894.92 31.9088
7897.67 29.2124
7900.41 30.8167
7903.16 30.2627
7905.9 33.7808
7908.65 29.1372
7911.39 26.8437
7914.14 28.6743
7916.88 27.8466
7919.62 28.7309
7922.37 29.73
7925.11 28.5454
7927.85 26.2512
7930.6 25.9753
7933.34 31.7738
7936.08 31.7158
7938.82 28.8463
7941.57 28.2957
7944.31 30.1747
7947.05 30.1704
7949.79 31.6472
7952.53 30.7845
7955.27 29.0149
7958.02 29.8172
7960.76 31.6959
7963.5 27.7401
7966.24 27.3149
7968.98 29.5696
7971.72 30.6584
7974.46 34.264
7977.19 29.1275
7979.93 34.2964
7982.67 28.8284
7985.41 28.8408
7988.15 31.7616
7990.89 31.0832
7993.63 33.0864
7996.36 26.051
7999.1 26.892
8001.84 34.3745
8004.57 29.0551
8007.31 34.2956
8010.05 31.0752
8012.78 28.0986
8015.52 28.322
8018.26 30.303
8020.99 32.3574
8023.73 33.5734
8026.46 29.5695
8029.2 25.4656
8031.93 33.3573
8034.67 33.5152
8037.4 30.0804
8040.13 29.7334
8042.87 31.8568
8045.6 33.3379
8048.33 34.1548
8051.07 28.8522
8053.8 28.7584
8056.53 33.7832
8059.26 33.9302
8062 29.2272
8064.73 36.133
8067.46 30.1111
8070.19 32.8166
8072.92 28.4627
8075.65 36.4919
8078.38 30.7757
8081.11 31.9687
8083.84 31.563
8086.57 34.4995
8089.3 29.6191
8092.03 34.8471
8094.76 27.8886
8097.49 33.434
8100.22 34.7465
8102.95 35.5088
8105.68 32.6744
8108.4 32.1847
8111.13 30.0518
8113.86 30.4136
8116.59 31.2544
8119.31 32.2751
8122.04 33.3606
8124.77 32.2461
8127.49 36.3006
8130.22 30.4327
8132.95 32.0148
8135.67 36.512
8138.4 31.3157
8141.12 32.5421
8143.85 34.049
8146.57 26.7884
8149.3 29.1136
8152.02 32.5269
8154.75 32.201
8157.47 30.0252
8160.19 30.9749
8162.92 30.4363
8165.64 32.9963
8168.36 31.3941
8171.08 32.9899
8173.81 30.6694
8176.53 32.7788
8179.25 29.1713
8181.97 27.9511
8184.69 33.4598
8187.41 29.065
8190.14 29.7
8192.86 28.247
8195.58 29.2747
8198.3 29.1368
8201.02 33.334
8203.74 29.2875
8206.46 29.3292
8209.17 33.8734
8211.89 31.8612
8214.61 31.6555
8217.33 31.4751
8220.05 27.8702
8222.77 27.1917
8225.48 30.2144
8228.2 26.9941
8230.92 25.5714
8233.64 23.8685
8236.35 28.5802
8239.07 23.2244
8241.79 24.3766
8244.5 24.8673
8247.22 26.4304
8249.93 28.1722
8252.65 27.78
8255.36 26.335
8258.08 24.5824
8260.79 24.495
8263.51 25.9046
8266.22 24.42
8268.93 25.5568
8271.65 27.0209
8274.36 25.0108
8277.07 27.5155
8279.79 25.9926
8282.5 24.3993
8285.21 25.8381
8287.92 23.0884
8290.64 27.4507
8293.35 27.6504
8296.06 24.2817
8298.77 24.6692
8301.48 22.7161
8304.19 23.8194
8306.9 24.5789
8309.61 21.2077
8312.32 24.7994
8315.03 27.1888
8317.74 27.2219
8320.45 24.5444
8323.16 27.1929
8325.87 26.4108
8328.58 26.5318
8331.28 26.4727
8333.99 22.8562
8336.7 21.1539
8339.41 24.2211
8342.11 21.4757
8344.82 23.9948
8347.53 18.3708
8350.23 22.5429
8352.94 18.1951
8355.64 25.928
8358.35 26.0819
8361.06 21.1418
8363.76 27.1589
8366.47 25.6179
8369.17 23.7848
8371.87 25.4247
8374.58 22.3184
8377.28 29.1557
8379.99 26.0021
8382.69 26.6016
8385.39 23.7433
8388.09 25.3261
8390.8 23.1753
8393.5 26.8201
8396.2 31.0491
8398.9 29.0514
8401.6 27.8325
8404.31 24.2575
8407.01 24.3658
8409.71 27.6844
8412.41 25.2241
8415.11 24.6517
8417.81 23.7176
8420.51 24.2967
8423.21 22.3377
8425.91 26.0175
8428.61 26.2218
8431.3 26.1783
8434 24.8439
8436.7 27.8393
8439.4 21.2015
8442.1 23.4296
8444.79 25.8017
8447.49 23.9041
8450.19 23.3598
8452.88 27.3402
8455.58 22.1139
8458.28 24.1909
8460.97 23.8814
8463.67 29.2432
8466.36 28.8075
8469.06 17.6938
8471.75 28.8342
8474.45 29.7065
8477.14 23.2174
8479.84 24.7057
8482.53 28.483
8485.22 28.4136
8487.92 29.4534
8490.61 26.1451
8493.3 22.1052
8496 26.9123
8498.69 18.2806
8501.38 24.0982
8504.07 25.9529
8506.76 25.4526
8509.45 26.0995
8512.14 25.6228
8514.84 22.6391
8517.53 24.1472
8520.22 28.2292
8522.91 25.7372
8525.6 24.7834
8528.28 26.6888
8530.97 23.4964
8533.66 22.3692
8536.35 23.2936
8539.04 21.8156
8541.73 15.2762
8544.41 19.6431
8547.1 20.4405
8549.79 22.5292
8552.48 24.1859
8555.16 26.1642
8557.85 24.0991
8560.54 25.852
8563.22 23.4745
8565.91 24.9673
8568.59 25.6689
8571.28 24.7996
8573.96 24.8154
8576.65 29.6078
8579.33 22.7168
8582.02 25.6117
8584.7 23.7058
8587.38 29.2601
8590.07 22.8249
8592.75 22.1144
8595.43 22.3477
8598.11 24.8333
8600.8 27.0055
8603.48 22.9406
8606.16 30.197
8608.84 24.6075
8611.52 25.7756
8614.2 22.0463
8616.88 23.8926
8619.56 26.3618
8622.24 26.1751
8624.92 28.1155
8627.6 25.7886
8630.28 26.8436
8632.96 23.8499
8635.64 26.4433
8638.32 24.0215
8641 26.6794
8643.67 26.3232
8646.35 22.5556
8649.03 24.4285
8651.71 27.3868
8654.38 25.9746
8657.06 22.5742
8659.74 18.3364
8662.41 16.0611
8665.09 24.8948
8667.76 21.1141
8670.44 22.2901
8673.11 27.1853
8675.79 23.4645
8678.46 23.912
8681.14 27.945
8683.81 27.6228
8686.48 26.6709
8689.16 25.8017
8691.83 27.4918
8694.5 28.0743
8697.17 25.3954
8699.85 29.601
8702.52 22.7159
8705.19 29.238
8707.86 24.2157
8710.53 25.7119
8713.2 22.9116
8715.87 27.0278
8718.54 23.2735
8721.21 27.527
8723.88 24.0074
8726.55 25.1291
8729.22 26.3685
8731.89 25.9125
8734.56 24.3879
8737.23 26.0086
8739.9 26.374
8742.56 25.2842
8745.23 22.4936
8747.9 25.8661
8750.56 25.8368
8753.23 22.2834
8755.9 24.2509
8758.56 21.1969
8761.23 27.3891
8763.9 26.6908
8766.56 27.4585
8769.23 25.7795
8771.89 24.2382
8774.55 26.6296
8777.22 24.3912
8779.88 21.1418
8782.55 26.9301
8785.21 21.0523
8787.87 24.9521
8790.53 22.7738
8793.2 21.712
8795.86 24.9055
8798.52 25.0118
8801.18 26.4495
8803.84 22.8815
8806.51 24.8006
8809.17 22.5694
8811.83 23.5521
8814.49 24.5226
8817.15 26.6999
8819.81 26.9978
8822.47 30.3667
8825.12 28.1138
8827.78 32.1868
8830.44 16.1186
8833.1 25.9153
8835.76 26.7755
8838.42 23.0682
8841.07 22.9405
8843.73 26.2086
8846.39 31.6126
8849.04 35.1453
8851.7 31.2955
8854.36 27.4241
8857.01 26.3831
8859.67 27.708
8862.32 25.5463
8864.98 29.7514
8867.63 30.361
8870.29 26.8208
8872.94 29.3152
8875.59 23.5774
8878.25 28.5065
8880.9 25.0803
8883.55 35.1819
8886.2 29.3248
8888.86 28.7719
8891.51 27.492
8894.16 32.9679
8896.81 28.9294
8899.46 31.8807
8902.11 29.7805
8904.76 31.7762
8907.41 30.7768
8910.06 24.953
8912.71 27.4781
8915.36 23.183
8918.01 28.8198
8920.66 28.1301
8923.31 28.4523
8925.96 24.2158
8928.61 21.7749
8931.25 29.9779
8933.9 26.1047
8936.55 28.7461
8939.19 28.3304
8941.84 26.1023
8944.49 26.39
8947.13 24.2245
8949.78 25.2564
8952.42 25.9577
8955.07 23.9324
8957.71 23.3427
8960.36 28.1982
8963 18.6216
8965.65 20.0134
8968.29 20.3242
8970.93 25.159
8973.58 23.4156
8976.22 24.533
8978.86 24.9087
8981.5 29.2906
8984.15 26.1785
8986.79 22.2178
8989.43 23.378
8992.07 25.1246
8994.71 24.4805
8997.35 25.4676
8999.99 21.8999
9002.63 21.915
9005.27 21.4987
9007.91 22.1145
9010.55 20.2157
9013.19 19.4212
9015.82 19.7809
9018.46 21.3486
9021.1 23.012
9023.74 17.6968
9026.37 23.4782
9029.01 23.4423
9031.65 22.3822
9034.28 21.867
9036.92 25.9209
9039.55 20.0488
9042.19 19.8211
9044.83 23.2622
9047.46 24.6836
9050.09 19.5726
9052.73 20.442
9055.36 18.4316
9058 18.6352
9060.63 17.6443
9063.26 23.7447
9065.89 23.4136
9068.53 20.4499
