wavelength spec_sum spec_optimal
3534.41 24.5134 17.449
3537.32 24.3535 14.7589
3540.24 17.1279 11.2137
3543.15 22.1292 20.9574
3546.06 22.2399 19.9587
3548.97 31.8062 27.9182
3551.89 17.4575 16.0499
3554.8 22.9282 18.1463
3557.71 22.966 25.1816
3560.62 28.6422 26.2602
3563.54 21.2755 12.8736
3566.45 20.2039 19.3251
3569.36 21.7966 15.6099
3572.28 12.7154 18.0186
3575.19 20.6569 15.4665
3578.1 13.9838 21.157
3581.01 18.1984 14.1022
3583.93 18.5322 18.3201
3586.84 15.1019 14.1374
3589.75 23.7575 21.0078
3592.66 20.3684 16.902
3595.58 27.2317 24.576
3598.49 21.6599 15.6599
3601.4 26.3127 25.0592
3604.31 23.9367 20.8765
3607.23 23.7562 18.258
3610.14 26.6038 21.839
3613.05 21.6295 20.6405
3615.96 19.9762 14.449
3618.88 19.4398 18.7128
3621.79 27.3935 20.9902
3624.7 26.9052 25.7205
3627.62 24.7503 15.6375
3630.53 29.801 26.8096
3633.44 26.1259 25.348
3636.35 26.5467 22.7134
3639.27 28.3551 23.6215
3642.18 24.4887 22.9678
3645.09 22.6809 20.0499
3648 28.8835 25.2776
3650.92 26.8755 26.3855
3653.83 32.0013 28.3561
3656.74 28.6035 22.2922
3659.65 24.8466 26.9419
3662.57 34.087 26.6599
3665.48 28.7032 24.3937
3668.39 34.0908 31.0239
3671.3 29.3868 27.3578
3674.22 31.8139 31.9686
3677.13 27.3371 23.8802
3680.04 27.5592 24.758
3682.95 28.1329 24.409
3685.87 24.6864 18.5805
3688.78 26.9232 24.8355
3691.69 34.8515 26.3388
3694.6 35.7916 29.5692
3697.52 32.1354 26.9774
3700.43 31.0325 22.3592
3703.34 30.1097 26.582
3706.25 27.8954 22.1842
3709.17 32.8496 27.663
3712.08 29.2926 25.2708
3714.99 28.6603 22.416
3717.9 26.1834 20.2568
3720.82 26.9528 21.7413
3723.73 30.3786 26.5932
3726.64 29.725 29.7362
3729.55 30.0588 26.181
3732.47 19.5812 19.7491
3735.38 23.1632 21.281
3738.29 22.7972 27.2659
3741.2 29.2115 27.7631
3744.11 23.6685 26.2723
3747.03 22.7658 25.5429
3749.94 23.1483 17.4335
3752.85 27.5777 24.6517
3755.76 30.6923 26.6933
3758.68 24.2428 21.7136
3761.59 29.5493 23.7392
3764.5 29.1494 25.1492
3767.41 31.9928 25.8338
3770.33 29.8088 29.0561
3773.24 32.0719 31.0568
3776.15 36.2555 30.9528
3779.06 36.8393 33.6921
3781.97 36.3155 34.6272
3784.89 35.3792 35.7342
3787.8 29.2152 28.414
3790.71 31.6935 27.0349
3793.62 30.169 26.4944
3796.54 29.8184 32.6399
3799.45 32.4884 33.1877
3802.36 32.1684 29.9809
3805.27 33.2317 32.025
3808.18 29.8209 26.5108
3811.1 30.1908 25.4126
3814.01 22.7504 19.6754
3816.92 27.0963 26.9217
3819.83 27.5554 29.653
3822.74 23.683 19.2399
3825.66 18.6274 20.9703
3828.57 18.606 18.4
3831.48 18.662 17.6484
3834.39 15.7049 15.3899
3837.3 19.7971 15.2666
3840.22 22.5327 24.1138
3843.13 26.7606 22.9147
3846.04 21.5846 21.023
3848.95 27.7062 23.3452
3851.86 21.5782 21.9598
3854.78 19.374 17.7852
3857.69 23.3807 23.1897
3860.6 27.9792 24.553
3863.51 25.2069 25.0772
3866.42 23.0296 22.0393
3869.34 20.6316 18.9656
3872.25 19.0887 18.7404
3875.16 27.9294 26.5948
3878.07 23.5959 22.9877
3880.98 22.3823 23.2
3883.89 23.2734 23.7337
3886.81 24.3627 24.051
3889.72 32.3852 26.5531
3892.63 33.3749 29.9583
3895.54 29.9775 27.9906
3898.45 30.5081 25.944
3901.36 32.3583 29.7426
3904.28 34.1757 32.518
3907.19 30.2565 29.0846
3910.1 36.1194 33.1574
3913.01 33.3827 33.5338
3915.92 31.3449 31.8688
3918.83 33.5641 30.8362
3921.75 29.9507 30.4926
3924.66 27.8426 26.0502
3927.57 22.4208 20.3062
3930.48 19.7204 19.3232
3933.39 15.3773 13.7851
3936.3 18.6591 16.4056
3939.21 25.5352 20.4006
3942.13 28.4944 26.2343
3945.04 26.4025 26.0812
3947.95 28.3819 28.3264
3950.86 33.3779 29.4007
3953.77 34.4026 32.8236
3956.68 34.4233 30.5565
3959.59 32.5293 29.8228
3962.5 27.95 27.564
3965.42 24.7599 21.7221
3968.33 24.0075 22.7102
3971.24 23.2844 22.472
3974.15 30.5331 29.7198
3977.06 29.8684 28.7472
3979.97 35.5374 32.6856
3982.88 39.4804 37.0251
3985.79 42.8935 42.2008
3988.71 46.1258 40.3
3991.62 46.3906 43.3753
3994.53 45.0177 39.8648
3997.44 45.354 39.5774
4000.35 53.6077 48.2713
4003.26 45.7585 42.2921
4006.17 50.417 48.9304
4009.08 50.7604 46.0359
4011.99 53.7884 51.9591
4014.9 50.7717 48.179
4017.81 53.4402 52.2956
4020.73 51.8617 50.8414
4023.64 50.9847 47.7574
4026.55 47.6072 45.5006
4029.46 51.1452 46.6319
4032.37 53.8886 54.2793
4035.28 50.5682 53.1325
4038.19 52.8581 50.0989
4041.1 48.1428 50.1859
4044.01 48.8104 48.6053
4046.92 48.2546 46.5299
4049.83 48.1907 45.8993
4052.74 53.9915 52.7731
4055.65 48.2201 47.097
4058.56 44.136 42.4373
4061.48 50.4231 49.3717
4064.39 45.4869 44.5681
4067.3 46.4505 44.3033
4070.21 50.7417 49.975
4073.12 47.264 47.0614
4076.03 49.9524 48.0895
4078.94 47.754 48.5232
4081.85 54.143 50.916
4084.76 52.6444 51.183
4087.67 54.5032 53.8565
4090.58 54.5253 51.0918
4093.49 56.7077 52.8256
4096.4 47.2274 45.5542
4099.31 51.6972 48.9243
4102.22 48.6492 47.4956
4105.13 53.9214 52.4203
4108.04 49.9263 49.4501
4110.95 57.3695 57.2214
4113.86 52.758 50.4986
4116.77 59.9175 59.5759
4119.68 55.5252 51.651
4122.59 55.3482 52.5696
4125.5 55.3546 53.278
4128.41 52.0585 48.4112
4131.32 54.5777 54.7638
4134.23 57.6066 56.3972
4137.14 58.9009 57.3939
4140.05 57.6202 55.0857
4142.96 48.0045 48.4408
4145.87 56.4805 57.1272
4148.78 55.8394 56.2604
4151.69 55.5549 52.8733
4154.6 56.2403 57.1385
4157.51 56.2096 55.8416
4160.42 54.4619 55.7901
4163.33 54.4098 54.9638
4166.24 56.4714 57.6932
4169.15 54.6735 55.6384
4172.06 54.5594 53.6657
4174.96 58.1766 59.5725
4177.87 54.5153 54.1356
4180.78 54.704 53.3953
4183.69 53.7938 54.8375
4186.6 56.5226 58.3643
4189.51 47.5566 47.673
4192.42 56.575 57.0492
4195.33 51.1896 49.008
4198.24 50.5334 51.9904
4201.15 50.5177 52.0627
4204.06 54.0024 53.9265
4206.97 54.4275 52.7826
4209.88 53.5229 49.5852
4212.79 55.5 55.6809
4215.69 53.4623 55.089
4218.6 55.4795 54.8199
4221.51 51.7059 52.7524
4224.42 53.8336 53.9537
4227.33 53.1077 53.2243
4230.24 51.0352 52.5331
4233.15 54.4726 55.5849
4236.06 51.1619 52.414
4238.97 54.1701 55.4667
4241.87 55.4773 55.8339
4244.78 48.8076 47.9094
4247.69 51.1729 51.8869
4250.6 49.9531 50.5772
4253.51 51.924 52.7031
4256.42 51.0571 54.0156
4259.33 52.8674 55.4192
4262.23 53.4339 54.321
4265.14 51.3555 49.1607
4268.05 45.7781 45.9055
4270.96 48.6159 50.0744
4273.87 45.6903 49.4639
4276.78 46.6379 49.8308
4279.68 47.5757 51.6924
4282.59 47.5243 50.6575
4285.5 47.2617 51.1319
4288.41 43.5955 47.6755
4291.32 44.1042 49.1608
4294.23 44.5252 49.5853
4297.13 38.9107 40.6929
4300.04 38.3612 40.6493
4302.95 39.2452 43.3457
4305.86 32.9793 34.7955
4308.77 37.0075 40.1491
4311.67 39.5795 43.3178
4314.58 46.2466 50.6387
4317.49 50.9405 53.8917
4320.4 45.2909 49.4359
4323.3 46.1986 47.0858
4326.21 48.9675 54.0963
4329.12 51.577 56.9591
4332.03 54.5357 58.4023
4334.94 51.1137 56.016
4337.84 50.1349 53.5128
4340.75 50.5357 57.907
4343.66 54.6728 57.9161
4346.57 54.468 59.8629
4349.47 51.33 55.4047
4352.38 53.2758 57.303
4355.29 54.4843 58.6122
4358.2 54.4674 61.3937
4361.1 56.8995 60.7935
4364.01 53.502 59.0483
4366.92 55.8483 61.5585
4369.82 53.7091 59.0922
4372.73 51.5364 57.5517
4375.64 50.7369 57.0251
4378.55 53.8014 59.6661
4381.45 46.3164 49.6573
4384.36 53.0338 58.4579
4387.27 47.1919 52.999
4390.17 52.2104 54.8772
4393.08 50.6698 54.5354
4395.99 53.6179 60.2392
4398.89 51.2566 56.5277
4401.8 51.6223 57.7465
4404.71 49.2295 53.9184
4407.61 51.7364 57.0744
4410.52 56.1652 62.4867
4413.43 52.8167 57.4526
4416.33 54.4388 61.5855
4419.24 55.6111 62.3003
4422.15 57.6259 64.6549
4425.05 57.1445 62.435
4427.96 56.2322 62.6507
4430.86 55.9421 63.8541
4433.77 56.8491 65.7243
4436.68 61.8803 70.082
4439.58 60.1306 69.687
4442.49 55.138 61.386
4445.4 59.5179 67.9998
4448.3 58.3374 65.2039
4451.21 56.7268 63.4609
4454.11 59.5407 66.5668
4457.02 52.3923 59.0269
4459.93 54.6518 61.6824
4462.83 58.3149 65.1647
4465.74 56.8183 64.1459
4468.64 58.2076 67.2787
4471.55 59.217 67.5245
4474.45 61.9595 69.4835
4477.36 63.8828 72.2313
4480.27 63.5458 71.5391
4483.17 64.4503 72.5737
4486.08 62.6953 70.4827
4488.98 58.5331 66.4143
4491.89 61.5393 70.2229
4494.79 63.2746 71.7355
4497.7 65.9847 74.8506
4500.6 65.5028 74.066
4503.51 67.7145 76.4474
4506.41 65.1761 74.1109
4509.32 65.1612 73.4729
4512.22 65.4165 74.2814
4515.13 61.6528 70.4326
4518.03 64.9664 72.5433
4520.94 64.0566 71.1202
4523.84 59.7693 66.5851
4526.75 60.9747 67.4375
4529.65 61.2397 70.5032
4532.56 63.2325 71.8873
4535.46 61.2215 68.9136
4538.37 60.0897 70.2282
4541.27 60.0153 67.8648
4544.18 61.8522 72.1664
4547.08 62.0316 69.6856
4549.99 59.2879 66.8249
4552.89 64.5696 73.4706
4555.79 64.8555 73.7731
4558.7 65.0189 74.6053
4561.6 62.7105 69.9976
4564.51 63.8047 73.3509
4567.41 60.7723 68.0049
4570.32 64.2257 72.5111
4573.22 64.3105 73.1438
4576.12 62.8605 71.3416
4579.03 66.3759 75.5416
4581.93 66.7671 76.1724
4584.83 65.8218 74.8751
4587.74 66.0906 74.0595
4590.64 62.0491 71.0419
4593.55 62.0635 71.7076
4596.45 61.4835 70.7185
4599.35 65.1625 74.0421
4602.26 65.0959 74.8211
4605.16 65.2213 74.9953
4608.06 65.7409 74.766
4610.97 66.8457 76.481
4613.87 66.0014 76.8244
4616.77 66.2836 75.3654
4619.68 68.4112 78.4492
4622.58 63.9546 72.6976
4625.48 67.8994 79.3949
4628.39 64.4989 74.2651
4631.29 66.5763 77.8126
4634.19 61.7221 71.9711
4637.1 67.1341 77.0115
4640 61.3096 70.389
4642.9 65.0491 74.5021
4645.8 66.8138 75.2403
4648.71 64.137 74.0244
4651.61 65.1188 74.8262
4654.51 65.1835 76.3716
4657.42 62.6125 71.9084
4660.32 68.2972 78.7397
4663.22 60.8426 70.7406
4666.12 62.2831 70.8626
4669.02 61.782 73.0148
4671.93 63.5197 73.9668
4674.83 63.7267 72.7441
4677.73 64.1782 74.6823
4680.63 64.0157 72.5108
4683.54 60.4582 71.8007
4686.44 63.0723 72.4365
4689.34 67.3236 76.7455
4692.24 63.738 76.3089
4695.14 64.1346 75.8875
4698.05 61.6919 72.0615
4700.95 60.8895 71.0021
4703.85 60.0803 70.5058
4706.75 60.2198 70.8807
4709.65 62.4175 72.1439
4712.55 65.4159 77.2635
4715.46 64.5033 73.4611
4718.36 66.7933 78.2556
4721.26 64.6205 76.5766
4724.16 66.8172 78.6867
4727.06 65.1039 77.4487
4729.96 64.7526 75.1999
4732.86 65.4318 76.3874
4735.76 66.8621 77.8956
4738.67 65.5687 76.4015
4741.57 67.2822 78.6707
4744.47 65.932 76.4415
4747.37 68.6531 81.1312
4750.27 68.023 80.2858
4753.17 66.2825 78.5972
4756.07 66.6785 76.8811
4758.97 65.1934 75.6885
4761.87 63.2239 73.4056
4764.77 64.389 75.3556
4767.67 69.0541 80.7145
4770.57 64.7038 75.5314
4773.47 66.7895 78.0142
4776.37 63.9056 75.6487
4779.27 69.2072 80.5427
4782.17 66.1361 76.8448
4785.07 63.7217 75.1662
4787.97 61.199 70.9134
4790.87 62.3052 74.1711
4793.77 65.6298 78.3645
4796.67 66.7099 78.1771
4799.57 66.7104 78.1972
4802.47 65.4336 76.3411
4805.37 66.5056 78.3626
4808.27 65.2543 76.6547
4811.17 68.8545 80.7043
4814.07 64.7117 76.3129
4816.97 64.2841 77.5618
4819.87 65.1732 76.9581
4822.77 62.9381 74.3603
4825.67 66.6664 77.9106
4828.57 66.1922 77.9367
4831.47 65.559 76.3547
4834.37 68.3541 80.9243
4837.27 67.4116 79.633
4840.16 65.3574 79.0533
4843.06 67.0039 80.6921
4845.96 70.0696 83.5354
4848.86 66.9552 80.3818
4851.76 65.1458 78.5571
4854.66 59.6457 71.8331
4857.56 61.1539 72.8361
4860.46 58.3676 70.1048
4863.35 58.4856 70.4161
4866.25 62.301 74.3824
4869.15 63.4935 75.4883
4872.05 62.8379 75.0597
4874.95 62.0572 74.5129
4877.85 62.7058 76.3036
4880.74 65.6031 79.5464
4883.64 68.4 82.1444
4886.54 68.6778 81.1539
4889.44 66.6917 81.2672
4892.34 69.5407 84.9848
4895.23 66.6222 81.9428
4898.13 68.7318 84.8862
4901.03 73.1747 90.0607
4903.93 68.9913 86.4425
4906.82 68.5797 83.2369
4909.72 67.3788 82.1186
4912.62 67.326 81.3711
4915.52 65.3945 79.3878
4918.41 65.1812 80.6966
4921.31 69.4836 84.3435
4924.21 68.8136 83.3064
4927.1 71.1962 85.8768
4930 68.1923 84.771
4932.9 68.1404 81.6009
4935.79 66.0743 80.2427
4938.69 67.9111 81.4799
4941.59 66.8072 81.0958
4944.48 69.3181 84.717
4947.38 68.5255 84.5718
4950.28 70.3424 84.262
4953.17 63.7655 78.6021
4956.07 67.4481 82.5567
4958.97 66.2266 79.7537
4961.86 65.8857 80.867
4964.76 67.3506 82.3999
4967.66 72.0239 87.5332
4970.55 65.8459 79.424
4973.45 66.9924 83.3748
4976.34 66.7177 82.0085
4979.24 65.0201 77.8874
4982.13 65.848 78.3616
4985.03 64.9915 77.9487
4987.93 66.141 81.9574
4990.82 63.5307 79.1252
4993.72 66.5099 80.8962
4996.61 69.1546 85.0927
4999.51 65.7339 80.0546
5002.4 66.3925 80.7618
5005.3 64.4933 76.3432
5008.19 64.7217 78.6515
5011.09 64.283 75.9908
5013.98 64.9038 77.9291
5016.88 64.6577 78.6884
5019.77 64.2031 76.1907
5022.67 65.5234 78.6974
5025.56 66.7291 77.9789
5028.46 66.6308 79.9816
5031.35 66.3721 79.6086
5034.25 67.3457 81.505
5037.14 63.3305 77.4976
5040.04 65.2316 79.7938
5042.93 69.4769 82.1032
5045.82 64.4965 76.958
5048.72 65.2087 77.7427
5051.61 67.7451 80.6135
5054.51 69.3214 83.1903
5057.4 69.8414 83.2343
5060.29 69.6806 83.8402
5063.19 67.027 79.2817
5066.08 70.2211 86.6036
5068.97 69.2731 84.8158
5071.87 67.2978 83.3349
5074.76 66.4039 81.9195
5077.65 66.4149 80.95
5080.55 65.532 81.6196
5083.44 70.6119 85.4073
5086.33 66.3896 82.0018
5089.23 68.7259 83.7994
5092.12 68.6463 83.765
5095.01 65.5995 79.5428
5097.91 69.2565 85.3345
5100.8 67.2312 83.167
5103.69 66.2942 82.676
5106.58 67.3224 82.4437
5109.48 68.8306 85.3336
5112.37 68.3467 84.9819
5115.26 67.9544 84.6394
5118.15 64.9114 81.3738
5121.05 66.687 83.4902
5123.94 65.0073 81.2443
5126.83 65.4268 81.6695
5129.72 68.618 85.4541
5132.62 70.7066 87.983
5135.51 65.8244 82.6871
5138.4 66.5188 83.0001
5141.29 66.8646 84.4196
5144.18 65.8168 80.6987
5147.07 64.4672 80.3668
5149.97 65.1314 80.862
5152.86 66.3052 82.7827
5155.75 63.3439 79.247
5158.64 65.6456 80.6971
5161.53 63.355 78.8933
5164.42 62.142 77.0662
5167.31 55.5759 70.4917
5170.2 57.8084 73.2742
5173.09 59.4029 74.3798
5175.99 63.0407 78.3821
5178.88 61.6373 77.6558
5181.77 58.3515 73.4376
5184.66 62.6502 78.9772
5187.55 65.4038 82.5241
5190.44 62.7126 78.5934
5193.33 68.3877 85.2833
5196.22 65.6487 83.1635
5199.11 70.0194 87.1986
5202 67.0997 84.4215
5204.89 66.8208 84.2223
5207.78 68.6954 85.7444
5210.67 72.657 90.9921
5213.56 72.6197 90.3037
5216.45 71.2769 88.6897
5219.34 73.3157 92.8821
5222.23 68.2111 84.2835
5225.12 67.3149 84.3502
5228.01 69.6445 86.0226
5230.9 69.8409 87.7182
5233.78 68.8119 86.2201
5236.67 71.5861 89.974
5239.56 76.9327 96.5872
5242.45 72.2874 91.7965
5245.34 71.6615 89.1501
5248.23 72.1266 90.6304
5251.12 69.4477 86.7511
5254.01 71.9066 92.3497
5256.9 73.6669 93.0293
5259.78 71.2176 88.4682
5262.67 67.275 82.9326
5265.56 65.197 82.2683
5268.45 66.047 84.302
5271.34 66.6197 83.5505
5274.22 70.1088 87.2879
5277.11 71.8995 90.5268
5280 70.8949 89.5678
5282.89 68.1724 86.2508
5285.78 72.2173 90.8273
5288.66 74.0242 93.6485
5291.55 74.3735 93.5743
5294.44 70.8494 89.7568
5297.33 73.5745 93.0759
5300.21 74.3699 93.0898
5303.1 72.4651 91.1033
5305.99 75.518 94.5633
5308.87 76.8994 97.2371
5311.76 76.7688 95.971
5314.65 75.8293 96.4238
5317.54 73.3238 92.6427
5320.42 71.0936 88.6117
5323.31 71.5457 88.3322
5326.2 72.0411 89.738
5329.08 71.7226 89.6618
5331.97 71.1742 89.3849
5334.85 70.9419 88.3291
5337.74 70.3597 89.0964
5340.63 74.4683 91.8545
5343.51 70.6887 89.1481
5346.4 73.1265 91.4876
5349.28 70.9054 89.3162
5352.17 73.4785 92.2032
5355.06 73.9656 92.7697
5357.94 77.3482 95.3617
5360.83 74.1974 93.3364
5363.71 70.8632 89.201
5366.6 71.1916 88.3499
5369.48 70.5602 87.2366
5372.37 73.4171 92.1123
5375.25 72.0619 90.6852
5378.14 72.5486 89.1212
5381.02 73.1575 91.83
5383.91 77.1977 95.6331
5386.79 71.8733 90.3964
5389.68 73.6042 91.0895
5392.56 72.0119 89.0876
5395.45 67.7178 83.4994
5398.33 71.9411 89.4504
5401.21 69.8661 85.7981
5404.1 68.6513 84.4111
5406.98 68.4344 84.3746
5409.87 70.1279 86.632
5412.75 72.7174 90.4053
5415.63 74.4624 94.4114
5418.52 72.2505 89.6423
5421.4 74.4222 92.3601
5424.28 73.0944 93.0552
5427.17 74.0465 90.4771
5430.05 71.9005 88.3693
5432.93 68.0352 84.8729
5435.82 72.8842 88.9959
5438.7 76.2554 92.9322
5441.58 72.7358 90.1191
5444.47 69.2694 85.4801
5447.35 77.0002 93.8365
5450.23 73.4521 90.3683
5453.11 72.9141 89.5463
5456 71.7883 88.4431
5458.88 71.8851 86.2552
5461.76 71.9657 87.7877
5464.64 72.9804 90.6921
5467.53 75.3403 91.8793
5470.41 72.0281 91.3935
5473.29 73.8753 90.0116
5476.17 67.8556 84.988
5479.05 71.2199 87.6415
5481.94 72.112 87.9664
5484.82 74.2898 91.0055
5487.7 71.4779 87.0372
5490.58 74.5393 91.705
5493.46 73.1148 89.5658
5496.34 74.3508 91.2493
5499.22 65.3278 86.1109
5502.1 63.18 83.2904
5504.99 64.7917 84.9894
5507.87 66.2553 87.5246
5510.75 69.8731 91.8887
5513.63 66.2586 89.2032
5516.51 69.4361 92.347
5519.39 68.3222 91.2044
5522.27 69.6362 93.7917
5525.15 66.2818 89.7483
5528.03 63.7164 84.3171
5530.91 69.0467 92.2041
5533.79 67.7742 90.5913
5536.67 63.6047 88.9175
5539.55 68.6663 91.7491
5542.43 67.8115 90.7473
5545.31 69.0155 91.4067
5548.19 68.2841 91.2377
5551.07 65.8939 86.8898
5553.95 65.7374 91.1183
5556.83 66.0486 87.7961
5559.7 67.2791 93.5167
5562.58 66.3422 88.0466
5565.46 67.8397 90.053
5568.34 67.9436 89.609
5571.22 66.487 88.0449
5574.1 68.0181 89.958
5576.98 57.7921 85.2996
5579.86 62.7789 81.1847
5582.73 69.3336 90.7884
5585.61 58.057 84.4073
5588.49 58.8935 86.3514
5591.37 61.8994 84.2676
5594.25 67.7074 90.0124
5597.12 64.2032 86.9304
5600 69.0543 92.5099
5602.88 66.7913 88.3575
5605.76 67.9226 92.7211
5608.63 69.6391 95.0383
5611.51 68.0675 90.5838
5614.39 66.3219 87.727
5617.27 67.7446 90.897
5620.14 71.4199 94.9224
5623.02 68.7041 91.8896
5625.9 66.771 91.6718
5628.77 71.2704 93.9741
5631.65 68.6746 91.845
5634.53 66.6188 89.1804
5637.4 68.9956 91.0095
5640.28 63.2603 87.5667
5643.15 69.618 93.0977
5646.03 69.4935 93.0192
5648.91 69.7384 92.2526
5651.78 67.6381 90.4018
5654.66 66.7529 89.9135
5657.53 62.5856 86.5662
5660.41 64.728 88.1491
5663.29 67.2299 89.8253
5666.16 64.1705 87.6383
5669.04 72.0539 95.944
5671.91 67.2638 89.1129
5674.79 66.997 89.2766
5677.66 68.9055 93.036
5680.54 66.4464 89.0335
5683.41 67.0826 88.856
5686.29 68.919 91.2814
5689.16 68.6736 91.0643
5692.03 63.7604 88.8917
5694.91 65.7537 91.0738
5697.78 65.9149 89.9293
5700.66 65.4812 91.1493
5703.53 65.68 87.3754
5706.4 64.9177 87.1606
5709.28 65.1841 90.5437
5712.15 65.1621 87.5322
5715.03 66.5963 88.6591
5717.9 70.7681 93.9585
5720.77 67.0631 88.1803
5723.65 66.8747 88.9564
5726.52 68.8 91.8078
5729.39 68.5825 92.1087
5732.27 66.6061 91.2843
5735.14 71.498 96.8582
5738.01 68.8704 92.6985
5740.88 69.8746 98.0226
5743.76 67.8849 93.0934
5746.63 68.2417 92.7289
5749.5 62.5932 88.2579
5752.37 69.6304 93.4505
5755.24 68.1864 91.9362
5758.12 67.8991 91.1467
5760.99 66.9864 90.3799
5763.86 68.6921 92.0366
5766.73 69.991 93.3839
5769.6 66.337 86.8809
5772.48 67.7369 90.4588
5775.35 68.169 90.3079
5778.22 65.9018 89.7256
5781.09 62.4488 84.9236
5783.96 64.2774 85.0924
5786.83 67.7668 88.2897
5789.7 66.9808 87.6555
5792.57 66.7865 92.4749
5795.44 65.3833 86.3069
5798.31 66.7749 88.1794
5801.18 68.7196 90.9006
5804.05 70.1216 93.9999
5806.92 66.8497 88.7263
5809.79 69.8462 92.6003
5812.66 68.3177 90.5402
5815.53 70.5429 98.688
5818.4 68.2593 92.7062
5821.27 68.4435 93.3463
5824.14 68.7146 91.2269
5827.01 70.2988 92.7282
5829.88 70.0548 93.5993
5832.75 68.5148 90.8735
5835.62 71.1528 94.6957
5838.49 70.2588 92.569
5841.36 68.6027 90.741
5844.23 69.8943 92.2031
5847.09 70.0525 92.2485
5849.96 65.2428 88.9694
5852.83 69.7081 93.3761
5855.7 69.87 92.1391
5858.57 69.7342 91.3151
5861.44 70.3935 92.3447
5864.3 68.7035 90.6649
5867.17 71.2053 93.5416
5870.04 73.0448 96.4025
5872.91 69.2535 90.6881
5875.77 72.1353 95.9753
5878.64 63.1755 87.8881
5881.51 68.2073 89.7774
5884.38 64.3985 83.6491
5887.24 57.2729 80.0526
5890.11 53.1477 77.3551
5892.98 64.4623 83.3488
5895.84 66.5459 88.2891
5898.71 59.9633 85.3952
5901.58 63.1423 88.6599
5904.44 65.4481 86.1758
5907.31 65.0964 91.2521
5910.17 66.0579 86.9642
5913.04 65.0156 89.9716
5915.91 65.4511 90.2091
5918.77 66.1619 87.1427
5921.64 65.71 88.3326
5924.5 68.4693 92.4993
5927.37 65.5236 86.0719
5930.23 71.4423 94.941
5933.1 67.2497 93.9611
5935.96 71.8326 95.2712
5938.83 71.8936 95.1738
5941.69 69.0374 91.7739
5944.56 65.893 91.3397
5947.42 65.8728 91.099
5950.29 66.4858 86.9484
5953.15 67.063 87.4195
5956.02 67.0733 92.2599
5958.88 66.7991 87.2164
5961.74 67.9551 88.7723
5964.61 70.2921 92.1168
5967.47 69.5924 90.3868
5970.34 65.1735 88.6383
5973.2 65.3957 85.8852
5976.06 69.1578 94.5701
5978.93 63.5033 87.2938
5981.79 64.3129 87.8089
5984.65 67.0371 87.6781
5987.51 71.1446 93.7915
5990.38 67.9124 88.1412
5993.24 68.7548 90.8193
5996.1 69.442 90.6545
5998.97 69.3763 90.4119
6001.83 64.6486 90.8866
6004.69 68.2937 89.7588
6007.55 64.1037 87.9796
6010.41 66.2456 87.3486
6013.28 66.847 87.5342
6016.14 66.6056 87.6766
6019 66.2219 86.4308
6021.86 67.4245 88.311
6024.72 68.5435 88.9687
6027.58 68.3445 89.2795
6030.44 64.6749 88.085
6033.31 68.5007 92.4227
6036.17 68.0802 89.5898
6039.03 67.428 88.85
6041.89 69.401 90.8108
6044.75 68.934 90.748
6047.61 69.405 90.954
6050.47 67.6158 89.6368
6053.33 65.5989 90.6581
6056.19 72.4107 95.0076
6059.05 68.8202 91.7784
6061.91 68.5095 89.554
6064.77 69.6281 91.1245
6067.63 69.0979 90.2873
6070.49 69.0237 89.9327
6073.35 67.7793 88.1902
6076.21 66.3979 89.9884
6079.06 67.9082 88.5938
6081.92 67.6592 90.1516
6084.78 67.094 87.1819
6087.64 67.6259 88.0695
6090.5 62.7108 81.2033
6093.36 67.2016 87.9717
6096.22 68.2803 89.1867
6099.07 66.6621 90.6217
6101.93 62.0407 81.597
6104.79 66.2425 86.071
6107.65 69.8533 91.2507
6110.51 64.6411 84.2581
6113.36 65.7392 85.8539
6116.22 67.5837 89.1528
6119.08 64.2173 86.4179
6121.93 65.1143 88.9341
6124.79 67.9194 87.1809
6127.65 67.7044 88.2674
6130.51 62.7364 85.0057
6133.36 62.4549 81.0973
6136.22 59.7884 81.1932
6139.07 63.0884 82.8647
6141.93 67.0796 87.784
6144.79 67.4849 88.4571
6147.64 62.8113 84.5892
6150.5 64.0641 84.4877
6153.35 65.3798 84.264
6156.21 62.9221 82.2638
6159.07 62.4593 81.4064
6161.92 63.0366 80.7272
6164.78 64.292 84.0705
6167.63 63.6256 83.579
6170.49 65.5561 84.7045
6173.34 68.3867 88.6351
6176.2 69.2557 88.7757
6179.05 67.3318 88.4916
6181.91 63.654 86.2012
6184.76 63.6491 85.4496
6187.61 64.4307 83.3329
6190.47 65.4253 87.747
6193.32 68.4433 90.7184
6196.18 64.1186 82.9745
6199.03 64.625 86.3669
6201.88 68.0653 88.4001
6204.74 66.8675 89.4747
6207.59 68.6536 89.4467
6210.44 67.6053 88.1627
6213.3 68.0041 87.6751
6216.15 69.4036 91.5425
6219 64.0082 83.0768
6221.85 69.6721 92.7788
6224.71 63.3302 82.9425
6227.56 63.759 87.8733
6230.41 69.8804 90.4228
6233.26 66.7547 87.7542
6236.12 65.0267 85.1469
6238.97 62.6123 82.0751
6241.82 65.9002 86.1886
6244.67 61.2622 82.6909
6247.52 67.1123 89.2088
6250.37 63.9058 84.4487
6253.22 62.9223 81.0537
6256.08 66.0276 85.314
6258.93 66.4542 85.7603
6261.78 67.2376 86.2126
6264.63 68.4918 88.4058
6267.48 68.6432 89.1069
6270.33 69.4961 92.0815
6273.18 65.083 84.5099
6276.03 64.0412 87.6257
6278.88 61.9444 84.7788
6281.73 64.1681 86.0653
6284.58 66.2752 84.0176
6287.43 63.7849 82.5277
6290.28 65.8002 85.8503
6293.13 65.4605 83.6226
6295.98 63.6679 78.6951
6298.83 66.7936 81.4033
6301.67 45.536 78.3935
6304.52 69.582 87.3783
6307.37 63.5046 81.7387
6310.22 61.2147 80.7706
6313.07 64.2125 83.4218
6315.92 64.1935 83.5229
6318.76 65.0316 84.3515
6321.61 68.6812 90.2332
6324.46 63.6864 86.861
6327.31 66.7182 85.8792
6330.16 66.1075 83.1725
6333 64.5932 82.1963
6335.85 67.4625 85.0327
6338.7 64.9638 83.4413
6341.54 67.8292 86.3005
6344.39 64.4851 87.9946
6347.24 64.1748 87.9189
6350.08 66.0918 85.0278
6352.93 63.2527 84.7635
6355.78 58.5355 79.5305
6358.62 68.6139 85.6278
6361.47 69.1614 88.022
6364.32 65.0304 83.9024
6367.16 64.9026 81.5533
6370.01 64.9319 83.8642
6372.85 66.8362 84.4807
6375.7 67.7293 85.8228
6378.54 66.3158 86.537
6381.39 67.5519 92.0938
6384.23 69.0939 89.9722
6387.08 66.3102 86.8262
6389.92 64.254 87.7025
6392.77 64.1855 83.1631
6395.61 68.1586 86.845
6398.46 67.5917 86.2514
6401.3 67.4391 86.2985
6404.14 64.5273 83.2181
6406.99 65.7076 87.3502
6409.83 63.4466 84.0122
6412.67 68.0696 89.5169
6415.52 67.1429 85.1831
6418.36 61.7687 82.9499
6421.2 67.7105 86.6423
6424.05 68.3689 87.7741
6426.89 67.0778 86.7081
6429.73 66.2086 86.7813
6432.57 65.6205 85.0171
6435.42 64.6196 87.0091
6438.26 66.8169 88.7966
6441.1 64.2731 82.7293
6443.94 68.6193 85.3713
6446.79 66.3395 85.0102
6449.63 65.9204 84.025
6452.47 68.3423 86.1165
6455.31 68.4776 87.2137
6458.15 61.9981 82.2581
6460.99 64.1047 85.6625
6463.83 61.2264 81.332
6466.67 65.6896 82.6282
6469.51 65.6264 82.1128
6472.36 65.3626 83.1279
6475.2 65.0342 82.0565
6478.04 65.9232 82.1622
6480.88 68.5334 87.8597
6483.72 67.929 85.2198
6486.56 63.1249 79.0786
6489.4 62.498 76.7492
6492.23 60.035 80.0907
6495.07 62.667 78.1281
6497.91 68.2327 84.1202
6500.75 64.7507 80.6549
6503.59 66.3776 83.2516
6506.43 65.1054 82.05
6509.27 67.5233 84.2459
6512.11 66.4897 88.419
6514.95 65.5583 81.9315
6517.78 62.229 86.569
6520.62 60.9769 83.1313
6523.46 59.8809 81.1759
6526.3 56.718 77.4754
6529.13 56.7491 75.6267
6531.97 60.5982 81.9058
6534.81 63.0171 83.1268
6537.65 59.3799 80.7706
6540.48 60.5951 83.4058
6543.32 58.4532 81.5596
6546.16 59.5973 78.9439
6548.99 58.8277 79.2182
6551.83 52.5209 77.2317
6554.67 52.1182 73.7245
6557.5 49.0738 65.5893
6560.34 53.6288 69.4858
6563.17 54.293 72.6599
6566.01 55.0352 76.3275
6568.85 54.5588 76.1529
6571.68 54.5008 78.21
6574.52 60.548 82.0025
6577.35 57.5623 79.8895
6580.19 57.232 80.7359
6583.02 61.4765 80.2935
6585.86 56.3711 75.4355
6588.69 57.2224 81.2209
6591.52 59.0744 80.0188
6594.36 60.3838 82.4412
6597.19 59.7122 79.5587
6600.03 62.5129 84.4438
6602.86 61.4394 81.9603
6605.69 59.965 79.3961
6608.53 60.2875 82.6521
6611.36 63.9015 83.7374
6614.19 60.1884 81.7046
6617.03 61.9321 82.1319
6619.86 60.774 81.9441
6622.69 59.818 80.3976
6625.52 61.8861 82.7723
6628.36 60.8794 84.7984
6631.19 62.1845 81.4016
6634.02 62.309 80.8351
6636.85 60.2208 79.0438
6639.68 61.0817 80.7529
6642.52 59.0321 78.3994
6645.35 61.6366 82.8101
6648.18 60.8907 81.5697
6651.01 62.16 81.0547
6653.84 60.6758 77.6044
6656.67 62.9458 82.6112
6659.5 58.7179 78.6848
6662.33 59.7981 81.1251
6665.16 61.0612 79.1215
6667.99 58.2965 75.7104
6670.82 61.1752 81.8302
6673.65 58.849 78.0385
6676.48 61.434 80.2616
6679.31 59.8795 78.044
6682.14 60.0694 79.8738
6684.97 59.0379 80.3271
6687.8 63.026 81.9062
6690.63 63.4535 83.0615
6693.46 62.5119 81.5424
6696.29 62.6018 83.9326
6699.12 63.4756 82.8716
6701.94 62.7093 82.9707
6704.77 60.9691 78.2179
6707.6 59.6863 79.4199
6710.43 60.3458 77.5359
6713.26 59.1345 77.7427
6716.08 62.325 79.7652
6718.91 64.0057 81.9843
6721.74 63.8153 81.6537
6724.57 59.242 77.7907
6727.39 62.2243 80.7668
6730.22 64.2755 83.6612
6733.05 60.8052 81.8371
6735.87 61.1308 79.5829
6738.7 59.2668 76.7419
6741.52 60.1541 77.6701
6744.35 58.8643 77.4749
6747.18 59.2137 76.9273
6750 64.4199 84.0031
6752.83 63.0519 82.4071
6755.65 62.8862 81.2208
6758.48 64.7959 83.9742
6761.3 62.7302 79.6315
6764.13 62.0761 80.9714
6766.95 60.2451 80.1485
6769.78 56.2976 75.7865
6772.6 61.0021 78.4268
6775.43 61.0887 77.2472
6778.25 63.1592 82.5337
6781.07 61.9161 79.504
6783.9 58.7977 76.005
6786.72 61.8306 80.857
6789.55 60.7193 78.8077
6792.37 59.6587 76.4282
6795.19 59.3658 78.0621
6798.01 60.559 76.7833
6800.84 59.7546 75.7759
6803.66 61.9299 78.2235
6806.48 60.8871 77.265
6809.3 58.2704 73.7586
6812.13 63.2747 79.6594
6814.95 60.7239 76.2054
6817.77 61.6118 78.0297
6820.59 60.7282 78.4198
6823.41 56.9373 72.7678
6826.24 58.2062 72.5112
6829.06 60.3821 77.0979
6831.88 52.2316 71.2945
6834.7 61.2623 77.7436
6837.52 57.9381 72.3084
6840.34 57.3797 72.9298
6843.16 55.5477 69.4306
6845.98 59.9913 76.3031
6848.8 57.1875 73.1789
6851.62 57.0414 74.6646
6854.44 54.3182 70.7258
6857.26 56.3351 72.8871
6860.08 57.902 72.7609
6862.9 53.5996 67.8536
6865.72 47.0147 58.8279
6868.54 45.2846 56.7466
6871.35 47.2533 59.8151
6874.17 46.9216 59.1871
6876.99 49.5365 63.6952
6879.81 53.5299 65.9674
6882.63 51.865 64.9537
6885.45 52.5379 65.3176
6888.26 51.6709 63.3847
6891.08 48.4848 60.7306
6893.9 48.6593 63.19
6896.72 51.7726 66.0323
6899.53 51.2318 64.421
6902.35 51.5707 67.5444
6905.17 55.824 68.8293
6907.98 52.9025 65.2587
6910.8 54.3285 67.3788
6913.61 53.9866 69.0954
6916.43 56.9633 69.2486
6919.25 56.1241 69.9809
6922.06 58.7455 72.3147
6924.88 53.8106 66.504
6927.69 57.1235 71.1606
6930.51 55.6209 67.728
6933.32 57.6289 72.73
6936.14 54.5221 71.622
6938.95 57.9367 71.2759
6941.77 53.9415 70.8007
6944.58 56.2922 69.8203
6947.4 54.0943 71.1914
6950.21 58.5586 72.5084
6953.02 61.1601 78.0108
6955.84 57.5273 73.9816
6958.65 60.2642 74.05
6961.46 61.7407 76.1451
6964.28 57.7837 72.3103
6967.09 55.7928 69.8722
6969.9 56.9021 70.6501
6972.72 53.885 67.8517
6975.53 55.3063 68.8231
6978.34 59.3272 71.2216
6981.15 58.7574 71.6471
6983.97 54.4485 67.5256
6986.78 57.9377 70.8947
6989.59 57.4676 70.5797
6992.4 55.7552 69.131
6995.21 55.7047 71.4636
6998.02 54.1105 66.2525
7000.83 59.0153 71.2379
7003.64 51.4083 65.0461
7006.46 56.5457 69.2153
7009.27 57.5197 70.5319
7012.08 58.0956 71.7487
7014.89 54.975 69.6064
7017.7 58.527 69.402
7020.51 57.456 69.2289
7023.32 58.5701 71.0442
7026.12 54.3642 66.1097
7028.93 55.8934 68.2196
7031.74 59.1731 71.749
7034.55 56.3966 67.7351
7037.36 58.6273 72.5418
7040.17 57.7192 70.2658
7042.98 58.0323 69.6017
7045.79 61.5217 73.8376
7048.59 52.136 66.0864
7051.4 59.4295 70.7118
7054.21 58.9291 69.2137
7057.02 56.2991 69.087
7059.82 58.8458 70.8605
7062.63 57.7243 69.1546
7065.44 57.9138 70.7263
7068.24 56.5153 68.2176
7071.05 57.8339 69.4395
7073.86 58.4514 69.4856
7076.66 57.8097 71.8673
7079.47 55.2117 66.1395
7082.28 57.7806 68.7051
7085.08 57.2524 67.9378
7087.89 57.2189 68.2928
7090.69 54.6598 65.5136
7093.5 56.3067 70.5453
7096.3 58.7152 70.2494
7099.11 57.1395 69.044
7101.91 60.3938 71.0686
7104.72 56.8852 66.5409
7107.52 57.9933 69.8785
7110.33 60.7333 71.8293
7113.13 53.9803 65.8174
7115.93 55.9214 65.713
7118.74 59.0984 69.1852
7121.54 60.3709 70.3381
7124.34 53.1883 63.9391
7127.15 61.0493 71.829
7129.95 56.8013 67.5173
7132.75 55.2552 67.6749
7135.55 55.3495 66.0305
7138.36 55.6224 66.8633
7141.16 55.5665 66.8893
7143.96 56.4941 66.5882
7146.76 56.1951 67.2722
7149.56 58.7008 68.1428
7152.37 55.9271 64.5863
7155.17 59.0975 67.9472
7157.97 55.5662 64.0543
7160.77 60.4767 72.4551
7163.57 54.1013 64.3526
7166.37 53.7836 64.1729
7169.17 56.0006 67.1709
7171.97 55.1311 64.563
7174.77 53.3787 61.4701
7177.57 52.6888 61.1273
7180.37 51.4866 57.6159
7183.17 52.5141 61.7884
7185.97 54.5987 62.8657
7188.77 55.8443 65.1795
7191.57 52.8134 61.6735
7194.37 56.8561 65.7846
7197.16 49.2099 60.4504
7199.96 52.5844 62.0715
7202.76 51.6956 60.7836
7205.56 53.554 62.3781
7208.36 55.6973 65.9531
7211.15 53.315 63.8199
7213.95 51.8976 61.7673
7216.75 57.5271 65.9047
7219.55 55.6813 66.9123
7222.34 58.1034 66.6217
7225.14 56.9938 66.3061
7227.94 54.3591 63.8779
7230.73 53.3523 63.6717
7233.53 55.5093 64.9242
7236.33 55.1546 63.2386
7239.12 51.9701 60.1995
7241.92 52.569 60.7364
7244.71 55.612 63.2857
7247.51 52.5117 59.9633
7250.3 47.0163 58.149
7253.1 52.105 59.4248
7255.89 55.9666 63.946
7258.69 53.3545 62.6577
7261.48 50.1345 60.0399
7264.28 55.6495 63.1261
7267.07 56.1599 63.8371
7269.86 53.5913 60.458
7272.66 46.5379 59.9845
7275.45 48.4101 62.8815
7278.24 54.5477 62.1185
7281.04 51.5402 59.4009
7283.83 50.9688 63.6278
7286.62 48.4388 53.7283
7289.41 49.0454 58.9654
7292.21 51.5011 58.1268
7295 50.756 62.3936
7297.79 51.8377 58.3708
7300.58 55.2946 61.7673
7303.37 54.8557 61.4521
7306.16 53.1472 60.4916
7308.96 56.2911 62.7113
7311.75 48.5117 60.4176
7314.54 58.9258 64.6957
7317.33 58.7313 65.2607
7320.12 55.1154 68.2971
7322.91 57.2313 63.6078
7325.7 53.7833 60.9115
7328.49 58.1582 65.1017
7331.28 57.366 62.5747
7334.07 57.393 62.5341
7336.86 58.2349 63.3483
7339.65 55.521 60.4459
7342.43 49.85 62.2159
7345.22 56.7129 65.5065
7348.01 53.3571 62.8302
7350.8 57.4068 63.4305
7353.59 56.7121 62.0835
7356.38 56.8367 61.3249
7359.16 54.6193 61.1671
7361.95 50.2994 56.3849
7364.74 56.3606 61.3708
7367.53 52.1177 59.2769
7370.31 56.486 61.0844
7373.1 56.4587 62.6751
7375.89 56.0084 61.7561
7378.67 56.0604 61.32
7381.46 54.6562 60.1343
7384.24 55.7711 60.0658
7387.03 50.7736 56.8209
7389.82 55.1936 60.9763
7392.6 53.7904 58.3798
7395.39 56.8766 60.1637
7398.17 54.8478 58.8176
7400.96 55.2343 60.8682
7403.74 48.5538 57.3506
7406.53 57.3907 63.7121
7409.31 52.5876 60.4417
7412.09 55.0307 59.6231
7414.88 55.8483 59.5162
7417.66 52.6519 56.2128
7420.45 55.0064 59.6505
7423.23 56.2325 62.4891
7426.01 56.015 61.5962
7428.79 53.4132 57.6011
7431.58 60.3343 64.9729
7434.36 54.3506 64.5954
7437.14 46.5679 57.955
7439.92 49.4448 57.0642
7442.71 51.4062 59.5193
7445.49 51.0358 60.7568
7448.27 51.1567 56.7626
7451.05 50.3097 59.1568
7453.83 55.9779 62.1753
7456.61 50.9325 58.1754
7459.39 48.6067 59.0578
7462.17 54.6432 62.4762
7464.95 54.9997 63.5582
7467.73 52.8442 62.1202
7470.51 51.0758 57.3336
7473.29 54.7189 64.0764
7476.07 53.1975 59.816
7478.85 49.4109 54.9847
7481.63 54.8883 64.6281
7484.41 51.8249 61.4354
7487.19 53.9382 62.9654
7489.97 53.7593 60.6338
7492.75 49.4528 60.7275
7495.53 51.6074 58.3076
7498.3 53.4944 60.1658
7501.08 48.7812 59.0608
7503.86 52.5491 59.887
7506.64 50.8946 55.1933
7509.41 48.4799 54.4455
7512.19 51.8561 57.2099
7514.97 52.2682 57.6844
7517.74 46.2496 53.6154
7520.52 52.1069 58.3076
7523.3 47.8927 56.7555
7526.07 49.72 57.7193
7528.85 48.689 53.7179
7531.62 49.1152 59.2457
7534.4 47.125 56.3673
7537.17 51.8142 58.7975
7539.95 49.5078 55.1544
7542.72 49.8193 56.9981
7545.5 50.7189 55.3417
7548.27 46.9299 52.1047
7551.05 49.0363 54.2776
7553.82 48.5113 52.1927
7556.59 48.7299 51.4136
7559.37 48.1679 53.227
7562.14 50.812 55.5242
7564.91 46.5968 51.7145
7567.69 46.6516 51.2932
7570.46 49.5844 54.6799
7573.23 47.4389 52.6998
7576.01 47.7684 54.8509
7578.78 48.9199 51.8242
7581.55 44.0007 48.9024
7584.32 46.2684 53.29
7587.09 43.5898 50.6673
7589.86 43.0522 47.0767
7592.64 31.3872 35.4574
7595.41 19.692 23.9072
7598.18 16.7545 19.9033
7600.95 12.7287 14.842
7603.72 14.4019 15.8237
7606.49 13.5971 14.5184
7609.26 18.2649 18.7304
7612.03 25.0966 27.7971
7614.8 29.6795 30.202
7617.57 32.0885 33.4901
7620.34 28.8593 32.6195
7623.1 25.2625 29.046
7625.87 24.7325 26.123
7628.64 25.3273 27.2826
7631.41 24.7084 26.9807
7634.18 28.5199 32.2818
7636.95 27.0675 29.9575
7639.71 30.2171 31.1273
7642.48 31.662 33.5846
7645.25 31.3411 31.4706
7648.01 35.4968 37.3345
7650.78 34.0084 36.6438
7653.55 36.6078 37.011
7656.31 36.5067 40.4051
7659.08 37.2277 37.75
7661.85 39.213 40.0897
7664.61 40.1005 42.9313
7667.38 42.5474 46.8681
7670.14 44.9235 49.81
7672.91 43.5169 46.232
7675.67 43.6744 45.0962
7678.44 44.1711 46.5253
7681.2 50.6602 52.643
7683.97 44.8787 46.3286
7686.73 46.4847 48.5368
7689.5 47.9883 50.8102
7692.26 45.7656 47.2412
7695.02 47.9387 50.7194
7697.79 48.001 47.9256
7700.55 49.4731 51.1096
7703.31 49.0675 50.1479
7706.07 49.9493 52.9426
7708.84 40.1005 45.8227
7711.6 47.3432 42.4836
7714.36 45.1811 47.2525
7717.12 45.9296 46.3835
7719.88 44.5203 51.4719
7722.65 42.771 51.1329
7725.41 50.3689 53.7542
7728.17 43.9276 53.2431
7730.93 47.648 50.6809
7733.69 50.9337 52.8872
7736.45 50.4656 52.2038
7739.21 48.2085 49.7544
7741.97 47.1986 47.8141
7744.73 46.9129 43.4336
7747.49 49.3007 45.9206
7750.25 50.8054 46.14
7753.01 50.1293 49.9284
7755.77 51.2453 54.9248
7758.53 50.7288 51.6883
7761.28 54.3693 55.4359
7764.04 46.1969 48.7625
7766.8 52.3715 52.6041
7769.56 47.1528 46.3302
7772.32 54.8094 54.6353
7775.07 52.3692 50.074
7777.83 49.8585 47.1435
7780.59 50.2823 48.7428
7783.34 46.2929 49.5296
7786.1 50.6121 50.3555
7788.86 53.9071 50.7094
7791.61 51.9451 50.9008
7794.37 45.0883 47.1461
7797.12 39.7578 46.5553
7799.88 51.614 51.8237
7802.63 45.793 43.9866
7805.39 50.4953 50.6271
7808.14 50.3592 47.8628
7810.9 53.1077 52.8402
7813.65 50.3205 48.0249
7816.41 51.0883 48.149
7819.16 49.9749 50.4635
7821.91 49.507 49.0983
7824.67 50.5709 49.1088
7827.42 49.414 49.0169
7830.17 43.5255 43.9576
7832.93 50.4416 50.0326
7835.68 47.5304 47.3598
7838.43 49.2664 45.6796
7841.18 50.4732 49.1638
7843.94 49.3728 47.7352
7846.69 47.0687 40.9532
7849.44 51.6274 46.2056
7852.19 41.9574 48.215
7854.94 43.1702 54.4793
7857.69 49.3277 50.1568
7860.44 52.9386 49.5121
7863.19 45.8839 45.7007
7865.94 48.1547 46.7901
7868.69 51.6407 49.4529
7871.44 48.0254 44.5271
7874.19 47.4089 43.1769
7876.94 51.5475 48.3544
7879.69 45.5835 43.549
7882.44 53.2347 49.4868
7885.19 44.3194 44.7856
7887.94 50.6342 45.1899
7890.69 40.2579 42.3112
7893.43 38.5782 42.8869
7896.18 47.4879 46.0603
7898.93 47.4437 44.8269
7901.68 43.1369 42.7246
7904.42 49.0119 45.3258
7907.17 47.4872 39.0196
7909.92 41.8292 40.3029
7912.66 49.3096 40.8509
7915.41 50.1737 46.2177
7918.16 49.0598 47.1858
7920.9 46.799 46.7379
7923.65 48.6544 43.5455
7926.39 44.751 42.4538
7929.14 46.6155 43.8995
7931.88 47.095 44.4948
7934.63 45.1476 42.9436
7937.37 49.0691 47.1294
7940.12 41.9685 42.3782
7942.86 50.6541 44.2309
7945.6 46.1497 40.385
7948.35 48.5727 44.4899
7951.09 46.5595 43.5955
7953.84 45.9813 46.1533
7956.58 49.978 44.4831
7959.32 50.3749 45.3067
7962.06 48.9112 41.4787
7964.81 47.6989 38.8833
7967.55 48.1194 50.099
7970.29 51.1123 48.1938
7973.03 47.2349 41.076
7975.77 51.8154 43.9672
7978.51 51.5951 45.3626
7981.25 51.8796 42.1644
7983.99 48.3593 41.0168
7986.74 51.1297 46.2626
7989.48 47.41 38.876
7992.22 47.5664 39.2164
7994.96 50.1784 44.9034
7997.69 49.2107 45.0371
8000.43 45.8857 43.2662
8003.17 46.4563 45.5557
8005.91 49.8103 45.8128
8008.65 50.3471 42.765
8011.39 51.0021 46.1169
8014.13 30.0624 29.8645
8016.87 32.0787 29.1073
8019.6 18.4184 26.925
8022.34 26.1714 23.7934
8025.08 47.1316 37.9859
8027.81 38.1838 36.0517
8030.55 44.6298 45.8548
8033.29 46.7361 41.5203
8036.02 42.9915 40.7295
8038.76 49.1777 42.3486
8041.5 44.1239 40.1841
8044.23 46.7123 39.3638
8046.97 48.7367 42.2159
8049.7 46.6061 40.1386
8052.44 49.2168 44.4156
8055.17 52.8412 43.9545
8057.91 47.6984 40.1753
8060.64 52.3387 42.3926
8063.38 51.7763 45.5395
8066.11 49.0582 41.8619
8068.84 46.1665 39.1391
8071.58 46.2977 41.6815
8074.31 46.9764 39.776
8077.04 48.4444 40.406
8079.78 46.6317 40.0807
8082.51 47.7902 40.169
8085.24 44.3338 37.4609
8087.97 46.0552 39.1815
8090.7 45.1298 39.7108
8093.44 46.7031 39.0076
8096.17 48.3743 39.2973
8098.9 44.6927 41.1861
8101.63 44.6549 36.0168
8104.36 43.3338 38.6874
8107.09 51.3688 42.7559
8109.82 46.4487 38.1061
8112.55 45.1906 37.1176
8115.28 47.5792 40.0418
8118.01 48.0245 38.1981
8120.74 50.6854 42.2253
8123.47 47.8646 38.3345
8126.2 46.5035 39.6645
8128.92 49.1431 43.2323
8131.65 46.2883 38.0124
8134.38 48.6916 40.9184
8137.11 43.7131 35.4208
8139.84 45.979 38.6482
8142.56 46.8817 38.8057
8145.29 46.6339 37.9097
8148.02 44.1367 38.4021
8150.74 45.3486 36.3685
8153.47 45.3045 34.8909
8156.2 45.5363 37.835
8158.92 43.6867 36.4238
8161.65 43.3068 34.9105
8164.37 44.5249 35.5199
8167.1 40.0566 31.0263
8169.82 45.2236 34.7961
8172.55 45.9887 34.7205
8175.27 50.4289 38.5893
8178 43.7836 35.4843
8180.72 43.7695 35.7783
8183.45 45.8983 33.3743
8186.17 45.3603 36.8288
8188.89 44.8673 34.9082
8191.62 43.9506 33.9383
8194.34 44.4274 33.7216
8197.06 47.9411 38.1706
8199.78 43.6584 32.6915
8202.51 49.1627 39.1496
8205.23 46.3171 36.9165
8207.95 48.7976 37.3854
8210.67 44.7749 36.3735
8213.39 45.3478 35.6226
8216.11 48.7036 37.843
8218.83 44.2398 37.1189
8221.55 45.5274 36.7726
8224.27 43.7372 33.2486
8226.99 41.9461 32.7576
8229.71 43.7668 35.3824
8232.43 45.77 35.1892
8235.15 46.6143 35.6439
8237.87 46.1191 35.2686
8240.59 45.9969 35.5093
8243.31 42.7015 32.4888
8246.03 44.8046 34.1074
8248.75 48.2218 37.4358
8251.46 48.2748 36.2433
8254.18 46.0234 36.0511
8256.9 39.9694 31.1369
8259.62 47.5223 34.7084
8262.33 45.1586 34.5839
8265.05 45.1751 36.6495
8267.77 44.2764 33.6848
8270.48 47.0949 34.3627
8273.2 44.0997 31.9673
8275.91 45.1071 32.0464
8278.63 38.2946 32.2313
8281.34 46.9216 33.3975
8284.06 43.4254 28.6652
8286.77 42.1116 34.0212
8289.49 45.2147 32.7535
8292.2 40.3648 33.8803
8294.92 36.3874 30.9259
8297.63 42.4905 28.0774
8300.34 42.9715 30.741
8303.06 43.1179 32.2584
8305.77 37.6979 33.8276
8308.48 40.3866 34.0993
8311.2 39.8214 32.1276
8313.91 40.7026 35.4754
8316.62 41.0874 32.0258
8319.33 42.4612 34.2003
8322.04 43.3765 34.0698
8324.75 40.7656 35.2435
8327.47 38.908 29.5371
8330.18 23.2163 17.5081
8332.89 24.3541 20.7388
8335.6 21.1444 18.5679
8338.31 45.3207 33.6861
8341.02 48.2456 29.5294
8343.73 41.8795 32.5974
8346.44 37.2102 36.1943
8349.15 40.544 32.9833
8351.85 38.6161 32.2435
8354.56 41.1784 31.7477
8357.27 36.0352 31.6609
8359.98 39.7579 26.6936
8362.69 45.5453 38.472
8365.39 41.1238 31.1467
8368.1 41.4821 33.4098
8370.81 43.5206 33.1534
8373.52 39.6317 30.9299
8376.22 41.6243 34.2727
8378.93 42.318 29.8572
8381.64 40.0384 33.3537
8384.34 43.5509 30.4603
8387.05 40.7892 28.9975
8389.75 45.5171 33.1045
8392.46 40.9602 33.5554
8395.16 45.9397 31.7153
8397.87 40.9715 27.766
8400.57 44.5705 29.8561
8403.28 39.6739 31.0163
8405.98 19.5717 18.4062
8408.68 23.0694 19.0947
8411.39 42.0804 31.2177
8414.09 42.3154 29.817
8416.79 45.8245 32.1653
8419.5 42.1108 35.0194
8422.2 42.1835 29.0142
8424.9 41.0369 30.0118
8427.6 38.1018 29.7323
8430.3 48.3345 29.4908
8433 37.8337 28.3633
8435.71 35.6782 29.5496
8438.41 41.8164 31.568
8441.11 39.3906 29.5139
8443.81 43.8265 32.7192
8446.51 42.7809 27.625
8449.21 40.5991 28.7002
8451.91 40.8435 27.8511
8454.61 40.676 32.0026
8457.31 41.8259 28.3856
8460.01 39.9465 27.203
8462.7 41.9484 24.3536
8465.4 40.8642 19.2881
8468.1 44.5797 28.9514
8470.8 37.4436 25.9736
8473.5 39.9995 29.219
8476.19 41.7808 27.8671
8478.89 43.7682 31.0751
8481.59 45.7242 33.5166
8484.28 44.1241 30.6449
8486.98 42.6785 26.8162
8489.68 42.7263 27.4231
8492.37 39.2447 24.5812
8495.07 38.8862 25.1659
8497.76 36.737 24.2765
8500.46 36.809 26.0214
8503.15 41.5474 26.1522
8505.85 41.0576 25.3317
8508.54 41.3953 26.4765
8511.24 39.761 31.1332
8513.93 40.7296 26.9514
8516.62 44.1733 28.2832
8519.32 41.4028 27.4116
8522.01 42.4014 28.4668
8524.7 39.3896 27.2599
8527.4 42.3797 29.539
8530.09 40.0519 26.5431
8532.78 37.6208 25.745
8535.47 35.5222 20.9809
8538.16 30.5136 17.7806
8540.85 31.0041 23.3931
8543.54 36.3552 23.0348
8546.24 37.847 22.668
8548.93 42.303 27.4673
8551.62 40.2245 25.8207
8554.31 42.573 26.0843
8557 44.4131 29.2218
8559.69 40.8089 26.5181
8562.37 43.715 28.5973
8565.06 40.7118 27.1689
8567.75 41.1734 25.2347
8570.44 40.9997 24.2547
8573.13 44.7664 27.698
8575.82 43.6615 25.144
8578.5 38.5587 25.0042
8581.19 43.5952 27.0838
8583.88 41.7796 25.6212
8586.57 43.8092 26.868
8589.25 46.5792 30.6303
8591.94 42.9177 29.1656
8594.63 37.9376 24.8054
8597.31 44.0883 27.9081
8600 41.9474 25.1337
8602.68 43.3836 25.8295
8605.37 41.1906 25.961
8608.05 44.4931 26.9569
8610.74 38.4172 25.9861
8613.42 40.1963 22.144
8616.1 40.3181 24.9176
8618.79 42.6976 25.7751
8621.47 43.475 24.3205
8624.16 42.6861 25.981
8626.84 37.6046 27.3342
8629.52 44.5622 25.1936
8632.2 41.3247 19.3888
8634.89 40.758 21.4391
8637.57 43.6677 24.9634
8640.25 45.3134 25.875
8642.93 40.1466 24.3274
8645.61 41.0401 18.874
8648.29 42.7383 21.5342
8650.97 44.9933 26.8536
8653.65 41.3645 22.7398
8656.33 39.8505 19.7542
8659.01 29.8853 16.4062
8661.69 30.9303 17.7784
8664.37 35.8009 15.2079
8667.05 40.3613 19.2223
8669.73 38.2625 18.04
8672.41 40.6632 22.172
8675.09 43.916 25.4927
8677.76 39.6519 17.6775
8680.44 41.3774 19.8473
8683.12 43.6124 23.6772
8685.8 43.2036 22.1832
8688.47 42.6546 23.8671
8691.15 41.4652 20.1759
8693.83 45.431 22.259
8696.5 41.8053 23.1942
8699.18 46.1256 21.7184
8701.85 38.2763 20.3757
8704.53 42.1741 20.6263
8707.2 45.7065 22.627
8709.88 49.0482 22.3638
8712.55 41.9874 20.5364
8715.23 43.1644 21.1789
8717.9 44.3111 24.2996
8720.58 45.0483 21.24
8723.25 41.7916 20.3536
8725.92 42.9723 21.7679
8728.6 39.9162 18.5426
8731.27 43.8395 21.3237
8733.94 42.6149 24.0207
8736.61 39.8607 18.2543
8739.28 42.598 19.5538
8741.96 42.2676 20.0673
8744.63 46.1197 23.9504
8747.3 41.0638 22.4201
8749.97 41.0042 21.0045
8752.64 40.749 19.4896
8755.31 40.6142 17.89
8757.98 41.3447 16.8563
8760.65 41.8705 19.1586
8763.32 43.7688 20.9253
8765.99 43.7855 11.1672
8768.66 41.983 17.6629
8771.33 41.6682 17.0929
8773.99 35.7669 14.3778
8776.66 41.1731 23.356
8779.33 41.7959 19.1061
8782 43.9113 19.6431
8784.66 32.5312 15.2185
8787.33 37.13 15.1274
8790 40.8959 16.9509
8792.66 39.8746 20.5728
8795.33 39.3972 15.0267
8798 38.4059 17.0815
8800.66 45.6517 22.0254
8803.33 37.025 18.2707
8805.99 37.2274 16.6324
8808.66 37.042 16.3238
8811.32 40.4895 20.2544
8813.99 40.9454 16.6284
8816.65 42.6716 17.2781
8819.31 44.2371 18.0604
8821.98 41.4419 16.6294
8824.64 40.162 14.4582
8827.3 44.4911 14.9154
8829.97 35.2194 13.5273
8832.63 31.1227 25.2712
8835.29 40.292 22.0383
8837.95 36.115 10.1443
8840.61 44.9745 17.9433
8843.28 40.9834 19.2999
8845.94 43.1609 18.2212
8848.6 41.416 19.7722
8851.26 39.8111 19.2356
8853.92 41.8358 10.9795
8856.58 46.3741 18.0625
8859.24 40.964 17.284
8861.9 40.7824 15.4986
8864.56 40.5603 19.9401
8867.21 41.2258 14.2574
8869.87 38.0223 15.9432
8872.53 43.8152 14.6654
8875.19 40.1507 15.789
8877.85 42.8118 13.7497
8880.5 41.2361 12.6258
8883.16 44.3768 15.6362
8885.82 50.5962 23.4875
8888.47 45.6243 20.3455
8891.13 49.4162 28.1274
8893.79 42.8613 5.29757
8896.44 41.9267 2.10361
8899.1 46.6285 13.1152
8901.75 43.0928 18.9249
8904.41 48.673 21.5837
8907.06 44.8773 13.5017
8909.72 43.1282 10.419
8912.37 40.9838 7.02623
8915.03 39.4985 2.49259
8917.68 43.3646 19.7602
8920.33 40.7676 19.0893
8922.98 38.8144 19.9178
8925.64 38.9163 -1.17881
8928.29 33.4523 -24.0337
8930.94 39.0379 -13.037
8933.59 37.7601 3.46901
8936.25 41.1702 13.1822
8938.9 41.1613 10.3945
8941.55 43.6996 16.5458
8944.2 35.9462 18.3562
8946.85 37.4402 15.6755
8949.5 35.3151 5.70783
8952.15 40.4164 6.91376
8954.8 30.6045 9.6968
8957.45 40.5322 22.076
8960.1 36.3282 19.7271
8962.75 33.379 11.7711
8965.39 34.3678 -3.57441
8968.04 30.8784 -13.9978
8970.69 38.1738 5.02636
8973.34 33.9341 9.46447
8975.99 36.2334 13.487
8978.63 37.0371 11.9864
8981.28 36.7826 15.7375
8983.93 33.4186 12.0134
8986.57 36.8267 17.473
8989.22 37.0511 22.6905
8991.86 31.8445 12.2984
8994.51 35.3923 13.1426
8997.15 35.1775 9.19963
8999.8 36.0668 15.3568
9002.44 43.3634 24.3411
9005.09 30.4305 22.6722
9007.73 35.5013 6.11315
9010.38 36.8466 -0.897861
9013.02 35.0723 5.69651
9015.66 38.227 14.9106
9018.3 36.5216 17.9391
9020.95 38.4258 14.5044
9023.59 37.9116 16
9026.23 35.6192 13.1044
9028.87 40.6979 18.3483
9031.51 41.1049 16.5821
9034.16 40.8532 17.6612
9036.8 41.2424 17.5878
9039.44 39.6977 15.4915
9042.08 36.9877 17.3159
9044.72 35.9285 12.7939
9047.36 42.8094 15.9186
9050 37.7785 20.2298
9052.64 36.7983 12.3641
9055.27 36.9153 11.2587
9057.91 37.6568 5.06608
9060.55 35.2363 6.84751
9063.19 36.6005 13.1384
9065.83 39.8508 16.0945
9068.46 44.0837 17.1961
9071.1 48.2145 21.1929
