wavelength spectrum_sum 3smoothed_sum spectrum_optimal 3smoothed_optimal
3514.02 10.3623 18.5294 20.8532 20.3075
3516.94 45.2258 32.2426 40.0694 26.7239
3519.85 41.1397 42.8794 19.2492 30.5049
3522.76 42.2727 45.5904 32.1961 30.3335
3525.67 53.3588 55.2101 39.5551 37.1679
3528.59 69.9986 59.6338 39.7524 36.6247
3531.5 55.544 60.5505 30.5666 36.7527
3534.41 56.1089 56.08 39.9391 34.9331
3537.32 56.5873 51.0138 34.2935 33.5489
3540.24 40.3453 49.902 26.4142 36.8956
3543.15 52.7736 48.9187 49.9791 41.5096
3546.06 53.6371 61.3038 48.1354 55.3806
3548.97 77.5008 58.0271 68.0272 51.8811
3551.89 42.9432 59.1133 39.4807 50.8459
3554.8 56.896 52.4322 45.0298 49.1703
3557.71 57.4575 62.189 63.0005 58.0794
3560.62 72.2134 61.2365 66.208 53.9689
3563.54 54.0385 59.312 32.6982 49.4475
3566.45 51.6842 53.9579 49.4363 40.7826
3569.36 56.1509 46.9407 40.2132 45.4648
3572.28 32.987 47.7024 46.745 42.4556
3575.19 53.9694 41.2523 40.4086 47.6104
3578.1 36.8005 46.341 55.6777 44.4928
3581.01 48.2531 44.8606 37.3921 47.3438
3583.93 49.5283 46.1598 48.9615 41.4841
3586.84 40.698 51.6045 38.0987 48.0574
3589.75 64.5872 53.7228 57.1119 47.1945
3592.66 55.8833 65.301 46.373 57.187
3595.58 75.4324 63.9701 68.0761 52.7528
3598.49 60.5944 70.1305 43.8092 60.9025
3601.4 74.3647 67.7737 70.8223 58.0846
3604.31 68.3621 70.4359 59.6224 61.051
3607.23 68.581 71.5301 52.7083 58.6903
3610.14 77.6472 70.0217 63.7404 59.1221
3613.05 63.8367 67.0373 60.9177 55.9293
3615.96 59.628 60.7209 43.1297 53.5169
3618.88 58.6981 67.3345 56.5031 54.5835
3621.79 83.6775 75.1755 64.1177 66.7036
3624.7 83.151 81.4089 79.4898 64.1695
3627.62 77.3983 84.9494 48.9011 71.0748
3630.53 94.299 85.117 84.8334 71.6324
3633.44 83.6536 87.9886 81.1628 79.863
3636.35 86.0132 87.5455 73.5929 77.4017
3639.27 92.9697 86.7429 77.4493 75.7474
3642.18 81.2458 83.4512 76.1999 73.6517
3645.09 76.1381 85.1615 67.3059 76.453
3648 98.1004 88.8631 85.8532 81.2754
3650.92 92.3508 100.563 90.667 91.6962
3653.83 111.239 101.387 98.5682 89.205
3656.74 100.57 100.054 78.3796 90.9175
3659.65 88.3539 103.835 95.8047 90.0185
3662.57 122.58 105.1 95.8713 93.4579
3665.48 104.367 117.422 88.6976 99.5383
3668.39 125.32 112.963 114.046 101.469
3671.3 109.203 118.007 101.663 111.929
3674.22 119.498 110.825 120.079 104.131
3677.13 103.774 109.663 90.6513 101.901
3680.04 105.717 106.177 94.9715 93.4095
3682.95 109.039 103.808 94.6057 87.4449
3685.87 96.6668 104.068 72.7574 88.5337
3688.78 106.496 114.134 98.238 92.0748
3691.69 139.239 130.049 105.229 107.591
3694.6 144.412 138.195 119.306 111.484
3697.52 130.934 134.337 109.918 107.069
3700.43 127.663 127.883 91.9823 104.1
3703.34 125.05 123.22 110.399 98.4617
3706.25 116.947 127 93.0036 106.82
3709.17 139.004 127.015 117.057 105.993
3712.08 125.093 129.2 107.918 107.19
3714.99 123.504 120.813 96.5959 97.5291
3717.9 113.842 118.525 88.0739 93.3458
3720.82 118.228 122.163 95.3678 100.37
3723.73 134.419 128.436 117.669 115.249
3726.64 132.66 134.123 132.71 122.739
3729.55 135.29 118.941 117.837 113.394
3732.47 88.8739 110.056 89.6358 101.621
3735.38 106.003 100.02 97.3892 104.276
3738.29 105.184 115.687 125.802 117.443
3741.2 135.875 117.347 129.138 126.044
3744.11 110.982 118.156 123.191 124.355
3747.03 107.61 109.629 120.737 108.998
3749.94 110.295 116.785 83.0658 107.4
3752.85 132.451 130.445 118.398 110.231
3755.76 148.589 133.116 129.229 117.865
3758.68 118.309 137.421 105.966 117.326
3761.59 145.364 136.076 116.782 115.822
3764.5 144.554 149.954 124.717 123.55
3767.41 159.943 151.582 129.152 133.441
3770.33 150.247 157.726 146.453 144.478
3773.24 162.987 166.339 157.828 154.296
3776.15 185.781 179.71 158.609 163.511
3779.06 190.361 188.464 174.098 171.053
3781.97 189.251 188.526 180.453 180.794
3784.89 185.966 176.708 187.832 172.981
3787.8 154.907 170.136 150.659 161.036
3790.71 169.536 162.425 144.616 146.091
3793.62 162.832 164.927 142.999 155.132
3796.54 162.414 167.948 177.782 167.741
3799.45 178.598 173.173 182.442 175.53
3802.36 178.506 181.092 166.367 176.074
3805.27 186.173 177.789 179.413 165.248
3808.18 168.688 175.775 149.964 158.182
3811.1 172.464 157.467 145.169 136.214
3814.01 131.249 153.864 113.509 138.513
3816.92 157.879 150.43 156.862 148.292
3819.83 162.161 153.603 174.505 148.576
3822.74 140.769 138.254 114.36 138.254
3825.66 111.832 121.807 125.898 117.276
3828.57 112.82 112.979 111.571 115.183
3831.48 114.285 108.077 108.078 104.943
3834.39 97.1271 111.682 95.1785 99.5329
3837.3 123.635 120.951 95.342 114.194
3840.22 142.09 145.365 152.06 131.096
3843.13 170.369 150.392 145.884 144.35
3846.04 138.716 162.933 135.107 144.14
3848.95 179.715 153.226 151.428 143.427
3851.86 141.247 149.641 143.745 137.547
3854.78 127.961 141.663 117.467 138.573
3857.69 155.781 157.254 154.508 145.657
3860.6 188.02 171.536 164.996 163.144
3863.51 170.808 172.051 169.929 161.828
3866.42 157.324 156.731 150.559 150.359
3869.34 142.06 143.942 130.589 137.057
3872.25 132.442 156.571 130.025 148.833
3875.16 195.212 164.584 185.884 159.242
3878.07 166.097 173.315 161.816 170.711
3880.98 158.635 163.592 164.431 165.191
3883.89 166.043 166.536 169.327 168.816
3886.81 174.929 191.647 172.691 177.951
3889.72 233.969 217.153 191.834 194.085
3892.63 242.561 231.888 217.73 204.724
3895.54 219.132 228.653 204.608 204.35
3898.45 224.265 227.521 190.714 205.051
3901.36 239.166 239.126 219.833 217.392
3904.28 253.948 239.702 241.63 226.234
3907.19 225.992 250.363 217.239 235.928
3910.1 271.15 249.663 248.914 239.714
3913.01 251.848 253.541 252.988 247.833
3915.92 237.624 248.378 241.595 243.156
3918.83 255.662 240.833 234.883 236.613
3921.75 229.214 232.982 233.361 222.844
3924.66 214.068 205.485 200.287 196.829
3927.57 173.172 180.082 156.839 169.016
3930.48 153.006 148.675 149.924 138.067
3933.39 119.846 139.642 107.437 128.598
3936.3 146.075 155.573 128.433 132.097
3939.21 200.798 190.648 160.422 165.358
3942.13 225.072 211.783 207.22 191.524
3945.04 209.48 220.249 206.931 213.301
3947.95 226.195 234.295 225.753 222.685
3950.86 267.211 256.69 235.371 241.696
3953.77 276.663 273.989 263.965 248.73
3956.68 278.092 272.917 246.854 250.95
3959.59 263.997 256.656 242.032 237.873
3962.5 227.88 231.563 224.733 214.898
3965.42 202.812 209.42 177.929 196.518
3968.33 197.569 197.634 186.893 183.542
3971.24 192.521 214.581 185.804 206.531
3974.15 253.653 231.83 246.897 224.22
3977.06 249.317 267.011 239.958 253.667
3979.97 298.065 293.374 274.146 275.384
3982.88 332.742 331.36 312.049 314.535
3985.79 363.274 362.865 357.408 337.485
3988.71 392.58 384.216 342.996 357.136
3991.62 396.793 392.117 371.003 352.227
3994.53 386.977 391.868 342.682 351.871
3997.44 391.834 414.769 341.927 367.923
4000.35 465.496 418.902 419.158 376.735
4003.26 399.376 435.727 369.121 405.849
4006.17 442.309 429.776 429.267 401.456
4009.08 447.643 455.597 405.979 431.956
4011.99 476.839 458.988 460.622 431.992
4014.9 452.482 469.377 429.375 452.85
4017.81 478.81 466.158 468.554 451.973
4020.73 467.181 469.256 457.99 453.03
4023.64 461.777 454.168 432.547 434.966
4026.55 433.546 454.55 414.362 424.637
4029.46 468.327 466.014 427 447.044
4032.37 496.17 477.556 499.768 472.894
4035.28 468.171 485.472 491.912 486.023
4038.19 492.076 470.3 466.389 476.026
4041.1 450.652 467.381 469.777 464.55
4044.01 459.415 455.579 457.484 455.87
4046.92 456.67 458.211 440.348 444.859
4049.83 458.547 477.245 436.744 460.651
4052.74 516.518 479.613 504.862 464.859
4055.65 463.774 469.012 452.973 456.051
4058.56 426.742 460.203 410.318 447.721
4061.48 490.091 453.743 479.872 441.87
4064.39 444.395 463.534 435.419 450.108
4067.3 456.116 467.085 435.032 454.543
4070.21 500.744 475.191 493.178 464.971
4073.12 468.713 489.071 466.704 479.692
4076.03 497.756 481.519 479.193 477.229
4078.94 478.089 506.796 485.79 492.356
4081.85 544.542 518.157 512.086 504.984
4084.76 531.839 543.132 517.076 525.205
4087.67 553.014 546.809 546.452 528.039
4090.58 555.574 562.92 520.589 535.832
4093.49 580.171 540.277 540.454 509.648
4096.4 485.087 532.762 467.901 504.264
4099.31 533.028 507.194 504.438 487.955
4102.22 503.466 532.181 491.527 513.474
4105.13 560.05 527.971 544.459 517.14
4108.04 520.396 560.171 515.433 552.803
4110.95 600.067 558.066 598.518 547.99
4113.86 553.734 594.944 530.02 585.323
4116.77 631.029 590.509 627.431 567.758
4119.68 586.762 601.558 545.822 576.892
4122.59 586.884 587.536 557.422 556.704
4125.5 588.962 577.217 566.867 547.051
4128.41 555.805 576.502 516.865 556.822
4131.32 584.74 586.644 586.734 569.995
4134.23 619.388 613.244 606.385 604.154
4137.14 635.604 626.363 619.342 607.457
4140.05 624.096 593.877 596.644 580.887
4142.96 521.932 587.51 526.675 582.293
4145.87 616.502 583.47 623.561 588.942
4148.78 611.977 613.298 616.591 607.351
4151.69 611.415 615.014 581.902 610.024
4154.6 621.65 619.06 631.578 611.169
4157.51 624.114 617.769 620.028 624.655
4160.42 607.543 613.859 622.359 619.506
4163.33 609.92 617.901 616.13 629.499
4166.24 636.241 621.798 650.007 632.1
4169.15 619.234 625.596 630.163 630.435
4172.06 621.313 635.586 611.136 641.165
4174.96 666.212 638.466 682.197 638.944
4177.87 627.873 642.608 623.5 641.425
4180.78 633.739 629.505 618.578 627.048
4183.69 626.902 641.103 639.066 647.301
4186.6 662.667 616.833 684.259 628.543
4189.51 560.931 631.654 562.304 641.185
4192.42 671.365 614.485 676.993 608.136
4195.33 611.158 629.838 585.112 628.865
4198.24 606.99 609.538 624.491 612.913
4201.15 610.467 624.647 629.137 636.396
4204.06 656.482 644.17 655.56 643.382
4206.97 665.562 660.118 645.448 636.962
4209.88 658.31 670.133 609.878 648.03
4212.79 686.526 669.946 688.764 661.292
4215.69 665.001 681.792 685.235 686.533
4218.6 693.848 669.639 685.599 678.02
4221.51 650.069 674.73 663.226 676.872
4224.42 680.273 668.246 681.791 673.631
4227.33 674.396 668.598 675.877 675.968
4230.24 651.126 674.538 670.237 686.154
4233.15 698.093 669.221 712.348 685.714
4236.06 658.444 685.491 674.558 701.198
4238.97 699.935 692.621 716.688 705.118
4241.87 719.483 684.867 724.107 688.097
4244.78 635.184 674.266 623.495 675.019
4247.69 668.131 652.503 677.454 654.439
4250.6 654.195 668.094 662.368 677.337
4253.51 681.957 669.513 692.189 688.635
4256.42 672.387 684.119 711.348 711.747
4259.33 698.014 692.539 731.706 720.67
4262.23 707.215 695.51 718.956 700.949
4265.14 681.301 665.733 652.184 660.506
4268.05 608.684 645.942 610.378 643.279
4270.96 647.841 622.232 667.276 646.073
4273.87 610.17 627.389 660.565 664.909
4276.78 624.155 624.127 666.885 673.572
4279.68 638.057 633.648 693.268 680.332
4282.59 638.733 637.792 680.844 687.609
4285.5 636.585 621.276 688.715 671.049
4288.41 588.51 607.279 643.588 665.821
4291.32 596.742 596.375 665.16 660.415
4294.23 603.872 576.548 672.499 630.307
4297.13 529.031 551.94 553.262 593.289
4300.04 522.918 529.461 554.107 566.617
4302.95 536.434 503.815 592.483 541.194
4305.86 452.093 499.133 476.99 540.514
4308.77 508.871 502.323 552.069 542.211
4311.67 546.005 565.02 597.574 616.875
4314.58 640.183 631.304 700.981 682.427
4317.49 707.724 659.844 748.726 713.046
4320.4 631.623 662.053 689.429 699.129
4323.3 646.812 655.6 659.233 703.041
4326.21 688.363 687.747 760.461 741.244
4329.12 728.065 729.843 804.039 797.471
4332.03 773.101 742.96 827.913 809.821
4334.94 727.715 739.232 797.51 796.868
4337.84 716.879 723.458 765.179 798.111
4340.75 725.779 743.768 831.644 810.751
4343.66 788.646 767.854 835.43 844.792
4346.57 789.139 774.897 867.301 836.31
4349.47 746.907 771.538 806.199 836.974
4352.38 778.569 775.033 837.423 834.609
4355.29 799.623 793.637 860.205 867.475
4358.2 802.72 814.776 904.798 888.203
4361.1 841.984 813.19 899.607 893.89
4364.01 794.865 823.259 877.264 898.321
4366.92 832.928 810.596 918.09 893.31
4369.82 803.996 803.716 884.577 889.086
4372.73 774.226 781.01 864.592 869.588
4375.64 764.807 784.214 859.595 875.495
4378.55 813.609 760.314 902.297 838.364
4381.45 702.524 774.267 753.198 848.222
4384.36 806.668 742.952 889.171 816.863
4387.27 719.663 774.803 808.219 845.411
4390.17 798.077 764.653 838.842 827.499
4393.08 776.218 799.108 835.436 866.314
4395.99 823.029 795.826 924.665 876.464
4398.89 788.231 802.156 869.292 894.502
4401.8 795.209 780.995 889.548 863.576
4404.71 759.545 784.714 831.889 867.768
4407.61 799.389 809.314 881.868 893.524
4410.52 869.008 828.883 966.816 912.919
4413.43 818.252 843.89 890.072 937.383
4416.33 844.41 842.089 955.263 937.606
4419.24 863.604 867.975 967.484 975.979
4422.15 895.911 882.977 1005.19 981.478
4425.05 889.415 887.172 971.758 984.383
4427.96 876.189 879.416 976.199 981.34
4430.86 872.643 878.88 996.062 999.557
4433.77 887.807 909.325 1026.41 1039.41
4436.68 967.524 932.219 1095.76 1071.03
4439.58 941.327 924.383 1090.93 1049.64
4442.49 864.297 913.291 962.235 1040.18
4445.4 934.25 905.208 1067.39 1018.21
4448.3 917.076 914.836 1025.02 1030.54
4451.21 893.183 916.453 999.215 1024.72
4454.11 939.101 886.726 1049.92 993.955
4457.02 827.894 877.444 932.733 986.435
4459.93 865.337 872.85 976.656 981.134
4462.83 925.32 898.096 1034.01 1010.28
4465.74 903.633 918.967 1020.17 1042.25
4468.64 927.949 926 1072.56 1057.31
4471.55 946.418 955.735 1079.19 1088.38
4474.45 992.836 988.562 1113.4 1117.72
4477.36 1026.43 1014.38 1160.57 1142.21
4480.27 1023.87 1030.57 1152.66 1161.97
4483.17 1041.41 1027.1 1172.67 1155.85
4486.08 1016.02 1002.94 1142.22 1131.46
4488.98 951.389 990.23 1079.49 1122.19
4491.89 1003.28 996.465 1144.85 1132.47
4494.79 1034.72 1040.13 1173.08 1181.91
4497.7 1082.37 1064.96 1227.8 1206.52
4500.6 1077.79 1092.6 1218.69 1236.09
4503.51 1117.65 1091.51 1261.79 1235.83
4506.41 1079.09 1092.97 1227.02 1236.35
4509.32 1082.19 1083.68 1220.23 1228.23
4512.22 1089.77 1067.39 1237.45 1211.53
4515.13 1030.21 1069.61 1176.92 1210.07
4518.03 1088.85 1065.29 1215.84 1196.1
4520.94 1076.8 1057.77 1195.54 1177.98
4523.84 1007.66 1038.46 1122.57 1152.77
4526.75 1030.93 1025.63 1140.2 1152.71
4529.65 1038.3 1048.08 1195.36 1185.91
4532.56 1075.01 1052.3 1222.15 1197.4
4535.46 1043.58 1048.51 1174.7 1199.02
4538.37 1026.95 1032.93 1200.22 1179.23
4541.27 1028.28 1039.21 1162.77 1200.85
4544.18 1062.4 1052.92 1239.56 1200.74
4547.08 1068.09 1051.27 1199.88 1197.62
4549.99 1023.32 1069.52 1153.41 1208.14
4552.89 1117.14 1088.4 1271.14 1234.65
4555.79 1124.74 1124.04 1279.39 1282.47
4558.7 1130.23 1115.87 1296.87 1265.29
4561.6 1092.65 1112.4 1219.62 1265.84
4564.51 1114.32 1090.27 1281.04 1230.37
4567.41 1063.84 1101.7 1190.45 1247.93
4570.32 1126.94 1107.29 1272.32 1249.74
4573.22 1131.09 1122.09 1286.45 1272.17
4576.12 1108.22 1137.45 1257.74 1293.06
4579.03 1173.02 1154.68 1335 1314.06
4581.93 1182.81 1174.93 1349.43 1338.05
4584.83 1168.95 1176.15 1329.73 1332.58
4587.74 1176.69 1151.07 1318.57 1305.46
4590.64 1107.57 1131.67 1268.09 1290
4593.55 1110.74 1107.21 1283.34 1273.48
4596.45 1103.31 1128.86 1269.03 1294.89
4599.35 1172.54 1150.17 1332.32 1317.16
4602.26 1174.65 1175.83 1350.14 1346.55
4605.16 1180.31 1182.72 1357.19 1354.79
4608.06 1193.22 1196.82 1357.03 1368.85
4610.97 1216.92 1205.11 1392.33 1384.06
4613.87 1205.19 1212.05 1402.82 1391.84
4616.77 1214.04 1225.36 1380.38 1408.16
4619.68 1256.86 1216.49 1441.28 1387.12
4622.58 1178.58 1230.18 1339.7 1416.19
4625.48 1255.09 1209.84 1467.58 1394.73
4628.39 1195.85 1229.66 1376.92 1430.5
4631.29 1238.05 1195.01 1447 1388.74
4634.19 1151.15 1214.97 1342.3 1409.92
4637.1 1255.7 1185.61 1440.45 1367.68
4640 1149.97 1209.7 1320.27 1387.31
4642.9 1223.43 1211.11 1401.22 1380.1
4645.8 1259.92 1231.95 1418.82 1406.49
4648.71 1212.5 1235.48 1399.42 1412.07
4651.61 1234.02 1228.19 1417.98 1422.66
4654.51 1238.06 1221.29 1450.56 1412.42
4657.42 1191.78 1244.14 1368.72 1440.34
4660.32 1302.57 1218.96 1501.73 1407.37
4663.22 1162.52 1219.04 1351.64 1403.2
4666.12 1192.02 1179.57 1356.22 1369.11
4669.02 1184.18 1198.42 1399.48 1391.75
4671.93 1219.06 1209.2 1419.56 1405.55
4674.83 1224.36 1225.85 1397.61 1417.76
4677.73 1234.12 1230.11 1436.11 1409.68
4680.63 1231.85 1209.99 1395.32 1404.6
4683.54 1164.01 1203.56 1382.39 1390.96
4686.44 1214.81 1225.29 1395.17 1418.71
4689.34 1297.04 1246.67 1478.56 1448.04
4692.24 1228.17 1253.72 1470.4 1470.46
4695.14 1235.93 1217.67 1462.42 1440.52
4698.05 1188.91 1199.44 1388.75 1406.51
4700.95 1173.46 1173.41 1368.35 1371.96
4703.85 1157.87 1163.97 1358.79 1364.4
4706.75 1160.58 1173.82 1366.04 1371.76
4709.65 1203 1208.17 1390.46 1415.26
4712.55 1260.93 1235.84 1489.3 1432.01
4715.46 1243.58 1264.21 1416.28 1471.58
4718.36 1288.11 1259.48 1509.16 1467.61
4721.26 1246.73 1274.89 1477.4 1501.84
4724.16 1289.84 1264.75 1518.97 1497.52
4727.06 1257.69 1266.53 1496.17 1489.74
4729.96 1252.06 1258.79 1454.07 1476.32
4732.86 1266.63 1271.6 1478.71 1480.92
4735.76 1296.09 1278.6 1509.97 1490.7
4738.67 1273.09 1292.67 1483.42 1507.92
4741.57 1308.84 1289.1 1530.38 1501.36
4744.47 1285.39 1312.01 1490.28 1535.45
4747.37 1341.8 1320.15 1585.68 1549.85
4750.27 1333.25 1326.08 1573.6 1568.2
4753.17 1303.19 1317.28 1545.31 1545.19
4756.07 1315.39 1303.09 1516.66 1520.15
4758.97 1290.69 1287.49 1498.47 1491.28
4761.87 1256.38 1277.18 1458.71 1486.81
4764.77 1284.48 1307.95 1503.25 1526.16
4767.67 1382.99 1322.84 1616.52 1546.18
4770.57 1301.05 1344.14 1518.77 1570.09
4773.47 1348.38 1314.91 1574.99 1542.36
4776.37 1295.3 1350.64 1533.32 1582.41
4779.27 1408.26 1351.49 1638.92 1580.63
4782.17 1350.91 1355.19 1569.65 1583.2
4785.07 1306.39 1305.46 1541.02 1523.2
4787.97 1259.08 1283.85 1458.94 1510.32
4790.87 1286.08 1301.34 1531.01 1537.49
4793.77 1358.86 1343.34 1622.53 1592.23
4796.67 1385.08 1377.49 1623.17 1624.44
4799.57 1388.53 1379.49 1627.62 1614.39
4802.47 1364.87 1381.03 1592.39 1619.15
4805.37 1389.68 1373.31 1637.44 1611.25
4808.27 1365.38 1399.02 1603.92 1643.85
4811.17 1442.02 1387.74 1690.19 1631.01
4814.07 1355.84 1381.54 1598.91 1638.01
4816.97 1346.77 1355.71 1624.94 1611.71
4819.87 1364.53 1342.48 1611.27 1597.07
4822.77 1316.15 1357.46 1555.01 1597.57
4825.67 1391.7 1362.2 1626.43 1601.6
4828.57 1378.74 1377.45 1623.37 1612
4831.47 1361.93 1385.45 1586.2 1628.53
4834.37 1415.68 1389.68 1676.02 1635.31
4837.27 1391.44 1383.74 1643.7 1648.49
4840.16 1344.1 1369.37 1625.76 1640.81
4843.06 1372.56 1382.04 1652.96 1660.96
4845.96 1429.45 1387.36 1704.16 1663.32
4848.86 1360.09 1369.03 1632.83 1641.93
4851.76 1317.56 1292.88 1588.8 1556.01
4854.66 1201 1248.16 1446.4 1498.45
4857.56 1225.94 1197.31 1460.13 1435.27
4860.46 1164.99 1184.45 1399.26 1419.64
4863.35 1162.41 1186.86 1399.53 1423.71
4866.25 1233.19 1215.85 1472.33 1453.44
4869.15 1251.94 1239.9 1488.45 1478.49
4872.05 1234.57 1233.92 1474.69 1474.11
4874.95 1215.26 1224.76 1459.18 1474.61
4877.85 1224.44 1239.21 1489.96 1499.56
4880.74 1277.92 1277.4 1549.53 1545.52
4883.64 1329.84 1313.73 1597.06 1574.08
4886.54 1333.42 1319.05 1575.65 1583.13
4889.44 1293.89 1325.46 1576.67 1600.33
4892.34 1349.06 1312.07 1648.67 1605.33
4895.23 1293.25 1326.08 1590.65 1629.75
4898.13 1335.93 1351.4 1649.92 1664.81
4901.03 1425.01 1369.27 1753.85 1697.11
4903.93 1346.88 1371.58 1687.57 1690.42
4906.82 1342.85 1337.88 1629.85 1643.65
4909.72 1323.91 1331.59 1613.53 1616.14
4912.62 1328.01 1315.77 1605.05 1597.05
4915.52 1295.39 1306.81 1572.58 1594.47
4918.41 1297.03 1327.24 1605.77 1621.59
4921.31 1389.31 1356.39 1686.43 1655.42
4924.21 1382.84 1403.42 1674.08 1698.39
4927.1 1438.13 1401.91 1734.67 1710.06
4930 1384.77 1404.69 1721.43 1707.36
4932.9 1391.16 1377.39 1665.97 1678.16
4935.79 1356.24 1382.95 1647.06 1664.83
4938.69 1401.44 1381.22 1681.45 1670.31
4941.59 1385.98 1410.98 1682.41 1710.17
4944.48 1445.52 1422.57 1766.64 1740.52
4947.38 1436.2 1454.38 1772.51 1771.24
4950.28 1481.43 1422.24 1774.58 1736.69
4953.17 1349.09 1421.24 1662.99 1730.6
4956.07 1433.19 1398.39 1754.23 1706.23
4958.97 1412.89 1418.95 1701.48 1729.08
4961.86 1410.75 1423.49 1731.53 1734.38
4964.76 1446.83 1469.74 1770.12 1795.8
4967.66 1551.63 1473.49 1885.75 1790.37
4970.55 1422 1474.47 1715.23 1801.76
4973.45 1449.77 1439.36 1804.3 1765.78
4976.34 1446.33 1435.88 1777.81 1757.67
4979.24 1411.54 1429.67 1690.88 1723.93
4982.13 1431.14 1418.81 1703.11 1696.54
4985.03 1413.77 1428.21 1695.63 1727.58
4987.93 1439.71 1412.33 1783.99 1734.24
4990.82 1383.5 1423.99 1723.1 1756.41
4993.72 1448.76 1446.26 1762.13 1779.66
4996.61 1506.53 1462.42 1853.74 1786.61
4999.51 1431.98 1461.55 1743.95 1785.61
5002.4 1446.15 1427.54 1759.14 1721.88
5005.3 1404.5 1419.92 1662.56 1711.37
5008.19 1409.12 1404.27 1712.4 1676.32
5011.09 1399.18 1406.87 1654.01 1687.38
5013.98 1412.3 1406.02 1695.73 1687.18
5016.88 1406.59 1405.1 1711.82 1688.23
5019.77 1396.42 1409.32 1657.15 1693.48
5022.67 1424.96 1424.18 1711.46 1688.14
5025.56 1451.15 1441.76 1695.8 1715.6
5028.46 1449.17 1448.08 1739.54 1722.41
5031.35 1443.92 1452.95 1731.88 1748.45
5034.25 1465.75 1429.64 1773.92 1731.2
5037.14 1379.25 1422.3 1687.79 1733.68
5040.04 1421.89 1439.07 1739.31 1739.56
5042.93 1516.06 1449.04 1791.58 1737.45
5045.82 1409.17 1450.67 1681.44 1724.69
5048.72 1426.8 1440.22 1701.05 1716.4
5051.61 1484.68 1477.79 1766.7 1764.7
5054.51 1521.89 1514.25 1826.37 1807.94
5057.4 1536.18 1531.25 1830.76 1834.96
5060.29 1535.68 1517.38 1847.74 1809.81
5063.19 1480.27 1523.36 1750.91 1838.46
5066.08 1554.14 1523.65 1916.72 1849.64
5068.97 1536.54 1528.93 1881.29 1883.54
5071.87 1496.09 1504.07 1852.61 1853.06
5074.76 1479.57 1486.29 1825.28 1828.56
5077.65 1483.19 1476.53 1807.79 1819.99
5080.55 1466.81 1511.36 1826.9 1850.23
5083.44 1584.07 1514.51 1915.98 1862.18
5086.33 1492.64 1541.74 1843.65 1882.59
5089.23 1548.51 1530.36 1888.14 1874.36
5092.12 1549.94 1527.52 1891.3 1859.67
5095.01 1484.11 1534.63 1799.56 1875.04
5097.91 1569.83 1526.86 1934.27 1874.11
5100.8 1526.64 1534.77 1888.5 1901.07
5103.69 1507.85 1522.68 1880.45 1882.31
5106.58 1533.54 1537.13 1877.99 1901.63
5109.48 1570.01 1554.78 1946.44 1921.71
5112.37 1560.8 1561.4 1940.69 1940.65
5115.26 1553.4 1533.09 1934.81 1912.41
5118.15 1485.09 1521.75 1861.73 1902.67
5121.05 1526.77 1500.33 1911.47 1878.09
5123.94 1489.12 1505.07 1861.06 1881.36
5126.83 1499.33 1520.44 1871.55 1897.13
5129.72 1572.88 1564.4 1958.8 1949.13
5132.62 1620.98 1567.65 2017.05 1957.17
5135.51 1509.08 1551.64 1895.67 1938.46
5138.4 1524.85 1522.13 1902.66 1911.05
5141.29 1532.46 1521.76 1934.8 1895.47
5144.18 1507.98 1505.63 1848.95 1874.78
5147.07 1476.46 1491.79 1840.6 1846.86
5149.97 1490.93 1494.77 1851.02 1861.84
5152.86 1516.92 1485.36 1893.89 1852.24
5155.75 1448.22 1488.3 1811.81 1849.77
5158.64 1499.75 1464.75 1843.62 1818.8
5161.53 1446.27 1454.46 1800.98 1800.79
5164.42 1417.37 1376.7 1757.77 1721.7
5167.31 1266.46 1333.3 1606.36 1677.44
5170.2 1316.08 1311.19 1668.18 1655.4
5173.09 1351.04 1366.47 1691.67 1713.57
5175.99 1432.3 1394.09 1780.86 1745.01
5178.88 1398.94 1384.73 1762.5 1736.11
5181.77 1322.94 1380.24 1664.97 1738.69
5184.66 1418.85 1407.12 1788.61 1773.49
5187.55 1479.58 1438.52 1866.88 1810.49
5190.44 1417.13 1480.12 1775.99 1855.97
5193.33 1543.66 1480.33 1925.03 1858.71
5196.22 1480.2 1533.63 1875.11 1921.36
5199.11 1577.02 1522.29 1963.94 1912.79
5202 1509.63 1529.47 1899.34 1918.71
5204.89 1501.76 1517.9 1892.85 1905.75
5207.78 1542.29 1557.88 1925.06 1952.91
5210.67 1629.59 1599.69 2040.82 1996.43
5213.56 1627.17 1617.45 2023.41 2016.54
5216.45 1595.59 1620.85 1985.39 2028.73
5219.34 1639.77 1586.56 2077.39 1982.09
5222.23 1524.32 1555.73 1883.49 1948.13
5225.12 1503.11 1527.14 1883.5 1895.48
5228.01 1554 1538.16 1919.45 1919.65
5230.9 1557.35 1548.29 1955.99 1932.3
5233.78 1533.5 1561.78 1921.45 1960.5
5236.67 1594.5 1613.62 2004.07 2025.32
5239.56 1712.84 1638.73 2150.43 2065.85
5242.45 1608.85 1638.73 2043.05 2059.04
5245.34 1594.5 1602.64 1983.63 2014.3
5248.23 1604.58 1581.32 2016.23 1976.55
5251.12 1544.88 1583.03 1929.8 2000.15
5254.01 1599.64 1594.52 2054.42 2018.02
5256.9 1639.04 1607.87 2069.84 2031.04
5259.78 1584.94 1573.9 1968.85 1961.66
5262.67 1497.72 1511.59 1846.3 1882.49
5265.56 1452.1 1473.88 1832.32 1852.41
5268.45 1471.81 1469.8 1878.61 1857.98
5271.34 1485.48 1507.21 1863 1896.43
5274.22 1564.35 1551.78 1947.67 1944.05
5277.11 1605.52 1584.75 2021.47 1990.28
5280 1584.39 1571.6 2001.7 1984.15
5282.89 1524.89 1575.39 1929.27 1988.17
5285.78 1616.88 1600.25 2033.54 2020.52
5288.66 1658.96 1648.11 2098.76 2077.18
5291.55 1668.5 1639.53 2099.25 2071.25
5294.44 1591.13 1637.93 2015.75 2069.19
5297.33 1654.14 1639.72 2092.58 2067.85
5300.21 1673.89 1653.64 2095.23 2080.22
5303.1 1632.88 1670.14 2052.86 2093.79
5305.99 1703.64 1691.12 2133.29 2127.44
5308.87 1736.82 1725.45 2196.16 2166.52
5311.76 1735.9 1729.79 2170.1 2183.05
5314.65 1716.66 1704.81 2182.89 2150.91
5317.54 1661.87 1663.9 2099.73 2097.77
5320.42 1613.17 1633.44 2010.67 2039
5323.31 1625.27 1625.59 2006.6 2019.36
5326.2 1638.34 1632.16 2040.8 2029.56
5329.08 1632.86 1631.1 2041.27 2039.73
5331.97 1622.09 1624.47 2037.12 2031.17
5334.85 1618.46 1615.78 2015.13 2028.98
5337.74 1606.8 1642.52 2034.69 2049.86
5340.63 1702.31 1642.19 2099.75 2058.1
5343.51 1617.47 1664.87 2039.85 2078.32
5346.4 1674.84 1639.26 2095.37 2060.92
5349.28 1625.48 1662.11 2047.54 2086.19
5352.17 1686.01 1670.07 2115.66 2097.93
5355.06 1698.72 1720.91 2130.58 2146.1
5357.94 1777.98 1727.92 2192.05 2156.67
5360.83 1707.05 1705.6 2147.38 2131.15
5363.71 1631.75 1659.84 2054.01 2079.19
5366.6 1640.72 1633.34 2036.16 2034.13
5369.48 1627.55 1654.38 2012.21 2058.28
5372.37 1694.88 1662.47 2126.47 2077.99
5375.25 1664.99 1679.17 2095.28 2094.21
5378.14 1677.64 1678.58 2060.87 2093.81
5381.02 1693.13 1719.63 2125.28 2133.77
5383.91 1788.13 1715.82 2215.15 2145.35
5386.79 1666.19 1720.69 2095.6 2141.4
5389.68 1707.75 1682.05 2113.44 2092.59
5392.56 1672.21 1651.26 2068.73 2040.93
5395.45 1573.83 1639.82 1940.61 2030.01
5398.33 1673.41 1624.59 2080.69 2006.25
5401.21 1626.54 1633.2 1997.45 2015
5404.1 1599.65 1607.39 1966.87 1977.35
5406.98 1595.99 1610.86 1967.74 1985.59
5409.87 1636.93 1643.94 2022.17 2034.01
5412.75 1698.88 1692.34 2112.12 2113.99
5415.63 1741.2 1710.36 2207.68 2139.28
5418.52 1691 1725.2 2098.05 2156.45
5421.4 1743.4 1716.08 2163.61 2147.84
5424.28 1713.85 1731.67 2181.87 2156.28
5427.17 1737.76 1713.52 2123.36 2127.01
5430.05 1688.94 1675.44 2075.79 2064.88
5432.93 1599.61 1667.92 1995.49 2055.21
5435.82 1715.2 1703.67 2094.36 2092.95
5438.7 1796.19 1742.09 2189.01 2136.03
5441.58 1714.87 1715.24 2124.71 2110.31
5444.47 1634.66 1722.77 2017.21 2119.46
5447.35 1818.78 1730.01 2216.46 2123.4
5450.23 1736.58 1760.27 2136.52 2157.34
5453.11 1725.46 1720.81 2119.05 2116.82
5456 1700.4 1710.04 2094.89 2086.3
5458.88 1704.27 1704.14 2044.96 2074.35
5461.76 1707.76 1715.15 2083.22 2094.1
5464.64 1733.44 1744.11 2154.13 2140.57
5467.53 1791.15 1746.19 2184.35 2171.09
5470.41 1713.98 1754.89 2174.8 2167.68
5473.29 1759.55 1697.06 2143.88 2114.92
5476.17 1617.65 1692.2 2026.08 2087.07
5479.05 1699.4 1679.76 2091.24 2072.74
5481.94 1722.25 1732.5 2100.9 2122.53
5484.82 1775.86 1736.09 2175.44 2119.59
5487.7 1710.17 1757.01 2082.44 2151.32
5490.58 1785 1749.2 2196.07 2141.75
5493.46 1752.43 1773.68 2146.73 2177.26
5496.34 1783.61 1701.52 2188.99 2134.41
5499.22 1568.51 1623.45 2067.51 2086
5502.1 1518.24 1548.34 2001.5 2037.69
5504.99 1558.29 1557.12 2044.06 2050.78
5507.87 1594.82 1612.13 2106.79 2121.5
5510.75 1683.29 1625.21 2213.66 2157.05
5513.63 1597.51 1652.08 2150.71 2197.55
5516.51 1675.46 1640.95 2228.29 2193.82
5519.39 1649.88 1669.42 2202.45 2232.47
5522.27 1682.91 1645.28 2266.68 2213.24
5525.15 1603.06 1609.38 2170.61 2159.35
5528.03 1542.16 1605.87 2040.77 2148.22
5530.91 1672.39 1619.1 2233.29 2156.62
5533.79 1642.74 1619.29 2195.79 2195.27
5536.67 1542.75 1617.38 2156.72 2193.14
5539.55 1666.65 1618.8 2226.91 2195.9
5542.43 1646.99 1663.65 2204.05 2217.48
5545.31 1677.31 1661.62 2221.49 2214.77
5548.19 1660.57 1647.1 2218.77 2184.86
5551.07 1603.42 1621.52 2114.32 2183.87
5553.95 1600.56 1604.35 2218.53 2157.24
5556.83 1609.07 1616.53 2138.88 2212.31
5559.7 1639.97 1622.36 2279.53 2188.6
5562.58 1618.03 1637.82 2147.38 2208.14
5565.46 1655.45 1644.12 2197.51 2177.58
5568.34 1658.87 1646.16 2187.84 2178.71
5571.22 1624.16 1648.48 2150.78 2179.09
5574.1 1662.42 1566.6 2198.65 2145.09
5576.98 1413.21 1537.19 2085.86 2090.25
5579.86 1535.93 1548.76 1986.24 2098.14
5582.73 1697.14 1551.63 2222.31 2091.9
5585.61 1421.82 1520.66 2067.14 2135.08
5588.49 1443.02 1460.75 2115.8 2082.9
5591.37 1517.42 1540.35 2065.76 2129.75
5594.25 1660.62 1584.5 2207.68 2135.52
5597.12 1575.45 1643.8 2133.14 2204
5600 1695.33 1637.12 2271.18 2191.55
5602.88 1640.59 1668.38 2170.32 2240.05
5605.76 1669.22 1674.03 2278.65 2261.92
5608.63 1712.27 1685.33 2336.78 2281.28
5611.51 1674.49 1673.05 2228.4 2241.48
5614.39 1632.4 1658.4 2159.25 2208.7
5617.27 1668.3 1686.82 2238.46 2245.52
5620.14 1759.75 1707.26 2338.84 2280.88
5623.02 1693.75 1700.16 2265.34 2288.46
5625.9 1646.99 1699.89 2261.2 2281.93
5628.77 1758.93 1700.57 2319.25 2282.8
5631.65 1695.79 1700.21 2267.94 2263.51
5634.53 1645.92 1682.42 2203.34 2240.34
5637.4 1705.56 1638.7 2249.74 2206.29
5640.28 1564.62 1664.32 2165.79 2239.78
5643.15 1722.77 1669.32 2303.8 2257.55
5646.03 1720.58 1723.62 2303.05 2297.36
5648.91 1727.52 1708.14 2285.23 2276.26
5651.78 1676.32 1686.34 2240.49 2251.73
5654.66 1655.18 1628.02 2229.46 2205.81
5657.53 1552.57 1604.73 2147.46 2188.21
5660.41 1606.44 1609.42 2187.71 2188.48
5663.29 1669.25 1623.21 2230.27 2198.28
5666.16 1593.94 1684.55 2176.86 2263.74
5669.04 1790.45 1685.48 2384.09 2258.7
5671.91 1672.03 1709.48 2215.15 2273.07
5674.79 1665.96 1683.98 2219.97 2249.76
5677.66 1713.95 1677.72 2314.17 2249.79
5680.54 1653.25 1678.9 2215.24 2246.93
5683.41 1669.5 1679.44 2211.38 2232.96
5686.29 1715.58 1698.29 2272.24 2250.29
5689.16 1709.79 1671.03 2267.26 2251
5692.03 1587.71 1645.02 2213.51 2249.63
5694.91 1637.55 1622.33 2268.13 2240.49
5697.78 1641.72 1636.77 2239.84 2259.45
5700.66 1631.03 1636.27 2270.38 2228.89
5703.53 1636.05 1628.05 2176.47 2206
5706.4 1617.09 1625.62 2171.16 2201.01
5709.28 1623.72 1621.31 2255.42 2202.31
5712.15 1623.13 1635.21 2180.35 2214.7
5715.03 1658.78 1681.5 2208.32 2242.95
5717.9 1762.58 1697.18 2340.17 2248.19
5720.77 1670.17 1699.35 2196.08 2250.49
5723.65 1665.32 1682.85 2215.2 2232.42
5726.52 1713.08 1695.28 2285.96 2264.78
5729.39 1707.46 1692.86 2293.18 2283.84
5732.27 1658.04 1715.02 2272.36 2325.44
5735.14 1779.57 1717.18 2410.78 2330.02
5738.01 1713.92 1744.05 2306.91 2385.58
5740.88 1738.65 1713.82 2439.04 2353.99
5743.76 1688.88 1708.34 2316.03 2353.89
5746.63 1697.49 1647.7 2306.6 2272.56
5749.5 1556.74 1661.91 2195.04 2275.15
5752.37 1731.49 1661.19 2323.82 2268.22
5755.24 1695.32 1704.91 2285.81 2291.82
5758.12 1687.92 1682.74 2265.84 2266.03
5760.99 1664.99 1686.69 2246.45 2266.53
5763.86 1707.15 1703.78 2287.31 2284.75
5766.73 1739.2 1698.18 2320.49 2255.48
5769.6 1648.2 1690.06 2158.63 2242.13
5772.48 1682.79 1674.78 2247.27 2216.4
5775.35 1693.35 1671.01 2243.29 2239.73
5778.22 1636.88 1627.07 2228.62 2193.7
5781.09 1550.99 1594.72 2109.18 2150.35
5783.96 1596.3 1610.05 2113.23 2138.31
5786.83 1682.87 1647.49 2192.52 2160.82
5789.7 1663.29 1668.2 2176.69 2221.84
5792.57 1658.43 1648.43 2296.32 2205.39
5795.44 1623.58 1646.72 2143.15 2209.72
5798.31 1658.16 1662.75 2189.68 2196.72
5801.18 1706.51 1702.03 2257.33 2260.48
5804.05 1741.42 1702.74 2334.42 2265.12
5806.92 1660.29 1712.2 2203.62 2279.37
5809.79 1734.88 1697.43 2300.06 2250.95
5812.66 1697.12 1728.21 2249.16 2333.71
5815.53 1752.65 1715.32 2451.92 2334.92
5818.4 1696.2 1716.65 2303.69 2358.55
5821.27 1701.11 1701.85 2320.05 2297.21
5824.14 1708.23 1719.13 2267.88 2297.9
5827.01 1748.05 1732.92 2305.78 2300.58
5829.88 1742.47 1731.74 2328.09 2298.28
5832.75 1704.69 1739.36 2260.99 2315.32
5835.62 1770.92 1741.64 2356.88 2307.55
5838.49 1749.3 1742.98 2304.78 2307.27
5841.36 1708.72 1733.2 2260.13 2287.46
5844.23 1741.59 1732.19 2297.47 2285.72
5847.09 1746.26 1704.97 2299.56 2271.94
5849.96 1627.07 1704.18 2218.78 2282.68
5852.83 1739.2 1703.43 2329.71 2282.79
5855.7 1744.03 1741.56 2299.89 2303.32
5858.57 1741.44 1748.06 2280.37 2295.8
5861.44 1758.72 1739.15 2307.15 2284.58
5864.3 1717.29 1752.22 2266.23 2304.2
5867.17 1780.65 1775.14 2339.22 2339.11
5870.04 1827.49 1780.52 2411.87 2340.34
5872.91 1733.42 1789.08 2269.93 2361.71
5875.77 1806.35 1707.48 2403.33 2291.68
5878.64 1582.67 1699.48 2201.77 2285.05
5881.51 1709.44 1635.58 2250.04 2183.03
5884.38 1614.63 1586.86 2097.29 2118.4
5887.24 1436.52 1461.56 2007.88 2015.36
5890.11 1333.53 1462.67 1940.92 2013.6
5892.98 1617.97 1540.76 2092.01 2083.21
5895.84 1670.78 1598.23 2216.69 2151.11
5898.71 1505.93 1587.63 2144.63 2196.16
5901.58 1586.16 1578.84 2227.17 2179.01
5904.44 1644.43 1622.16 2165.23 2228.53
5907.31 1635.89 1646.87 2293.19 2214.72
5910.17 1660.3 1643.5 2185.76 2246.86
5913.04 1634.3 1646.67 2261.62 2238.39
5915.91 1645.4 1647.69 2267.8 2240.09
5918.77 1663.38 1653.62 2190.86 2226.51
5921.64 1652.09 1678.99 2220.87 2245.8
5924.5 1721.5 1673.68 2325.68 2236.88
5927.37 1647.44 1721.72 2164.08 2292.26
5930.23 1796.22 1711.47 2387.03 2304.47
5933.1 1690.75 1764.28 2362.31 2381.49
5935.96 1805.88 1767.98 2395.13 2383.32
5938.83 1807.3 1782.85 2392.53 2364.85
5941.69 1735.37 1732.96 2306.89 2331.74
5944.56 1656.19 1682.36 2295.78 2297.4
5947.42 1655.53 1660.83 2289.52 2256.76
5950.29 1670.77 1670.47 2184.99 2223.7
5953.15 1685.1 1680.35 2196.6 2233.19
5956.02 1685.18 1682.8 2317.98 2235.2
5958.88 1678.11 1690.09 2191.03 2246.3
5961.74 1706.97 1716.85 2229.88 2244.86
5964.61 1765.49 1740.07 2313.65 2271.17
5967.47 1747.74 1716.61 2269.97 2269.82
5970.34 1636.61 1675.46 2225.85 2217.45
5973.2 1642.05 1671.68 2156.53 2252.27
5976.06 1736.38 1657.58 2374.42 2240.84
5978.93 1594.3 1648.4 2191.58 2256.8
5981.79 1614.53 1630.55 2204.38 2198.98
5984.65 1682.83 1694.4 2200.98 2253.23
5987.51 1785.86 1724.45 2354.34 2255.92
5990.38 1704.66 1738.75 2212.42 2282.11
5993.24 1725.75 1724.45 2279.57 2255.79
5996.1 1742.95 1736.65 2275.37 2274.72
5998.97 1741.26 1702.26 2269.23 2275.23
6001.83 1622.57 1692.62 2281.1 2267.7
6004.69 1714.03 1648.48 2252.76 2247.31
6007.55 1608.85 1661.82 2208.08 2217.69
6010.41 1662.59 1649.7 2192.22 2199.05
6013.28 1677.67 1670.62 2196.86 2196.5
6016.14 1671.6 1670.41 2200.42 2188.81
6019 1661.96 1675.23 2169.14 2195.29
6021.86 1692.13 1691.43 2216.31 2206.08
6024.72 1720.2 1709.17 2232.8 2229.9
6027.58 1715.19 1686.16 2240.58 2227.98
6030.44 1623.08 1685.78 2210.58 2256.86
6033.31 1719.07 1683.55 2319.41 2259.42
6036.17 1708.49 1706.55 2248.28 2265.79
6039.03 1692.09 1714.05 2229.67 2252.26
6041.89 1741.56 1721.15 2278.82 2261.89
6044.75 1729.79 1737.63 2277.18 2279.43
6047.61 1741.55 1722.65 2282.27 2269.53
6050.47 1696.59 1694.69 2249.13 2268.69
6053.33 1645.91 1719.75 2274.66 2302.49
6056.19 1816.74 1729.74 2383.68 2320.3
6059.05 1726.57 1754 2302.55 2310.95
6061.91 1718.69 1730.64 2246.63 2278.36
6064.77 1746.66 1732.87 2285.91 2265.78
6067.63 1733.27 1737.08 2264.79 2268.83
6070.49 1731.32 1721.54 2255.78 2244.18
6073.35 1700.02 1698.88 2211.96 2241.56
6076.21 1665.29 1689.47 2256.95 2230.26
6079.06 1703.09 1688.38 2221.87 2246.56
6081.92 1696.77 1694.13 2260.84 2223
6084.78 1682.53 1691.7 2186.28 2218.53
6087.64 1695.81 1650.28 2208.46 2143.66
6090.5 1572.51 1651.13 2036.22 2150.19
6093.36 1685.08 1656.56 2205.89 2159.48
6096.22 1712.1 1689.56 2236.32 2238.16
6099.07 1671.51 1646.41 2272.28 2184.87
6101.93 1555.63 1629.38 2045.99 2158.82
6104.79 1661 1656.07 2158.19 2164.1
6107.65 1751.57 1677.83 2288.11 2186.38
6110.51 1620.92 1673.67 2112.83 2184.63
6113.36 1648.52 1654.77 2152.93 2167.18
6116.22 1694.86 1651.31 2235.77 2185.34
6119.08 1610.54 1646.19 2167.32 2211.22
6121.93 1633.15 1649.11 2230.58 2194.89
6124.79 1703.63 1678.38 2186.77 2210.51
6127.65 1698.36 1658.61 2214.18 2177.82
6130.51 1573.84 1613.02 2132.5 2127.08
6133.36 1566.86 1546.91 2034.56 2068.03
6136.22 1500.02 1549.91 2037.04 2050.2
6139.07 1582.84 1588.61 2079.01 2106.15
6141.93 1682.96 1652.95 2202.41 2166.88
6144.79 1693.06 1650.57 2219.21 2181.21
6147.64 1575.69 1625.23 2122.01 2153.48
6150.5 1606.93 1607.43 2119.22 2118.17
6153.35 1639.67 1608.1 2113.27 2098.39
6156.21 1577.7 1594.35 2062.67 2072.19
6159.07 1565.68 1574.34 2040.63 2042.08
6161.92 1579.64 1585.26 2022.95 2056.5
6164.78 1610.47 1594.39 2105.91 2073.83
6167.63 1593.05 1614.68 2092.64 2106.08
6170.49 1640.51 1647.95 2119.69 2143.01
6173.34 1710.3 1693.88 2216.7 2185.02
6176.2 1730.83 1707.52 2218.67 2215.07
6179.05 1681.43 1666.82 2209.84 2193.09
6181.91 1588.19 1618.71 2150.75 2163.5
6184.76 1586.52 1592.99 2129.92 2118.53
6187.61 1604.27 1605.96 2074.92 2129.02
6190.47 1627.1 1643.78 2182.23 2170.13
6193.32 1699.97 1639.14 2253.23 2164.5
6196.18 1590.36 1630.31 2058.05 2150.12
6199.03 1600.59 1624.72 2139.08 2127.75
6201.88 1683.23 1644.93 2186.1 2178.12
6204.74 1650.98 1675.5 2209.16 2200.04
6207.59 1692.31 1668.99 2204.86 2194.53
6210.44 1663.68 1675.54 2169.57 2176.11
6213.3 1670.63 1678.79 2153.88 2189.49
6216.15 1702.07 1646.58 2245.01 2144.25
6219 1567.03 1657.27 2033.86 2182.1
6221.85 1702.73 1604.94 2267.44 2108.28
6224.71 1545.06 1600.22 2023.54 2143.72
6227.56 1552.87 1599.01 2140.18 2120.77
6230.41 1699.11 1624.15 2198.59 2156.33
6233.26 1620.46 1631.86 2130.22 2130.82
6236.12 1576.01 1570.55 2063.65 2060.02
6238.97 1515.19 1561.22 1986.18 2044.18
6241.82 1592.45 1528.67 2082.71 2021.45
6244.67 1478.36 1562.77 1995.47 2076.07
6247.52 1617.48 1544.75 2150.03 2059.48
6250.37 1538.41 1556.35 2032.94 2044.05
6253.22 1513.15 1545.97 1949.17 2010.62
6256.08 1586.36 1564.96 2049.73 2019.25
6258.93 1595.36 1598.29 2058.84 2058.98
6261.78 1613.14 1616.97 2068.38 2082.39
6264.63 1642.41 1633.66 2119.94 2108.09
6267.48 1645.43 1651.1 2135.96 2154.2
6270.33 1665.45 1623.45 2206.7 2122.53
6273.18 1559.46 1586.45 2024.95 2110.38
6276.03 1534.42 1526.04 2099.5 2051.94
6278.88 1484.23 1518.78 2031.36 2064.42
6281.73 1537.68 1536.79 2062.41 2035.82
6284.58 1588.45 1551.75 2013.69 2018.17
6287.43 1529.11 1565.14 1978.43 2016.92
6290.28 1577.85 1559.05 2058.64 2014.3
6293.13 1570.18 1558.57 2005.83 1984.24
6295.98 1527.68 1567.03 1888.25 1949.33
6298.83 1603.22 1408.08 1953.89 1908.14
6301.67 1093.35 1455.94 1882.28 1978.29
6304.52 1671.26 1430.12 2098.7 1981.61
6307.37 1525.76 1556.06 1963.85 2001.23
6310.22 1471.15 1513.49 1941.13 1970.1
6313.07 1543.56 1519.37 2005.32 1984.86
6315.92 1543.39 1550.23 2008.12 2013.91
6318.76 1563.73 1586.23 2028.29 2068.74
6321.61 1651.57 1582.24 2169.83 2095.6
6324.46 1531.41 1595.7 2088.67 2107.76
6327.31 1604.11 1574.86 2064.8 2050.91
6330.16 1589.06 1581.77 1999.26 2013.06
6333 1552.13 1587.18 1975.12 2005.58
6335.85 1620.35 1577.32 2042.36 2006.84
6338.7 1559.48 1602.35 2003.04 2038.59
6341.54 1627.23 1577.53 2070.36 2060.96
6344.39 1545.89 1570.12 2109.48 2095.28
6347.24 1537.23 1554.97 2105.99 2083.49
6350.08 1581.79 1543.82 2034.99 2055.93
6352.93 1512.45 1497.51 2026.8 1987.21
6355.78 1398.3 1516.05 1899.83 1990.02
6358.62 1637.4 1561.48 2043.42 2013.87
6361.47 1648.74 1611.58 2098.36 2046.6
6364.32 1548.6 1580.4 1998.01 2012.11
6367.16 1543.88 1545.12 1939.96 1976.9
6370.01 1542.88 1557.72 1992.74 1979.3
6372.85 1586.39 1578.37 2005.19 2010.92
6375.7 1605.83 1587.61 2034.82 2029.86
6378.54 1570.63 1591.56 2049.55 2087.74
6381.39 1598.22 1600.63 2178.86 2118.3
6384.23 1633.04 1598.99 2126.5 2118.5
6387.08 1565.71 1571.5 2050.13 2081.84
6389.92 1515.75 1531.42 2068.9 2026.38
6392.77 1512.81 1544.57 1960.1 2024.75
6395.61 1605.16 1569.54 2045.23 2011.7
6398.46 1590.64 1593.94 2029.76 2034.85
6401.3 1586.02 1564.45 2029.55 2005.11
6404.14 1516.69 1548.8 1956.01 2012.57
6406.99 1543.7 1516.8 2052.16 1993.71
6409.83 1490 1543.93 1972.97 2042.24
6412.67 1598.07 1554.67 2101.59 2024.64
6415.52 1575.94 1541.19 1999.37 2015.86
6418.36 1449.56 1538.11 1946.63 1993.03
6421.2 1588.84 1547.55 2033.08 2013.09
6424.05 1604.23 1589.01 2059.56 2042.41
6426.89 1573.97 1577.3 2034.59 2043.54
6429.73 1553.69 1555.91 2036.46 2022.12
6432.57 1540.08 1536.87 1995.31 2024.73
6435.42 1516.85 1541.9 2042.41 2040.84
6438.26 1568.76 1531.67 2084.81 2023.35
6441.1 1509.41 1563.37 1942.84 2011.03
6443.94 1611.93 1560.07 2005.45 1981.96
6446.79 1558.86 1573.44 1997.59 1992.71
6449.63 1549.53 1571.81 1975.1 1999.22
6452.47 1607.03 1589.12 2024.98 2017.21
6455.31 1610.81 1558.93 2051.54 2004.08
6458.15 1458.95 1526.29 1935.71 2001.29
6460.99 1509.11 1470 2016.61 1955.91
6463.83 1441.92 1499.56 1915.42 1959.58
6466.67 1547.64 1512.1 1946.71 1932.48
6469.51 1546.75 1545.17 1935.32 1947.34
6472.36 1541.12 1540.6 1959.99 1943.58
6475.2 1533.94 1543.51 1935.44 1944.68
6478.04 1555.46 1569 1938.62 1982.61
6480.88 1617.6 1592.31 2073.76 2008.16
6483.72 1603.86 1570.79 2012.11 1984.52
6486.56 1490.9 1523.77 1867.7 1897.68
6489.4 1476.54 1462.07 1813.23 1857.88
6492.23 1418.76 1458.89 1892.72 1850.93
6495.07 1481.37 1504.5 1846.85 1909.53
6497.91 1613.36 1542.05 1989.02 1914.48
6500.75 1531.41 1571.68 1907.56 1955.34
6503.59 1570.26 1547.4 1969.44 1939.48
6506.43 1540.51 1569.61 1941.45 1968.24
6509.27 1598.06 1570.83 1993.83 2009.43
6512.11 1573.91 1574.71 2093.01 2008.88
6514.95 1552.15 1533.21 1939.8 2027.59
6517.78 1473.58 1489.96 2049.95 1986.2
6520.62 1444.16 1445.38 1968.86 1980.55
6523.46 1418.41 1402.08 1922.83 1909.04
6526.3 1343.67 1368.88 1835.42 1850.03
6529.13 1344.57 1374.72 1791.84 1856.03
6531.97 1435.92 1424.62 1940.82 1900.87
6534.81 1493.38 1445.53 1969.94 1941.68
6537.65 1407.3 1445.62 1914.26 1953.68
6540.48 1436.2 1409.67 1976.85 1941.43
6543.32 1385.51 1411.47 1933.2 1927.11
6546.16 1412.69 1397.56 1871.28 1894.11
6548.99 1394.49 1350.73 1877.84 1859.97
6551.83 1245.01 1291.66 1830.78 1818.76
6554.67 1235.47 1214.59 1747.65 1711.08
6557.5 1163.29 1223.33 1554.79 1649.85
6560.34 1271.24 1240.49 1647.12 1641.4
6563.17 1286.94 1287.55 1722.3 1726.19
6566.01 1304.47 1294.84 1809.15 1778.78
6568.85 1293.1 1296.4 1804.9 1822.52
6571.68 1291.63 1339.85 1853.52 1867.22
6574.52 1434.82 1363.46 1943.23 1896.57
6577.35 1363.93 1384.9 1892.97 1916.34
6580.19 1355.95 1392.07 1912.81 1902.62
6583.02 1456.33 1382.49 1902.09 1867.22
6585.86 1335.2 1382.23 1786.76 1870.78
6588.69 1355.16 1363.05 1923.5 1868.33
6591.52 1398.79 1394.5 1894.72 1923.32
6594.36 1429.54 1413.9 1951.73 1909.86
6597.19 1413.37 1440.76 1883.13 1944.4
6600.03 1479.36 1448.79 1998.35 1940.21
6602.86 1453.64 1450.48 1939.16 1938.52
6605.69 1418.43 1432.6 1878.06 1923.94
6608.53 1425.71 1451.65 1954.6 1937.48
6611.36 1510.79 1453.04 1979.76 1955.18
6614.19 1422.62 1465.61 1931.18 1950.56
6617.03 1463.42 1440.56 1940.73 1935.88
6619.86 1435.63 1437.22 1935.72 1925.02
6622.69 1412.61 1436.41 1898.6 1929.46
6625.52 1460.98 1436.77 1954.05 1951.29
6628.36 1436.73 1454.91 2001.21 1958.55
6631.19 1467.02 1457.72 1920.38 1942.64
6634.02 1469.43 1452.04 1906.33 1896.7
6636.85 1419.66 1442.83 1863.4 1890.9
6639.68 1439.41 1416.55 1902.97 1871.06
6642.52 1390.57 1427.11 1846.79 1899.9
6645.35 1451.35 1425.04 1949.92 1905.55
6648.18 1433.21 1449.02 1919.94 1925.63
6651.01 1462.49 1440.9 1907.04 1884.03
6653.84 1426.98 1456.41 1825.11 1891.4
6656.67 1479.75 1428.84 1942.05 1872.05
6659.5 1379.78 1421.37 1848.97 1898.85
6662.33 1404.57 1405.99 1905.51 1870.72
6665.16 1433.63 1402.11 1857.66 1846.67
6667.99 1368.14 1412.29 1776.82 1851.37
6670.82 1435.09 1394.39 1919.63 1842.12
6673.65 1379.94 1418.33 1829.91 1876.93
6676.48 1439.95 1407.61 1881.25 1846.56
6679.31 1402.93 1416.56 1828.51 1860.12
6682.14 1406.8 1397.27 1870.61 1859.86
6684.97 1382.08 1421.24 1880.46 1889.24
6687.8 1474.85 1447.07 1916.66 1913.35
6690.63 1484.27 1473.6 1942.93 1922.08
6693.46 1461.68 1469.73 1906.66 1937.13
6696.29 1463.23 1469.34 1961.81 1934.92
6699.12 1483.11 1470.34 1936.3 1945.35
6701.94 1464.69 1457.12 1937.93 1900.18
6704.77 1423.56 1427.14 1826.3 1872.66
6707.6 1393.16 1408.28 1853.77 1829.77
6710.43 1408.13 1393.59 1809.25 1825.53
6713.26 1379.48 1413.72 1813.57 1827.7
6716.08 1453.54 1441.81 1860.28 1861.82
6718.91 1492.4 1477.87 1911.6 1891.8
6721.74 1487.67 1453.63 1903.52 1876.1
6724.57 1380.83 1439.55 1813.17 1866.33
6727.39 1450.16 1442.94 1882.3 1881.68
6730.22 1497.83 1454.96 1949.58 1912.95
6733.05 1416.89 1446.4 1906.98 1903.67
6735.87 1424.47 1407.48 1854.44 1849.91
6738.7 1381.09 1402.48 1788.31 1817.62
6741.52 1401.89 1385 1810.1 1801.4
6744.35 1372.02 1384.78 1805.8 1803.09
6747.18 1380.43 1418.21 1793.38 1852.67
6750 1502.17 1451.11 1958.82 1891.47
6752.83 1470.72 1480.09 1922.19 1925.41
6755.65 1467.39 1483.57 1895.21 1925.9
6758.48 1512.6 1481.7 1960.3 1905.12
6761.3 1465.1 1476.12 1859.84 1904.12
6764.13 1450.64 1441.49 1892.2 1875.4
6766.95 1408.74 1392.25 1874.15 1846.58
6769.78 1317.36 1384.88 1773.4 1828.05
6772.6 1428.54 1392.55 1836.59 1806.82
6775.43 1431.75 1447.28 1810.46 1861.03
6778.25 1481.57 1455.68 1936.05 1871.06
6781.07 1453.74 1439.05 1866.69 1862.99
6783.9 1381.84 1430.04 1786.24 1851.68
6786.72 1454.54 1422.07 1902.13 1848.05
6789.55 1429.83 1430.22 1855.78 1853.16
6792.37 1406.28 1412.3 1801.57 1833.1
6795.19 1400.8 1412.5 1841.96 1819.05
6798.01 1430.41 1414.68 1813.63 1815.75
6800.84 1412.84 1436.33 1791.65 1818.88
6803.66 1465.73 1440.34 1851.36 1824.49
6806.48 1442.45 1429.98 1830.45 1810.28
6809.3 1381.76 1442 1749.03 1823.38
6812.13 1501.79 1442.01 1890.67 1816.65
6814.95 1442.49 1469.68 1810.25 1852
6817.77 1464.77 1450.7 1855.09 1843.7
6820.59 1444.85 1421.73 1865.77 1817.78
6823.41 1355.59 1395.7 1732.49 1775.24
6826.24 1386.66 1393.84 1727.45 1765.88
6829.06 1439.27 1357.17 1837.71 1755.11
6831.88 1245.56 1382.09 1700.15 1797.49
6834.7 1461.44 1363.17 1854.61 1760.06
6837.52 1382.5 1404.44 1725.4 1773.5
6840.34 1369.39 1359.21 1740.5 1707.66
6843.16 1325.74 1375.62 1657.08 1739.54
6845.98 1431.73 1374.03 1821.02 1741.44
6848.8 1364.62 1385.72 1746.21 1782.82
6851.62 1360.81 1340.28 1781.24 1738.06
6854.44 1295.42 1333.06 1686.72 1735.17
6857.26 1342.96 1339.33 1737.54 1719.31
6860.08 1379.62 1332.98 1733.66 1695.66
6862.9 1276.36 1258.26 1615.79 1583.13
6865.72 1118.81 1157.34 1399.93 1455.04
6868.54 1076.84 1106.13 1349.4 1390.18
6871.35 1122.74 1104.49 1421.21 1391.88
6874.17 1113.87 1137.14 1405.04 1445.62
6876.99 1174.82 1185.64 1510.61 1492.85
6879.81 1268.23 1223.5 1562.9 1536.91
6882.63 1227.45 1245.87 1537.21 1548.05
6885.45 1241.95 1229.8 1544.05 1525.94
6888.26 1219.99 1201.75 1496.56 1490.9
6891.08 1143.32 1169.75 1432.09 1472.26
6893.9 1145.93 1168.95 1488.13 1491.05
6896.72 1217.59 1188.9 1552.95 1518
6899.53 1203.18 1210.05 1512.93 1549.95
6902.35 1209.38 1239.91 1583.98 1569.54
6905.17 1307.17 1251.14 1611.7 1573.81
6907.98 1236.87 1270.75 1525.76 1570.1
6910.8 1268.22 1254.44 1572.86 1569.66
6913.61 1258.23 1283.96 1610.36 1598.17
6916.43 1325.44 1295.81 1611.3 1615.77
6919.25 1303.75 1330.52 1625.64 1637.99
6922.06 1362.36 1303.97 1677.04 1614.11
6924.88 1245.79 1309.45 1539.66 1620.44
6927.69 1320.22 1283.09 1644.64 1582.29
6930.51 1283.26 1310.25 1562.59 1627.43
6933.32 1327.27 1288.01 1675.07 1628.1
6936.14 1253.51 1303.48 1646.65 1652.51
6938.95 1329.67 1272.99 1635.81 1634.83
6941.77 1235.79 1284.27 1622.03 1618.2
6944.58 1287.37 1252.69 1596.75 1614.67
6947.4 1234.92 1285.59 1625.23 1624.79
6950.21 1334.49 1320.25 1652.39 1684.1
6953.02 1391.34 1344.08 1774.68 1702.39
6955.84 1306.42 1354.66 1680.09 1711.17
6958.65 1366.22 1356.65 1678.75 1694.05
6961.46 1397.31 1356.36 1723.31 1678.61
6964.28 1305.55 1320.45 1633.76 1644.38
6967.09 1258.48 1281.81 1576.06 1600.28
6969.9 1281.41 1250.47 1591.01 1564.2
6972.72 1211.52 1244.82 1525.54 1553.83
6975.53 1241.53 1260.94 1544.96 1555.62
6978.34 1329.76 1295.44 1596.36 1581.61
6981.15 1315.03 1287.21 1603.51 1569.65
6983.97 1216.83 1274.95 1509.08 1564.92
6986.78 1293 1263.53 1582.16 1554.75
6989.59 1280.78 1271.59 1573.01 1564.63
6992.4 1241 1253.37 1538.72 1566.79
6995.21 1238.32 1226.92 1588.64 1532.79
6998.02 1201.42 1249.51 1471.01 1546.5
7000.83 1308.78 1216.33 1579.84 1497.24
7003.64 1138.78 1232.92 1440.88 1517.42
7006.46 1251.19 1220.45 1531.53 1510.47
7009.27 1271.37 1268.44 1558.98 1558.24
7012.08 1282.75 1255.57 1584.21 1559.51
7014.89 1212.6 1261.67 1535.33 1549.61
7017.7 1289.65 1255.68 1529.28 1529.52
7020.51 1264.8 1280.84 1523.96 1538.55
7023.32 1288.07 1249.1 1562.4 1512.95
7026.12 1194.43 1236.45 1452.49 1504.11
7028.93 1226.86 1239.64 1497.42 1507.77
7031.74 1297.62 1253.35 1573.4 1518.27
7034.55 1235.57 1272.14 1483.98 1548.39
7037.36 1283.23 1260.32 1587.79 1536.1
7040.17 1262.16 1271.06 1536.52 1548.29
7042.98 1267.8 1290.9 1520.55 1556.2
7045.79 1342.74 1249.11 1611.54 1524.36
7048.59 1136.79 1258.03 1440.97 1530.94
7051.4 1294.54 1237.89 1540.3 1495.81
7054.21 1282.35 1266.92 1506.15 1516.1
7057.02 1223.86 1261.36 1501.85 1515.6
7059.82 1277.88 1251.31 1538.79 1513.59
7062.63 1252.18 1261.66 1500.13 1523.82
7065.44 1254.91 1243.44 1532.54 1503.07
7068.24 1223.24 1242.83 1476.53 1503.44
7071.05 1250.35 1245.27 1501.26 1492.77
7073.86 1262.23 1253.16 1500.51 1517.29
7076.66 1246.9 1232.85 1550.11 1491.82
7079.47 1189.43 1226.53 1424.85 1484.42
7082.28 1243.25 1221.01 1478.31 1454.38
7085.08 1230.36 1233.9 1459.99 1468.02
7087.89 1228.09 1210.04 1465.77 1443.36
7090.69 1171.67 1201.72 1404.33 1460.11
7093.5 1205.41 1210.8 1510.23 1472.17
7096.3 1255.33 1226.92 1501.93 1495.46
7099.11 1220.02 1254.38 1474.2 1497.18
7101.91 1287.78 1239.71 1515.4 1468.84
7104.72 1211.32 1244.11 1416.93 1472.77
7107.52 1233.23 1244.76 1485.97 1476.08
7110.33 1289.71 1222.55 1525.34 1469.01
7113.13 1144.71 1206.21 1395.73 1437.54
7115.93 1184.21 1192.88 1391.56 1416.77
7118.74 1249.71 1236.24 1463.01 1446.61
7121.54 1274.8 1215.34 1485.27 1432.16
7124.34 1121.52 1227.24 1348.21 1448.62
7127.15 1285.41 1200.39 1512.38 1426.71
7129.95 1194.23 1213.22 1419.53 1450.89
7132.75 1160.03 1171.52 1420.77 1408.17
7135.55 1160.31 1161.55 1384.22 1401.53
7138.36 1164.32 1162.03 1399.62 1393.98
7141.16 1161.45 1168.3 1398.12 1395.84
7143.96 1179.12 1170.58 1389.8 1396.65
7146.76 1171.18 1190.65 1402.04 1403.32
7149.56 1221.64 1185.02 1418.14 1387.46
7152.37 1162.25 1203.43 1342.2 1390.13
7155.17 1226.4 1180.05 1410.05 1359.89
7157.97 1151.51 1209.82 1327.41 1412.3
7160.77 1251.55 1173.72 1499.44 1385.6
7163.57 1118.1 1159.9 1329.96 1384.63
7166.37 1110.06 1127.49 1324.49 1346.34
7169.17 1154.32 1133.11 1384.57 1346.06
7171.97 1134.96 1128.93 1329.13 1325.87
7174.77 1097.53 1104.85 1263.9 1282.79
7177.57 1082.05 1078.57 1255.35 1233.71
7180.37 1056.14 1071.4 1181.87 1234.43
7183.17 1076.02 1083.23 1266.05 1244.89
7185.97 1117.54 1111.81 1286.75 1295.19
7188.77 1141.87 1112.75 1332.75 1293.11
7191.57 1078.85 1127.03 1259.84 1311.73
7194.37 1160.37 1080.89 1342.59 1278.37
7197.16 1003.46 1078.41 1232.67 1279.99
7199.96 1071.41 1042.46 1264.71 1244.97
7202.76 1052.51 1071.17 1237.54 1257.12
7205.56 1089.58 1091.51 1269.11 1282.53
7208.36 1132.43 1101.77 1340.95 1302.28
7211.15 1083.31 1089.87 1296.76 1297.33
7213.95 1053.87 1101.56 1254.29 1296.19
7216.75 1167.5 1116.92 1337.52 1316.33
7219.55 1129.39 1158.25 1357.19 1348.41
7222.34 1177.85 1153.98 1350.53 1350.36
7225.14 1154.7 1144.41 1343.37 1329.11
7227.94 1100.69 1111.69 1293.43 1308.43
7230.73 1079.67 1101 1288.5 1298.33
7233.53 1122.64 1105.69 1313.05 1293.23
7236.33 1114.76 1095.7 1278.15 1269.04
7239.12 1049.7 1075.17 1215.92 1239.99
7241.92 1061.05 1077.46 1225.9 1239.4
7244.71 1121.63 1080.31 1276.4 1236.91
7247.51 1058.25 1042.19 1208.42 1218.56
7250.3 946.69 1017.71 1170.85 1191.57
7253.1 1048.18 1039.87 1195.43 1217.13
7255.89 1124.74 1081.34 1285.1 1246.13
7258.69 1071.09 1067.04 1257.85 1248.95
7261.48 1005.28 1063.61 1203.9 1241.98
7264.28 1114.46 1080.97 1264.19 1248.27
7267.07 1123.16 1102.62 1276.7 1249.42
7269.86 1070.23 1040.44 1207.36 1226.7
7272.66 927.925 987.275 1196.04 1218.38
7275.45 963.675 991.865 1251.75 1227.41
7278.24 1083.99 1023.35 1234.44 1221.5
7281.04 1022.39 1038.53 1178.32 1224.2
7283.83 1009.19 996.288 1259.84 1166.65
7286.62 957.276 977.951 1061.81 1161.57
7289.41 967.384 979.491 1163.05 1123.03
7292.21 1013.81 992.782 1144.24 1177.69
7295 997.148 1009.1 1225.78 1171.49
7297.79 1016.35 1031.81 1144.44 1192.94
7300.58 1081.94 1056.49 1208.59 1184.34
7303.37 1071.19 1062.96 1200 1195.82
7306.16 1035.75 1067.26 1178.88 1199.53
7308.96 1094.84 1024.09 1219.71 1190.46
7311.75 941.696 1059.4 1172.81 1215.32
7314.54 1141.67 1073.05 1253.46 1229.44
7317.33 1135.79 1113.8 1262.06 1277.98
7320.12 1063.95 1100.88 1318.41 1268.75
7322.91 1102.89 1067.19 1225.77 1238.69
7325.7 1034.74 1084.94 1171.88 1216.07
7328.49 1117.17 1084.09 1250.55 1207.56
7331.28 1100.35 1105.64 1200.26 1216.23
7334.07 1099.39 1104.63 1197.87 1203.37
7336.86 1114.15 1091.54 1211.98 1188.34
7339.65 1061.06 1042.32 1155.18 1185
7342.43 951.747 1031.54 1187.84 1197.52
7345.22 1081.82 1016.86 1249.56 1211.65
7348.01 1017 1064.08 1197.56 1218.42
7350.8 1093.41 1063.3 1208.14 1195.81
7353.59 1079.48 1084.7 1181.72 1185.48
7356.38 1081.21 1066.38 1166.59 1170.42
7359.16 1038.46 1025.17 1162.95 1133.67
7361.95 955.829 1021.59 1071.47 1133.35
7364.74 1070.47 1005.23 1165.63 1120.8
7367.53 989.392 1043.88 1125.3 1149.99
7370.31 1071.78 1043.96 1159.03 1157.64
7373.1 1070.7 1068.01 1188.59 1172.71
7375.89 1061.57 1064.73 1170.51 1173.55
7378.67 1061.92 1052.71 1161.55 1156.8
7381.46 1034.64 1050.51 1138.34 1145.37
7384.24 1054.98 1016.43 1136.22 1116.18
7387.03 959.671 1018.97 1073.97 1120.56
7389.82 1042.27 1005.56 1151.47 1108.92
7392.6 1014.75 1042.93 1101.33 1128.83
7395.39 1071.76 1039.58 1133.7 1113.99
7398.17 1032.23 1047.34 1106.94 1128.19
7400.96 1038.04 993.777 1143.92 1109
7403.74 911.066 1008.04 1076.13 1137.82
7406.53 1075.01 989.745 1193.42 1133.18
7409.31 983.163 1028.29 1130 1145.27
7412.09 1026.71 1016.51 1112.39 1116.77
7414.88 1039.65 1014.74 1107.93 1088.1
7417.66 977.858 1012.2 1043.99 1085.68
7420.45 1019.08 1012.03 1105.12 1101.3
7423.23 1039.16 1030.23 1154.78 1131.74
7426.01 1032.45 1017.83 1135.32 1116.32
7428.79 981.885 1040.15 1058.87 1128.46
7431.58 1106.13 1027.25 1191.17 1143.7
7434.36 993.744 983.011 1181.06 1143.01
7437.14 849.158 914.041 1056.8 1091.89
7439.92 899.22 893.605 1037.79 1058.06
7442.71 932.439 918.341 1079.6 1072.21
7445.49 923.363 926.359 1099.24 1067.77
7448.27 923.275 917.497 1024.45 1062.95
7451.05 905.852 944.931 1065.15 1068.87
7453.83 1005.67 941.548 1117.01 1075.05
7456.61 913.127 929.521 1042.98 1072.26
7459.39 869.769 919.668 1056.78 1071.93
7462.17 976.107 942.291 1116.03 1102.15
7464.95 980.996 966.151 1133.65 1118.75
7467.73 941.35 943.755 1106.59 1086.84
7470.51 908.92 941.098 1020.28 1088.76
7473.29 973.024 942.496 1139.42 1074.3
7476.07 945.542 932.225 1063.18 1059.92
7478.85 878.107 933.078 977.163 1063.02
7481.63 975.585 925.068 1148.7 1072.75
7484.41 921.513 952.273 1092.4 1120.48
7487.19 959.72 946.205 1120.34 1097.52
7489.97 957.383 932.919 1079.81 1094.27
7492.75 881.653 920.094 1082.66 1067.78
7495.53 921.245 919.735 1040.85 1066.36
7498.3 956.308 916.999 1075.57 1057.97
7501.08 873.442 924.092 1057.5 1069.07
7503.86 942.526 910.163 1074.14 1041.13
7506.64 914.521 909.946 991.763 1015.36
7509.41 872.793 907.579 980.192 1001.32
7512.19 935.425 917.662 1032 1018.28
7514.97 944.77 905.962 1042.67 1015.26
7517.74 837.693 909.397 971.104 1024.01
7520.52 945.729 884.815 1058.27 1020.53
7523.3 871.023 907.609 1032.21 1047.44
7526.07 906.076 888.711 1051.85 1021.64
7528.85 889.034 897.874 980.859 1038.85
7531.62 898.512 883.737 1083.84 1032.58
7534.4 863.666 904.466 1033.05 1065.44
7537.17 951.219 908.4 1079.42 1042.2
7539.95 910.314 926.295 1014.14 1047.7
7542.72 917.353 920.925 1049.54 1028.01
7545.5 935.109 906.221 1020.34 1010.53
7548.27 866.2 902.41 961.713 994.933
7551.05 905.92 889.674 1002.75 976.475
7553.82 896.902 901.434 964.965 972.946
7556.59 901.48 896.618 951.127 967.065
7559.37 891.473 911.209 985.105 988.047
7562.14 940.673 898.298 1027.91 990.173
7564.91 862.749 889.056 957.504 978.366
7567.69 863.746 881.463 949.684 973.135
7570.46 917.894 886.516 1012.22 979.055
7573.23 877.908 893.137 975.265 1000.7
7576.01 883.609 888.634 1014.62 982.654
7578.78 904.383 866.952 958.076 958.704
7581.55 812.862 857.094 903.415 948.378
7584.32 854.036 823.571 983.643 940.462
7587.09 803.815 816.962 934.327 928.379
7589.86 793.036 724.77 867.168 817.947
7592.64 577.46 577.436 652.345 652.925
7595.41 361.813 415.557 439.261 485.592
7598.18 307.397 300.795 365.169 358.772
7600.95 233.173 267.986 271.886 308.814
7603.72 263.387 248.263 289.388 275.441
7606.49 248.229 281.48 265.05 298.581
7609.26 332.825 345.823 341.306 370.627
7612.03 456.414 442.629 505.526 464.988
7614.8 538.649 525.394 548.133 553.386
7617.57 581.118 547.078 606.501 581.348
7620.34 521.466 519.334 589.41 573.178
7623.1 455.417 473.89 523.622 527.609
7625.87 444.786 451.517 469.794 494.281
7628.64 454.348 447.08 489.425 480.661
7631.41 442.106 468.47 482.764 516.092
7634.18 508.955 477.595 576.088 530.669
7636.95 481.724 508.988 533.157 553.894
7639.71 536.284 526.111 552.438 559.981
7642.48 560.325 549.879 594.348 567.366
7645.25 553.028 579.284 555.312 602.164
7648.01 624.5 591.343 656.831 618.289
7650.78 596.5 620.37 642.723 648.905
7653.55 640.11 624.319 647.16 664.727
7656.31 636.346 641.101 704.299 669.127
7659.08 646.848 654.112 655.923 684.849
7661.85 679.142 672.747 694.326 697.122
7664.61 692.25 701.151 741.118 747.282
7667.38 732.061 731.56 806.403 800.562
7670.14 770.37 748.72 854.166 816.901
7672.91 743.731 752.665 790.135 804.138
7675.67 743.894 745.8 768.112 782.662
7678.44 749.777 783.548 789.739 816.122
7681.2 856.974 787.766 890.516 820.414
7683.97 756.546 798.141 780.987 828.96
7686.73 780.905 780.268 815.379 815.654
7689.5 803.354 782.58 850.595 818.023
7692.26 763.48 787.927 788.096 827.289
7695.02 796.948 785.208 843.176 808.407
7697.79 795.197 802.961 793.949 826.96
7700.55 816.737 806.39 843.754 820.904
7703.31 807.235 814.293 825.009 845.581
7706.07 818.906 760.438 867.981 813.884
7708.84 655.172 748.315 748.662 769.46
7711.6 770.866 719.736 691.739 735.727
7714.36 733.17 748.95 766.782 736.225
7717.12 742.813 731.204 750.155 782.206
7719.88 717.628 715.866 829.681 800.445
7722.65 687.158 737.129 821.5 837.332
7725.41 806.601 731.654 860.814 844.073
7728.17 701.203 755.335 849.904 839.06
7730.93 758.2 755.795 806.461 831.778
7733.69 807.981 788.104 838.97 823.684
7736.45 798.131 788.762 825.621 816.381
7739.21 760.174 766.8 784.551 787.315
7741.97 742.096 745.931 751.773 739.099
7744.73 735.523 749.487 680.974 716.913
7747.49 770.842 766.207 717.992 706.157
7750.25 792.258 780.935 719.505 738.026
7753.01 779.706 789.017 776.58 782.755
7755.77 795.089 786.665 852.179 809.604
7758.53 785.201 806.64 800.052 836.111
7761.28 839.629 778.893 856.101 802.512
7764.04 711.85 785.588 751.384 805.449
7766.8 805.284 746.898 808.862 757.061
7769.56 723.56 789.414 710.938 785.51
7772.32 839.398 787.823 836.731 771.032
7775.07 800.511 800.216 765.426 773.823
7777.83 760.738 775.699 719.312 742.379
7780.59 765.848 743.489 742.4 738.27
7783.34 703.882 746.003 753.097 753.294
7786.1 768.279 763.046 764.384 761.999
7788.86 816.978 790.424 768.515 767.703
7791.61 786.013 761.402 770.21 750.343
7794.37 681.214 689.004 712.304 728.281
7797.12 599.783 686.167 702.33 731.765
7799.88 777.503 688.703 780.662 714.881
7802.63 688.825 741.601 661.653 734.257
7805.39 758.477 734.225 760.457 713.345
7808.14 755.372 769.778 717.926 756.62
7810.9 795.484 767.848 791.477 742.585
7813.65 752.689 770.427 718.352 743.012
7816.41 763.109 753.746 719.205 730.095
7819.16 745.439 748.657 752.727 734.423
7821.91 737.424 745.021 731.336 738.172
7824.67 752.2 741.187 730.453 729.943
7827.42 733.938 710.558 728.04 703.479
7830.17 645.536 708.826 651.945 706.977
7832.93 747.003 698.459 740.947 697.736
7835.68 702.838 725.748 700.315 705.236
7838.43 727.404 724.772 674.446 699.844
7841.18 744.074 732.73 724.771 700.609
7843.94 726.711 720.828 702.608 676.403
7846.69 691.699 725.293 601.828 660.786
7849.44 757.469 687.918 677.921 661.998
7852.19 614.586 667.784 706.246 726.949
7854.94 631.299 655.337 796.678 745.051
7857.69 720.126 707.646 732.23 750.162
7860.44 771.514 719.724 721.577 706.225
7863.19 667.534 712.792 664.869 688.652
7865.94 699.327 705.153 679.51 687.088
7868.69 748.599 714.28 716.885 680.23
7871.44 694.914 709.408 644.294 661.59
7874.19 684.712 707.566 623.591 654.975
7876.94 743.071 694.537 697.041 649.063
7879.69 655.828 721.1 626.556 678.061
7882.44 764.402 685.114 710.585 659.645
7885.19 635.112 707.88 641.793 666.215
7887.94 724.126 644.592 646.267 630.634
7890.69 574.538 616.024 603.842 620.293
7893.43 549.408 599.595 610.769 623.054
7896.18 674.839 632.328 654.552 633.651
7898.93 672.738 652.631 635.633 631.555
7901.68 610.315 658.313 604.481 626.655
7904.42 691.886 657.014 639.851 597.97
7907.17 668.843 649.511 549.579 585.262
7909.92 587.805 649.328 566.356 562.892
7912.66 691.334 660.32 572.74 595.193
7915.41 701.819 692.599 646.484 625.905
7918.16 684.642 679.346 658.491 651.9
7920.9 651.576 670.682 650.726 638.027
7923.65 675.828 649.19 604.864 614.64
7926.39 620.165 646.832 588.331 600.049
7929.14 644.502 638.099 606.951 603.015
7931.88 649.629 638.489 613.763 603.905
7934.63 621.334 648.243 591.001 617.299
7937.37 673.765 623.354 647.131 606.236
7940.12 574.963 647.046 580.576 610.771
7942.86 692.408 632.273 604.606 578.668
7945.6 629.447 660.97 550.821 586.972
7948.35 661.054 640.935 605.489 582.787
7951.09 632.305 638.834 592.052 607.672
7953.84 623.143 643.791 625.474 606.378
7956.58 675.923 659.666 601.607 612.868
7959.32 679.932 671.583 611.524 590.633
7962.06 658.894 660.058 558.769 564.369
7964.81 641.347 648.686 522.815 584.656
7967.55 645.815 657.306 672.383 613.618
7970.29 684.757 654.093 645.657 622.46
7973.03 631.708 669.416 549.34 594
7975.77 691.785 670.395 587.003 580.321
7978.51 687.693 689.943 604.622 584.232
7981.25 690.351 673.504 561.072 570.205
7983.99 642.468 670.335 544.921 573.208
7986.74 678.187 649.504 613.63 557.797
7989.48 627.858 644.997 514.841 549.003
7992.22 628.944 639.75 518.537 542.062
7994.96 662.448 646.687 592.809 568.333
7997.69 648.668 638.339 593.654 585.296
8000.43 603.899 621.008 569.424 587.233
8003.17 610.456 622.619 598.621 589.7
8005.91 653.501 641.151 601.054 586.618
8008.65 659.496 660 560.178 588.116
8011.39 667.004 573.005 603.115 517.741
8014.13 392.514 492.554 389.93 457.486
8016.87 418.145 350.112 379.413 373.239
8019.6 239.678 332.6 350.375 346.292
8022.34 339.978 396.944 309.087 384.013
8025.08 611.174 481.799 492.578 422.771
8027.81 494.244 560.672 466.647 517.216
8030.55 576.596 557.827 592.422 531.485
8033.29 602.641 577.499 535.386 550.653
8036.02 553.26 595.829 524.151 534.473
8038.76 631.586 583.451 543.881 527.682
8041.5 565.507 598.172 515.013 520.778
8044.23 597.423 594.97 503.44 519.072
8046.97 621.981 604.303 538.763 517.783
8049.7 593.507 613.624 511.147 538.095
8052.44 625.384 629.618 564.376 544.271
8055.17 669.965 632.923 557.292 543.305
8057.91 603.422 644.683 508.249 533.552
8060.64 660.663 638.733 535.115 538.975
8063.38 652.114 643.098 573.562 544.92
8066.11 616.518 615.845 526.081 530.142
8068.84 578.905 591.567 490.784 512.796
8071.58 579.28 581.563 521.522 502.971
8074.31 586.504 589.776 496.607 507.176
8077.04 603.545 589.929 503.398 499.433
8079.78 579.738 592.067 498.294 500.018
8082.51 592.917 573.86 498.363 486.828
8085.24 548.926 570.32 463.828 482.123
8087.97 569.118 558.22 484.178 479.262
8090.7 556.617 566.895 489.781 484.724
8093.44 574.951 575.344 480.214 484.304
8096.17 594.463 572.565 482.917 489.464
8098.9 548.28 563.221 505.262 476.434
8101.63 546.919 541.702 441.122 473.157
8104.36 529.907 568.015 473.088 478.754
8107.09 627.218 574.482 522.053 486.583
8109.82 566.323 581.252 464.607 479.528
8112.55 550.217 565.02 451.924 467.801
8115.28 578.52 570.636 486.872 467.548
8118.01 583.172 592.132 463.848 487.607
8120.74 614.703 592.55 512.101 480.096
8123.47 579.774 585.693 464.338 485.434
8126.2 562.602 578.735 479.863 488.868
8128.92 593.827 571.699 522.402 487.016
8131.65 558.667 579.825 458.782 491.485
8134.38 586.979 557.329 493.272 459.516
8137.11 526.34 555.429 426.495 461.523
8139.84 552.967 547.485 464.803 452.479
8142.56 563.149 558.535 466.139 461.921
8145.29 559.49 550.504 454.822 460.372
8148.02 528.872 543.689 460.156 450.071
8150.74 542.704 537.681 435.236 437.466
8153.47 541.466 542.557 417.006 434.607
8156.2 543.5 535.22 451.581 434.239
8158.92 520.695 526.536 434.13 433.732
8161.65 515.414 521.739 415.486 423.905
8164.37 529.109 506.592 422.099 401.899
8167.1 475.254 513.345 368.113 400.79
8169.82 535.671 518.24 412.158 396.942
8172.55 543.796 558.237 410.555 426.069
8175.27 595.245 551.635 455.494 428.044
8178 515.864 541.951 418.081 431.447
8180.72 514.744 523.123 420.765 410.2
8183.45 538.761 528.313 391.752 414.666
8186.17 531.434 531.616 431.48 410.477
8188.89 524.654 523.012 408.198 411.924
8191.62 512.949 518.376 396.095 399.036
8194.34 517.526 529.292 392.816 410.904
8197.06 557.401 527.196 443.802 405.335
8199.78 506.661 544.518 379.389 425.564
8202.51 569.492 537.241 453.502 419.92
8205.23 535.57 556.112 426.87 437.305
8207.95 563.275 538.274 431.543 425.858
8210.67 515.976 533.664 419.16 420.184
8213.39 521.742 532.406 409.85 421.248
8216.11 559.5 529.578 434.735 423.464
8218.83 507.493 529.521 425.807 427.271
8221.55 521.569 509.837 421.273 409.172
8224.27 500.448 500.481 380.436 392.038
8226.99 479.424 493.206 374.404 386.283
8229.71 499.745 500.45 404.009 393.293
8232.43 522.18 517.79 401.466 403.95
8235.15 531.445 526.38 406.373 403.239
8237.87 525.514 526.957 401.876 404.235
8240.59 523.91 511.888 404.455 392.094
8243.31 486.24 506.752 369.949 387.573
8246.03 510.105 515.107 388.316 394.816
8248.75 548.977 536.225 426.185 409.04
8251.46 549.595 540.863 412.62 416.426
8254.18 524.018 509.592 410.474 392.558
8256.9 455.163 506.824 354.581 386.798
8259.62 541.293 503.652 395.339 381.313
8262.33 514.501 523.543 394.021 402.344
8265.05 514.834 511.359 417.673 398.565
8267.77 504.742 518.869 384 397.839
8270.48 537.031 514.931 391.843 380.159
8273.2 503.019 518.231 364.632 374.035
8275.91 514.644 484.893 365.629 366.028
8278.63 437.015 495.739 367.822 371.55
8281.34 535.56 489.428 381.197 358.747
8284.06 495.71 504 327.22 365.597
8286.77 480.732 497.524 388.374 363.16
8289.49 516.131 485.855 373.885 382.983
8292.2 460.701 464.01 386.691 371.152
8294.92 415.198 453.517 352.88 353.275
8297.63 484.652 463.245 320.255 341.196
8300.34 489.885 488.587 350.454 346.072
8303.06 491.225 470.078 367.507 367.677
8305.77 429.124 459.878 385.068 380.12
8308.48 459.286 446.923 387.786 379.271
8311.2 452.36 457.818 364.961 385.082
8313.91 461.808 459.909 402.501 376.781
8316.62 465.558 469.27 362.882 384.118
8319.33 480.443 478.688 386.972 378.257
8322.04 490.064 476.784 384.917 389.814
8324.75 459.844 462.694 397.554 371.704
8327.47 438.174 386.347 332.641 309.013
8330.18 261.021 324.181 196.843 254.084
8332.89 273.347 257.094 232.769 212.552
8335.6 236.914 339.061 208.045 272.533
8338.31 506.922 427.515 376.786 304.852
8341.02 538.709 504.154 329.725 356.625
8343.73 466.83 473.209 363.363 365.291
8346.44 414.09 443.793 402.785 377.534
8349.15 450.458 430.973 366.456 375.64
8351.85 428.371 444.981 357.679 358.596
8354.56 456.114 427.69 351.655 353.178
8357.27 398.585 431.296 350.201 332.243
8359.98 439.188 446.764 294.872 356.517
8362.69 502.519 464.987 424.476 354.212
8365.39 453.252 470.85 343.288 378.551
8368.1 456.778 462.962 367.89 358.654
8370.81 478.854 457.143 364.784 357.595
8373.52 435.797 457.383 340.111 360.53
8376.22 457.497 452.755 376.695 348.288
8378.93 464.971 454.102 328.057 357.052
8381.64 439.837 461.065 366.403 343.017
8384.34 478.386 455.428 334.592 339.842
8387.05 448.062 475.502 318.532 338.938
8389.75 500.057 466.068 363.691 350.314
8392.46 450.086 485.028 368.719 360.335
8395.16 504.941 468.504 348.595 340.868
8397.87 450.485 481.889 305.289 327.426
8400.57 490.243 459.098 328.395 324.994
8403.28 436.568 380.757 341.3 290.775
8405.98 215.461 302.037 202.63 251.412
8408.68 254.083 311.075 210.306 252.308
8411.39 463.682 394.75 343.987 294.332
8414.09 466.484 478.518 328.702 342.478
8416.79 505.388 478.83 354.744 356.608
8419.5 464.619 478.532 386.377 353.786
8422.2 465.589 461.094 320.237 345.988
8424.9 453.074 446.479 331.35 326.644
8427.6 420.772 469.238 328.345 328.476
8430.3 533.866 457.518 325.733 322.461
8433 417.917 448.628 313.305 321.814
8435.71 394.101 424.622 326.405 329.456
8438.41 461.847 430.3 348.657 333.652
8441.11 434.952 460.189 325.893 345.237
8443.81 483.767 463.579 361.162 330.618
8446.51 472.02 467.834 304.798 327.485
8449.21 447.715 456.626 316.497 309.416
8451.91 450.144 448.621 306.952 325.309
8454.61 448.005 452.832 352.477 323.949
8457.31 460.347 449.229 312.419 321.359
8460.01 439.336 453.561 299.182 293.08
8462.7 461 449.689 267.638 259.541
8465.4 448.732 466.292 211.804 265.702
8468.1 489.144 449.466 317.665 271.412
8470.8 410.521 445.957 284.768 307.512
8473.5 438.206 435.37 320.103 303.313
8476.19 457.382 458.13 305.066 321.705
8478.89 478.801 478.685 339.945 337.142
8481.59 499.872 486.922 366.415 347.061
8484.28 482.094 482.675 334.822 331.358
8486.98 466.058 471.51 292.838 308.998
8489.68 466.376 453.554 299.335 286.799
8492.37 428.227 439.607 268.223 280.699
8495.07 424.216 417.722 274.539 269.189
8497.76 400.723 408.817 264.805 274.395
8500.46 401.513 418.501 283.842 277.986
8503.15 453.267 434.28 285.311 281.865
8505.85 448.059 451.093 276.443 283.607
8508.54 451.951 444.794 289.068 301.876
8511.24 434.37 443.867 340.116 307.944
8513.93 445.279 454.33 294.648 314.746
8516.62 483.342 460.696 309.473 301.45
8519.32 453.468 467.237 300.228 307.273
8522.01 464.9 450.248 312.117 303.858
8524.7 432.376 454.349 299.229 311.998
8527.4 465.77 446.3 324.646 305.323
8530.09 440.754 440.36 292.095 300.144
8532.78 414.555 415.759 283.692 269.1
8535.47 391.969 381.233 231.514 237.227
8538.16 337.175 357.409 196.476 228.95
8540.85 343.082 361.042 258.861 236.865
8543.54 402.869 388.649 255.259 255.224
8546.24 419.996 430.989 251.552 270.683
8548.93 470.102 445.904 305.237 281.374
8551.62 447.615 464.031 287.331 294.406
8554.31 474.377 472.501 290.649 301.335
8557 495.511 475.246 326.024 304.296
8559.69 455.85 480.075 296.216 314.014
8562.37 488.863 466.823 319.803 306.722
8565.06 455.755 468.66 304.147 302.237
8567.75 461.361 458.972 282.763 286.307
8570.44 459.801 474.523 272.01 288.541
8573.13 502.407 484.169 310.851 288.406
8575.82 490.298 475.303 282.356 291.375
8578.5 433.202 471.155 280.919 289.223
8581.19 489.963 464.28 304.393 291.113
8583.88 469.676 484.069 288.027 298.17
8586.57 492.568 495.329 302.09 311.509
8589.25 523.742 499.622 344.411 324.811
8591.94 482.557 477.605 327.932 317.073
8594.63 426.515 468.215 278.875 306.836
8597.31 495.572 464.492 313.7 291.673
8600 471.388 484.778 282.443 295.438
8602.68 487.374 473.776 290.17 288.051
8605.37 462.566 483.128 291.539 294.769
8608.05 499.445 464.351 302.597 295.234
8610.74 431.042 460.422 291.565 280.832
8613.42 450.78 444.577 248.333 273.063
8616.1 451.91 460.336 279.291 272.123
8618.79 478.318 472.326 288.744 280.11
8621.47 486.752 480.905 272.296 283.92
8624.16 477.645 461.647 290.72 289.567
8626.84 420.543 465.419 305.686 292.664
8629.52 498.067 460.078 281.586 267.952
8632.2 461.622 471.577 216.585 245.843
8634.89 455.043 467.98 239.357 244.834
8637.57 487.274 482.569 278.559 268.835
8640.25 505.39 480.075 288.589 279.451
8642.93 447.559 470.092 271.205 256.705
8645.61 457.327 460.317 210.321 240.466
8648.29 476.066 478.133 239.872 249.737
8650.97 501.007 479.175 299.019 264.007
8653.65 460.451 468.309 253.13 257.326
8656.33 443.469 412.136 219.831 218.495
8659.01 332.487 373.33 182.526 200.035
8661.69 344.034 358.217 197.747 183.131
8664.37 398.129 396.976 169.121 193.532
8667.05 448.765 424.087 213.727 194.467
8669.73 425.367 442.045 200.552 220.246
8672.41 452.002 455.161 246.458 243.451
8675.09 488.113 460.268 283.344 242.09
8677.76 440.688 462.882 196.467 233.461
8680.44 459.844 461.734 220.571 226.722
8683.12 484.671 474.881 263.128 243.408
8685.8 480.128 479.612 246.525 258.299
8688.47 474.036 471.667 265.244 245.333
8691.15 460.836 479.938 224.231 245.624
8693.83 504.941 476.818 247.397 243.146
8696.5 464.679 494.123 257.811 248.879
8699.18 512.749 467.656 241.43 241.923
8701.85 425.54 469.074 226.529 232.434
8704.53 468.934 467.586 229.344 235.833
8707.2 508.283 507.582 251.625 243.235
8709.88 545.53 506.964 248.737 242.938
8712.55 467.077 497.623 228.452 237.611
8715.23 480.262 480.154 235.644 244.839
8717.9 493.123 491.609 270.422 247.497
8720.58 501.442 486.624 236.427 244.489
8723.25 465.308 481.778 226.617 235.158
8725.92 478.585 462.859 242.43 225.207
8728.6 444.684 470.607 206.573 228.879
8731.27 488.552 469.437 237.633 237.33
8733.94 475.074 469.389 267.785 236.332
8736.61 444.543 464.963 203.579 229.842
8739.28 475.271 463.871 218.164 215.246
8741.96 471.8 487.374 223.996 236.544
8744.63 515.051 481.893 267.471 247.327
8747.3 458.83 477.435 250.513 250.938
8749.97 458.424 457.701 234.829 234.456
8752.64 455.849 456.303 218.025 217.705
8755.31 454.636 457.873 200.261 202.369
8757.98 463.135 462.381 188.821 201.283
8760.65 469.372 474.515 214.769 212.783
8763.32 491.038 484.015 234.759 191.638
8765.99 491.636 484.829 125.388 186.215
8768.66 471.814 477.388 198.499 172.054
8771.33 468.715 447.753 192.274 184.222
8773.99 402.73 445.177 161.892 205.808
8776.66 464.086 446.144 263.259 213.58
8779.33 471.615 477.244 215.588 233.58
8782 496.029 445.175 221.891 203.193
8784.66 367.88 428.084 172.099 188.415
8787.33 420.342 417.228 171.254 178.484
8790 463.463 445.382 192.1 198.912
8792.66 452.341 454.383 233.38 198.702
8795.33 447.346 445.384 170.624 199.375
8798 436.463 467.669 194.122 205.081
8800.66 519.199 459.006 250.496 217.515
8803.33 421.356 454.81 207.926 215.933
8805.99 423.874 422.381 189.378 194.411
8808.66 421.913 435.685 185.93 202.017
8811.32 461.268 449.882 230.744 202.037
8813.99 466.464 471.256 189.437 205.66
8816.65 486.035 485.386 196.8 197.288
8819.31 503.66 487.075 205.626 197.213
8821.98 471.53 477.249 189.211 186.399
8824.64 456.557 477.756 164.359 174.31
8827.3 505.18 453.686 169.359 162.364
8829.97 399.32 418.917 153.374 202.919
8832.63 352.251 402.217 286.023 229.437
8835.29 455.081 404.749 248.914 216.412
8837.95 406.916 455.774 114.298 188.273
8840.61 505.326 457.088 201.608 177.356
8843.28 459.023 482.022 216.163 207.046
8845.94 481.719 467.077 203.367 213.123
8848.6 460.488 461.018 219.839 212.07
8851.26 440.848 454.209 213.005 184.635
8853.92 461.291 470.4 121.062 177.448
8856.58 509.062 472.658 198.277 169.401
8859.24 447.621 466.75 188.865 185.237
8861.9 443.567 443.425 168.569 191.099
8864.56 439.088 442.291 215.863 179.353
8867.21 444.218 430.373 153.627 180.164
8869.87 407.812 439.954 171 160.405
8872.53 467.832 434.162 156.588 165.148
8875.19 426.844 449.31 167.854 156.671
8877.85 453.255 438.329 145.57 148.86
8880.5 434.89 451.497 133.156 147.681
8883.16 466.346 477.08 164.318 181.17
8885.82 530.005 490.983 246.036 207.629
8888.47 476.598 507.205 212.532 250.57
8891.13 515.014 479.17 293.143 186.929
8893.79 445.898 465.518 55.112 123.371
8896.44 435.643 455.249 21.8578 71.0544
8899.1 484.207 455.791 136.193 118.196
8901.75 447.524 479.203 196.537 185.686
8904.41 505.878 473.519 224.328 187.138
8907.06 467.156 474.348 140.548 157.864
8909.72 450.011 448.709 108.715 107.601
8912.37 428.96 431.312 73.5405 69.4807
8915.03 414.966 433.822 26.1868 102.739
8917.68 457.541 434.898 208.49 145.683
8920.33 432.188 434.442 202.371 207.7
8922.98 413.597 420.909 212.239 133.994
8925.64 416.942 396.986 -12.6295 -19.7776
8928.29 360.419 400.126 -258.942 -137.614
8930.94 423.016 398.323 -141.269 -120.801
8933.59 411.534 428.611 37.8075 13.6776
8936.25 451.282 438.843 144.495 98.9598
8938.9 453.713 463.097 114.577 147.48
8941.55 484.294 446.139 183.366 167.472
8944.2 400.409 434.581 204.472 187.761
8946.85 419.039 405.473 175.444 148.026
8949.5 396.97 424.022 64.1606 105.873
8952.15 456.057 399.832 78.0146 83.9837
8954.8 346.469 420.863 109.776 146.122
8957.45 460.064 406.556 250.576 194.898
8960.1 413.135 417.741 224.342 202.978
8962.75 380.023 394.848 134.015 105.884
8965.39 391.384 374.273 -40.7057 -21.9975
8968.04 351.412 392.168 -159.302 -47.6337
8970.69 433.707 389.862 57.1064 1.67857
8973.34 384.468 409.026 107.231 105.514
8975.99 408.904 403.086 152.205 131.343
8978.63 415.884 411.781 134.593 154.152
8981.28 410.555 398.967 175.657 147.808
8983.93 370.461 395.397 133.174 167.024
8986.57 405.175 393.321 192.241 191.01
8989.22 404.328 384.679 247.615 190.972
8991.86 344.535 376.121 133.06 173.866
8994.51 379.501 365.936 140.924 123.911
8997.15 373.771 377.659 97.7488 133.449
8999.8 379.706 401.957 161.674 171.121
9002.44 452.394 382.256 253.942 216.686
9005.09 314.667 377.027 234.442 183.689
9007.73 364.019 351.177 62.6823 95.9967
9010.38 374.844 364.374 -9.13402 37.0293
9013.02 354.26 370.945 57.5396 66.0273
9015.66 383.73 367.573 149.676 128.789
9018.3 364.73 376.903 179.152 157.705
9020.95 382.249 374.393 144.286 160.736
9023.59 376.201 370.53 158.77 144.326
9026.23 353.139 377.725 129.921 156.919
9028.87 403.835 388.656 182.066 158.993
9031.51 408.996 407.093 164.993 174.545
9034.16 408.448 410.885 176.576 172.879
9036.8 415.212 409.006 177.067 170.35
9039.44 403.358 399.568 157.405 170.811
9042.08 380.135 385.77 177.961 156.16
9044.72 373.817 401.477 133.114 159.529
9047.36 450.479 408.418 167.51 171.777
9050 400.957 414.527 214.706 171.325
9052.64 392.143 395.212 131.759 155.394
9055.27 392.536 393.667 119.718 101.598
9057.91 396.321 384.055 53.3182 81.2126
9060.55 363.308 374.873 70.602 84.9801
9063.19 364.991 368.832 131.02 118.121
9065.83 378.197 377.749 152.742 145.305
9068.46 390.06 385.007 152.154 158.3
9071.1 386.764 388.888 170.004 149.906
9073.74 389.84 352.058 127.561 133.35
9076.37 279.569 290.895 102.486 98.396
9079.01 203.277 160.949 65.1417 55.8758
