wavelength spectrum_sum 3smoothed_sum spectrum_optimal 3smoothed_optimal
3513.73 12.5493 13.4905 20.9064 20.367
3516.65 27.9222 22.4008 40.1948 26.8225
3519.57 26.7307 29.7051 19.3665 30.6228
3522.48 34.4623 34.6031 32.307 30.4553
3525.4 42.6162 43.3778 39.6925 37.2987
3528.31 53.0548 48.4703 39.8965 36.7747
3531.23 49.7399 49.0009 30.7352 36.9091
3534.14 44.208 48.9989 40.0955 35.1077
3537.06 53.0487 44.1573 34.4925 33.7244
3539.97 35.2152 47.2966 26.5854 37.072
3542.89 53.6259 45.1417 50.1383 41.6737
3545.8 46.5841 57.5585 48.2974 55.5564
3548.72 72.4656 52.4592 68.2335 52.0491
3551.63 38.328 52.1204 39.6162 51.0134
3554.55 45.5678 45.9378 45.1905 49.325
3557.46 53.9176 53.3247 63.1682 58.2475
3560.38 60.4887 53.5451 66.3839 54.148
3563.3 46.229 48.7574 32.892 49.6166
3566.21 39.5546 44.8868 49.5738 40.9468
3569.13 48.8766 40.0801 40.3745 45.6041
3572.04 31.809 44.5026 46.8642 42.5934
3574.96 52.8222 42.3176 40.5416 47.7353
3577.87 42.3215 46.0908 55.8 44.6234
3580.79 43.1288 39.6235 37.5286 47.4756
3583.7 33.4202 37.2463 49.0983 41.6053
3586.62 35.1898 42.0307 38.189 48.1888
3589.53 57.4819 45.8791 57.2792 47.3377
3592.45 44.9655 58.461 46.5449 57.3726
3595.36 72.9356 56.7221 68.2938 52.9384
3598.28 52.2651 65.3484 43.9764 61.1013
3601.19 70.8445 61.5536 71.0339 58.2701
3604.11 61.5513 62.3244 59.8 61.2402
3607.02 54.5774 62.1984 52.8867 58.8764
3609.94 70.4665 61.11 63.9424 59.3108
3612.85 58.2861 61.9196 61.1031 56.1132
3615.77 57.0062 54.069 43.294 53.6841
3618.68 46.9149 56.4289 56.6553 54.7638
3621.6 65.3658 63.3224 64.3421 66.9112
3624.51 77.6867 69.4055 79.7363 64.3961
3627.43 65.1641 74.339 49.1097 71.3165
3630.34 80.1661 73.9917 85.1033 71.8716
3633.26 76.6449 75.1367 81.4017 80.1098
3636.17 68.5992 73.0034 73.8243 77.6499
3639.09 73.766 70.5165 77.7237 75.9888
3642 69.1844 67.7638 76.4184 73.8917
3644.92 60.3411 72.896 67.5329 76.6987
3647.83 89.1625 78.3731 86.1446 81.5358
3650.75 85.6156 89.6581 90.9297 91.9873
3653.66 94.1963 89.8405 98.8875 89.5009
3656.58 89.7094 90.4542 78.6854 91.2238
3659.49 87.4569 96.1468 96.0985 90.3374
3662.41 111.274 99.773 96.2284 93.775
3665.32 100.588 103.998 88.998 99.8688
3668.24 100.131 100.95 114.38 101.792
3671.15 102.132 103.309 101.999 112.251
3674.07 107.664 102.254 120.376 104.439
3676.98 96.9646 99.5976 90.9434 102.204
3679.9 94.1638 97.7063 95.292 93.716
3682.81 101.991 93.1908 94.9127 87.7454
3685.73 83.4181 93.0447 73.0315 88.8303
3688.64 93.7254 98.0049 98.5467 92.3865
3691.56 116.871 112.05 105.581 107.943
3694.47 125.553 116.827 119.702 111.846
3697.38 108.057 112.932 110.255 107.426
3700.3 105.186 106.902 92.321 104.439
3703.21 107.463 106.828 110.741 98.7951
3706.13 107.837 113.684 93.3235 107.172
3709.04 125.752 112.461 117.452 106.337
3711.96 103.793 116.12 108.236 107.528
3714.87 118.815 110.267 96.8965 97.8379
3717.79 108.192 112.683 88.3813 93.6597
3720.7 111.042 112.523 95.7012 100.708
3723.62 118.336 118.694 118.043 115.622
3726.53 126.703 114.847 133.121 123.126
3729.45 99.5013 100.183 118.213 113.739
3732.36 74.3454 92.1631 89.883 101.928
3735.27 102.643 92.1113 97.6867 104.554
3738.19 99.3459 106.738 126.093 117.759
3741.1 118.226 108.469 129.497 126.347
3744.02 107.834 108.085 123.45 124.654
3746.93 98.1952 97.7768 121.016 109.259
3749.85 87.3012 103.353 83.3116 107.703
3752.76 124.562 114.472 118.782 110.582
3755.68 131.551 120.434 129.652 118.254
3758.59 105.188 118.447 106.326 117.723
3761.5 118.601 118.891 117.191 116.228
3764.42 132.884 129.725 125.166 123.982
3767.33 137.689 134.039 129.589 133.873
3770.25 131.544 141.279 146.865 144.921
3773.16 154.603 148.445 158.309 154.763
3776.08 159.188 161.16 159.117 164.014
3778.99 169.688 167.528 174.616 171.58
3781.9 173.709 169.685 181.008 181.329
3784.82 165.657 161.392 188.364 173.483
3787.73 144.811 152.526 151.078 161.509
3790.65 147.109 140.138 145.084 146.518
3793.56 128.493 142.334 143.392 155.551
3796.48 151.401 151.08 178.175 168.14
3799.39 173.347 161.531 182.851 175.952
3802.3 159.844 163.768 166.83 176.527
3805.22 158.112 157.58 179.901 165.729
3808.13 154.783 153.803 150.457 158.679
3811.05 148.513 138.919 145.679 136.681
3813.96 113.462 134.713 113.905 138.976
3816.87 142.162 134.789 157.344 148.729
3819.79 148.742 139.194 174.939 149.003
3822.7 126.677 127.636 114.725 138.634
3825.62 107.487 111.468 126.239 117.606
3828.53 100.241 105.082 111.855 115.493
3831.44 107.518 98.144 108.386 105.225
3834.36 86.6734 99.6746 95.4355 99.8318
3837.27 104.833 106.99 95.674 114.517
3840.18 129.464 127.852 152.441 131.467
3843.1 149.26 139.354 146.288 144.751
3846.01 139.338 150.037 135.523 144.571
3848.93 161.513 145.445 151.901 143.862
3851.84 135.484 138.499 144.162 137.967
3854.75 118.499 132.346 117.838 138.961
3857.67 143.055 144.888 154.884 146.072
3860.58 173.11 156.014 165.494 163.59
3863.49 151.875 156.498 170.39 162.285
3866.41 144.508 141.44 150.97 150.787
3869.32 127.936 132.87 131.001 137.455
3872.24 126.166 140.026 130.395 149.252
3875.15 165.976 145.889 186.361 159.675
3878.06 145.527 153.922 162.27 171.175
3880.98 150.263 150.618 164.895 165.641
3883.89 156.064 155.845 169.757 169.261
3886.8 161.21 170.435 173.13 178.432
3889.72 194.033 191.632 192.411 194.634
3892.63 219.654 206.526 218.361 205.33
3895.54 205.89 202.387 205.219 204.952
3898.46 181.616 198.614 191.276 205.637
3901.37 208.335 208.7 220.416 217.974
3904.28 236.149 217.251 242.23 226.847
3907.2 207.269 229.884 217.894 236.595
3910.11 246.233 230.559 249.66 240.415
3913.02 238.175 233.55 253.692 248.521
3915.94 216.241 222.032 242.21 243.824
3918.85 211.681 212.436 235.569 237.251
3921.76 209.386 203.955 233.973 223.469
3924.68 190.799 181.22 200.865 197.371
3927.59 143.475 157.02 157.275 169.472
3930.5 136.785 132.777 150.278 138.425
3933.41 118.071 127.882 107.724 128.936
3936.33 128.791 139.081 128.806 132.478
3939.24 170.38 163.951 160.905 165.832
3942.15 192.682 186.07 207.784 192.067
3945.07 195.148 197.021 207.512 213.87
3947.98 203.231 209.727 226.314 223.315
3950.89 230.803 225.849 236.118 242.388
3953.81 243.514 240.297 264.731 249.502
3956.72 246.574 241.184 247.655 251.709
3959.63 233.462 228.575 242.741 238.558
3962.54 205.687 204.338 225.279 215.481
3965.46 173.864 182.739 178.423 197.027
3968.37 168.666 176.143 187.379 184.032
3971.28 185.899 194.646 186.295 207.056
3974.2 229.373 217.034 247.494 224.783
3977.11 235.829 247.318 240.561 254.311
3980.02 276.751 274.779 274.879 276.091
3982.93 311.757 309.612 312.834 315.355
3985.85 340.326 332.312 358.352 338.4
3988.76 344.852 343.303 344.013 358.105
3991.67 344.729 347.118 371.951 353.217
3994.58 351.772 344.951 343.687 352.838
3997.5 338.353 370.02 342.874 368.961
4000.41 419.935 375.41 420.321 377.776
4003.32 367.942 396.367 370.132 406.95
4006.23 401.224 391.248 430.398 402.552
4009.15 404.579 411.326 407.127 433.109
4012.06 428.176 413.742 461.801 433.154
4014.97 408.47 423.415 430.533 454.044
4017.88 433.598 422.578 469.798 453.157
4020.8 425.667 428.647 459.14 454.235
4023.71 426.677 415.33 433.768 436.114
4026.62 393.645 410.639 415.434 425.803
4029.53 411.594 421.467 428.208 448.211
4032.44 459.161 434.204 500.991 474.09
4035.36 431.857 446.549 493.071 487.202
4038.27 448.63 432.515 467.543 477.166
4041.18 417.058 424.208 470.885 465.703
4044.09 406.937 409.059 458.682 457.021
4047 403.182 410.744 441.497 446.014
4049.92 422.114 432.858 437.863 461.822
4052.83 473.279 438.328 506.106 466.037
4055.74 419.59 428.723 454.143 457.217
4058.65 393.301 412.279 411.403 448.865
4061.56 423.945 410.318 481.048 443
4064.48 413.707 417.478 436.549 451.261
4067.39 414.783 428.231 436.186 455.726
4070.3 456.203 427.383 494.443 466.166
4073.21 411.163 441.029 467.87 480.916
4076.12 455.722 438.541 480.436 478.409
4079.03 448.736 462.177 486.92 493.605
4081.95 482.074 472.695 513.458 506.256
4084.86 487.275 491.7 518.391 526.556
4087.77 505.75 495.091 547.82 529.403
4090.68 492.249 504.702 521.997 537.249
4093.59 516.108 479.223 541.929 511.016
4096.5 429.311 476.254 469.12 505.587
4099.42 483.341 457.049 505.712 489.196
4102.33 458.494 479.404 492.757 514.744
4105.24 496.377 471.312 545.764 518.375
4108.15 459.065 505.377 516.605 554.108
4111.06 560.689 511.728 599.954 549.313
4113.97 515.43 549.133 531.378 586.774
4116.88 571.282 537.553 628.989 569.239
4119.79 525.949 541.472 547.348 578.413
4122.71 527.185 525.379 558.901 558.176
4125.62 523.002 518.959 568.279 548.481
4128.53 506.69 518.754 518.265 558.235
4131.44 526.57 528.819 588.163 571.417
4134.35 553.199 548.407 607.823 605.626
4137.26 565.453 563.715 620.894 608.977
4140.17 572.493 539.896 598.213 582.344
4143.08 481.742 539.401 527.925 583.721
4145.99 563.969 534.23 625.024 590.313
4148.91 556.98 555.85 617.99 608.784
4151.82 546.6 560.467 583.337 611.449
4154.73 577.821 569.924 633.02 612.616
4157.64 585.351 568.424 621.489 626.113
4160.55 542.099 567.167 623.828 620.982
4163.46 574.05 562.694 617.629 630.993
4166.37 571.932 565.852 651.52 633.592
4169.28 551.573 565.241 631.628 631.92
4172.19 572.218 576.023 612.612 642.669
4175.1 604.277 581.836 683.768 640.465
4178.01 569.014 584.482 625.016 642.979
4180.92 580.155 579.42 620.153 628.573
4183.83 589.092 591.913 640.55 648.826
4186.74 606.494 570.939 685.774 630.004
4189.65 517.231 580.818 563.689 642.67
4192.56 618.73 564.049 678.548 609.603
4195.47 556.187 577.523 586.572 630.338
4198.38 557.652 554.708 625.894 614.37
4201.3 550.284 563.828 630.644 637.911
4204.21 583.549 578.567 657.195 644.976
4207.12 601.869 591.962 647.09 638.591
4210.03 590.468 600.988 611.489 649.64
4212.94 610.627 597.692 690.341 662.881
4215.85 591.981 611.42 686.813 688.161
4218.76 631.654 606.862 687.328 679.636
4221.67 596.951 613.163 664.767 678.481
4224.58 610.884 610.408 683.349 675.188
4227.49 623.39 608.379 677.449 677.524
4230.4 590.863 608.796 671.776 687.697
4233.31 612.136 596.99 713.866 687.241
4236.22 587.972 607.617 676.082 702.774
4239.13 622.744 616.568 718.375 706.757
4242.03 638.987 614.89 725.813 689.719
4244.94 582.938 614.509 624.969 676.575
4247.85 621.602 604.49 678.944 655.951
4250.76 608.929 616.91 663.939 678.87
4253.67 620.2 622.437 693.727 690.207
4256.58 638.183 627.334 712.954 713.297
4259.49 623.618 634.723 733.211 722.244
4262.4 642.369 627.597 720.568 702.512
4265.31 616.805 608.082 653.758 662.045
4268.22 565.07 587.804 611.809 644.766
4271.13 581.535 587.512 668.733 647.575
4274.04 615.929 605.11 662.185 666.489
4276.95 617.864 617.821 668.549 675.184
4279.86 619.669 625.719 694.819 681.921
4282.77 639.624 583.587 682.395 689.155
4285.68 491.467 526.414 690.252 672.557
4288.59 448.153 465.672 645.026 667.261
4291.49 457.398 462.889 666.505 661.825
4294.4 483.116 441.226 673.944 631.684
4297.31 383.165 422.521 554.603 594.669
4300.22 401.281 407.576 555.461 567.941
4303.13 438.283 394.514 593.758 542.472
4306.04 343.979 388.383 478.196 541.757
4308.95 382.887 384.773 553.318 543.464
4311.86 427.452 440.156 598.878 618.211
4314.77 510.13 490.724 702.438 683.937
4317.67 534.591 510.252 750.494 714.65
4320.58 486.034 504.654 691.018 700.766
4323.49 493.338 505.479 660.787 704.667
4326.4 537.064 533.444 762.196 742.947
4329.31 569.93 563.512 805.856 799.283
4332.22 583.542 571.346 829.797 811.66
4335.13 560.566 568.021 799.325 798.646
4338.03 559.955 568.945 766.816 799.812
4340.94 586.313 583.152 833.297 812.48
4343.85 603.188 603.456 837.329 846.584
4346.76 620.867 603.938 869.128 838.134
4349.67 587.758 602.881 807.946 838.783
4352.57 600.017 604.855 839.274 836.417
4355.48 626.791 625.451 862.032 869.347
4358.39 649.544 647.353 906.736 890.119
4361.3 665.725 642.707 901.588 895.856
4364.21 612.852 640.148 879.244 900.294
4367.12 641.865 628.214 920.051 895.236
4370.02 629.925 630.236 886.414 890.98
4372.93 618.917 615.528 866.477 871.431
4375.84 597.742 613.609 861.404 877.392
4378.75 624.168 587.688 904.294 840.172
4381.65 541.153 596.573 754.819 850.064
4384.56 624.397 584.046 891.078 818.615
4387.47 586.588 606.436 809.948 847.253
4390.38 608.323 602.005 840.734 829.311
4393.28 611.103 628.102 837.253 868.181
4396.19 664.879 629.469 926.558 878.304
4399.1 612.425 635.285 871.101 896.375
4402.01 628.551 613.37 891.465 865.439
4404.91 599.134 613.512 833.751 869.688
4407.82 612.852 623.994 883.847 895.475
4410.73 659.998 639.777 968.827 914.887
4413.64 646.481 657.546 891.987 939.37
4416.54 666.16 654.73 957.297 939.625
4419.45 651.548 675.335 969.591 978.078
4422.36 708.297 688.287 1007.35 983.578
4425.27 705.017 694.06 973.796 986.522
4428.17 668.868 690.304 978.425 983.449
4431.08 697.026 691.667 998.126 1001.67
4433.99 709.108 726.718 1028.47 1041.52
4436.89 774.02 746.987 1097.97 1073.18
4439.8 757.832 737.427 1093.11 1051.81
4442.71 680.43 725.319 964.345 1042.34
4445.61 737.695 716.733 1069.55 1020.36
4448.52 732.074 730.037 1027.18 1032.67
4451.43 720.34 733.468 1001.29 1026.85
4454.33 747.989 707.769 1052.07 996.006
4457.24 654.976 697.503 934.659 988.436
4460.15 689.542 697.4 978.579 983.101
4463.05 747.682 717.412 1036.06 1012.24
4465.96 715.012 736.248 1022.09 1044.29
4468.87 746.05 743.978 1074.7 1059.41
4471.77 770.873 765.792 1081.44 1090.63
4474.68 780.454 789.464 1115.76 1120.03
4477.58 817.066 809.77 1162.9 1144.57
4480.49 831.79 831.931 1155.04 1164.32
4483.4 846.937 829.535 1175 1158.22
4486.3 809.878 810.306 1144.62 1133.77
4489.21 774.104 796.845 1081.68 1124.54
4492.11 806.552 797.487 1147.33 1134.82
4495.02 811.806 832.317 1175.46 1184.34
4497.93 878.592 855.356 1230.24 1208.92
4500.83 875.671 879.99 1221.05 1238.54
4503.74 885.707 875.081 1264.34 1238.26
4506.64 863.865 876.934 1229.4 1238.84
4509.55 881.231 874.365 1222.79 1230.72
4512.45 877.998 862.465 1239.98 1214.01
4515.36 828.165 862.332 1179.27 1212.54
4518.27 880.832 847.313 1218.36 1198.57
4521.17 832.943 841.351 1198.1 1180.45
4524.08 810.278 815.553 1124.89 1155.21
4526.98 803.44 823.149 1142.65 1155.09
4529.89 855.729 842.65 1197.73 1188.33
4532.79 868.78 850.754 1224.61 1199.81
4535.7 827.754 846.681 1177.09 1201.43
4538.6 843.508 834.994 1202.58 1181.62
4541.51 833.719 852.711 1165.19 1203.22
4544.41 880.905 857.072 1241.89 1203.11
4547.32 856.592 852.44 1202.25 1199.94
4550.22 819.824 857.551 1155.69 1210.46
4553.13 896.236 877.241 1273.44 1236.99
4556.03 915.664 908.72 1281.83 1284.9
4558.94 914.259 900.284 1299.42 1267.78
4561.84 870.93 902.147 1222.08 1268.31
4564.75 921.251 880.422 1283.43 1232.84
4567.65 849.086 895.994 1193 1250.41
4570.56 917.645 897.391 1274.81 1252.25
4573.46 925.443 916.157 1288.94 1274.65
4576.37 905.382 930.914 1260.2 1295.56
4579.27 961.917 938.998 1337.53 1316.56
4582.17 949.697 948.514 1351.96 1340.59
4585.08 933.927 942.597 1332.27 1335.13
4587.98 944.169 924.047 1321.15 1308
4590.89 894.044 908.945 1270.58 1292.52
4593.79 888.621 898.647 1285.82 1275.97
4596.69 913.277 918.276 1271.51 1297.39
4599.6 952.931 946.384 1334.84 1319.63
4602.5 972.944 959.982 1352.54 1349.05
4605.41 954.071 965.651 1359.77 1357.31
4608.31 969.938 978.745 1359.61 1371.41
4611.21 1012.23 989.287 1394.84 1386.66
4614.12 985.696 995.522 1405.55 1394.48
4617.02 988.642 1006.23 1383.04 1410.83
4619.93 1044.35 1000.68 1443.91 1389.68
4622.83 969.045 1018.65 1342.09 1418.75
4625.73 1042.56 996.171 1470.24 1397.28
4628.64 976.91 1017.82 1379.51 1433.11
4631.54 1034 987.963 1449.57 1391.28
4634.44 952.976 1004.31 1344.75 1412.46
4637.35 1025.96 976.068 1443.07 1370.18
4640.25 949.263 989.225 1322.71 1389.88
4643.15 992.449 984.019 1403.85 1382.71
4646.06 1010.34 994.242 1421.57 1409.18
4648.96 979.932 996.626 1402.11 1414.77
4651.86 999.6 1004.93 1420.64 1425.3
4654.77 1035.26 1003.23 1453.15 1415.04
4657.67 974.833 1023.08 1371.33 1442.96
4660.57 1059.15 992.519 1504.4 1409.95
4663.47 943.576 989.544 1354.11 1405.77
4666.38 965.907 968.215 1358.8 1371.61
4669.28 995.161 985.405 1401.93 1394.3
4672.18 995.146 998.678 1422.18 1408.15
4675.08 1005.73 1008.63 1400.33 1420.39
4677.99 1025.01 1012.92 1438.65 1412.29
4680.89 1008.02 1005.97 1397.89 1407.11
4683.79 984.88 991.809 1384.8 1393.49
4686.69 982.522 1004.84 1397.78 1421.29
4689.6 1047.13 1015.77 1481.29 1450.67
4692.5 1017.65 1030.97 1472.95 1473.09
4695.4 1028.12 1008.65 1465.03 1443.09
4698.3 980.19 994.398 1391.29 1409.03
4701.21 974.887 977.293 1370.77 1374.42
4704.11 976.803 970.432 1361.2 1366.79
4707.01 959.607 971.17 1368.41 1374.18
4709.91 977.102 1000.29 1392.94 1417.74
4712.81 1064.17 1018.06 1491.88 1434.57
4715.71 1012.92 1047.36 1418.89 1474.19
4718.62 1064.99 1046.31 1511.78 1470.19
4721.52 1061.04 1067.6 1479.9 1504.45
4724.42 1076.78 1069.54 1521.66 1500.08
4727.32 1070.79 1064.55 1498.68 1492.32
4730.22 1046.09 1056.29 1456.63 1478.86
4733.12 1051.98 1059.04 1481.27 1483.51
4736.03 1079.05 1065.77 1512.63 1493.32
4738.93 1066.29 1088.07 1486.06 1510.57
4741.83 1118.87 1080.82 1533.01 1504.01
4744.73 1057.29 1108.59 1492.96 1538.11
4747.63 1149.6 1114.41 1588.35 1552.52
4750.53 1136.33 1129.1 1576.24 1570.85
4753.43 1101.36 1107.99 1547.96 1547.83
4756.33 1086.28 1091.73 1519.31 1522.79
4759.23 1087.55 1070.94 1501.1 1493.9
4762.14 1038.99 1067.43 1461.3 1489.4
4765.04 1075.73 1093.15 1505.79 1528.8
4767.94 1164.71 1107.64 1619.31 1548.81
4770.84 1082.49 1126.24 1521.33 1572.77
4773.74 1131.53 1104.99 1577.66 1544.95
4776.64 1100.95 1128.4 1535.86 1585.06
4779.54 1152.73 1128.58 1641.66 1583.27
4782.44 1132.06 1127.34 1572.3 1585.84
4785.34 1097.21 1098.4 1543.57 1525.74
4788.24 1065.93 1086.92 1461.35 1512.82
4791.14 1097.62 1113.5 1533.54 1540.01
4794.04 1176.94 1148.1 1625.15 1594.86
4796.94 1169.72 1169.32 1625.87 1627.13
4799.84 1161.3 1156.28 1630.37 1617.09
4802.74 1137.8 1155.75 1595.01 1621.88
4805.64 1168.15 1156.19 1640.25 1613.95
4808.54 1162.63 1176.85 1606.59 1646.59
4811.44 1199.77 1169.32 1692.92 1633.69
4814.34 1145.57 1167.96 1601.56 1640.68
4817.24 1158.53 1144.21 1627.57 1614.36
4820.14 1128.55 1130.54 1613.95 1599.7
4823.04 1104.53 1130.26 1557.58 1600.23
4825.94 1157.71 1130.05 1629.16 1604.28
4828.84 1127.91 1145.47 1626.11 1614.71
4831.74 1150.81 1151.67 1588.86 1631.23
4834.63 1176.29 1169.56 1678.71 1637.94
4837.53 1181.6 1173.72 1646.23 1651.06
4840.43 1163.27 1174.95 1628.25 1643.36
4843.33 1179.99 1183.52 1655.61 1663.58
4846.23 1207.31 1174.4 1706.88 1665.99
4849.13 1135.89 1154.13 1635.49 1644.57
4852.03 1119.2 1092.39 1591.33 1558.51
4854.93 1022.07 1056.28 1448.71 1500.88
4857.83 1027.56 1010.58 1462.58 1437.62
4860.72 982.087 1000.9 1401.56 1421.97
4863.62 993.046 1016.96 1401.76 1425.95
4866.52 1075.73 1041.23 1474.52 1455.73
4869.42 1054.91 1053.44 1490.92 1480.83
4872.32 1029.68 1043.97 1477.04 1476.44
4875.22 1047.33 1051.19 1461.36 1476.92
4878.12 1076.55 1067.92 1492.35 1501.86
4881.01 1079.87 1095.86 1551.88 1547.93
4883.91 1131.15 1114.37 1599.54 1576.47
4886.81 1132.09 1121.3 1577.99 1585.55
4889.71 1100.66 1135.5 1579.11 1602.74
4892.61 1173.75 1136.23 1651.11 1607.72
4895.5 1134.26 1154.35 1592.93 1632.17
4898.4 1155.03 1169.08 1652.46 1667.29
4901.3 1217.93 1185.57 1756.49 1699.63
4904.2 1183.76 1181.39 1689.95 1692.93
4907.09 1142.48 1153.49 1632.35 1646.07
4909.99 1134.24 1137.77 1615.93 1618.6
4912.89 1136.58 1128.24 1607.54 1599.47
4915.79 1113.91 1127.71 1574.95 1596.87
4918.68 1132.65 1149.34 1608.11 1623.96
4921.58 1201.44 1169.59 1688.82 1657.83
4924.48 1174.68 1202.86 1676.56 1700.91
4927.38 1232.44 1202.68 1737.33 1712.6
4930.27 1200.91 1206.9 1723.91 1709.86
4933.17 1187.34 1183.52 1668.35 1680.55
4936.07 1162.3 1189.87 1649.38 1667.21
4938.96 1219.96 1193.99 1683.9 1672.72
4941.86 1199.7 1215.62 1684.89 1712.67
4944.76 1227.19 1228.29 1769.23 1743.07
4947.65 1257.97 1247.52 1775.08 1773.86
4950.55 1257.39 1223.75 1777.28 1739.28
4953.45 1155.9 1213.55 1665.48 1733.2
4956.34 1227.35 1200.06 1756.83 1708.75
4959.24 1216.93 1218.27 1703.93 1731.6
4962.13 1210.53 1215.92 1734.04 1736.88
4965.03 1220.3 1256.79 1772.68 1798.35
4967.93 1339.54 1263.34 1888.32 1792.89
4970.82 1230.16 1283.05 1717.67 1804.28
4973.72 1279.45 1251.47 1806.85 1768.31
4976.61 1244.8 1242.71 1780.42 1760.16
4979.51 1203.88 1221.4 1693.22 1726.41
4982.41 1215.54 1219.02 1705.57 1698.95
4985.3 1237.65 1237.97 1698.04 1730.01
4988.2 1260.73 1235.68 1786.42 1736.68
4991.09 1208.65 1237.1 1725.57 1758.85
4993.99 1241.92 1250.23 1764.57 1782.14
4996.88 1300.11 1265.33 1856.27 1789.07
4999.78 1253.97 1270.77 1746.36 1788.06
5002.67 1258.22 1247.11 1761.55 1724.25
5005.57 1229.14 1234.85 1664.84 1713.72
5008.47 1217.19 1218.21 1714.77 1678.63
5011.36 1208.3 1225.59 1656.29 1689.66
5014.26 1251.3 1232.73 1697.92 1689.44
5017.15 1238.58 1232.25 1714.1 1690.46
5020.04 1206.88 1224.58 1659.36 1695.71
5022.94 1228.28 1237.89 1713.66 1690.37
5025.83 1278.51 1256.21 1698.07 1717.85
5028.73 1261.84 1269.49 1741.82 1724.64
5031.62 1268.13 1269.34 1734.03 1750.68
5034.52 1278.06 1251.86 1776.21 1733.4
5037.41 1209.39 1239.71 1689.96 1735.91
5040.31 1231.68 1245.66 1741.56 1741.83
5043.2 1295.92 1251.42 1793.95 1739.72
5046.09 1226.67 1265.94 1683.63 1726.93
5048.99 1275.22 1258.58 1703.19 1718.6
5051.88 1273.86 1289.73 1768.99 1766.96
5054.78 1320.13 1310 1828.7 1810.27
5057.67 1336.01 1336.68 1833.12 1837.29
5060.56 1353.91 1325.59 1850.05 1812.15
5063.46 1286.85 1329.67 1753.26 1840.82
5066.35 1348.25 1326.79 1919.16 1852.08
5069.25 1345.25 1334.03 1883.83 1886.02
5072.14 1308.57 1320 1855.06 1855.47
5075.03 1306.16 1301.28 1827.51 1830.84
5077.93 1289.12 1291.74 1809.95 1822.24
5080.82 1279.94 1314.58 1829.25 1852.53
5083.71 1374.67 1322.4 1918.38 1864.52
5086.6 1312.59 1344.19 1845.93 1884.96
5089.5 1345.31 1334.61 1890.56 1876.76
5092.39 1345.92 1322.72 1893.79 1862.11
5095.28 1276.94 1336.1 1801.96 1877.48
5098.18 1385.44 1330.15 1936.68 1876.49
5101.07 1328.06 1349 1890.83 1903.44
5103.96 1333.51 1332.11 1882.81 1884.68
5106.85 1334.76 1353.79 1880.42 1904.04
5109.75 1393.1 1365.22 1948.9 1924.16
5112.64 1367.79 1374.66 1943.16 1943.1
5115.53 1363.11 1349.97 1937.23 1914.78
5118.42 1319.01 1334.58 1863.96 1905.05
5121.32 1321.63 1319.29 1913.96 1880.41
5124.21 1317.23 1321.64 1863.31 1883.72
5127.1 1326.05 1333.94 1873.88 1899.5
5129.99 1358.53 1369.53 1961.3 1951.56
5132.88 1424.02 1370.54 2019.51 1959.65
5135.78 1329.06 1361.28 1898.15 1940.91
5138.67 1330.77 1339.74 1905.08 1913.44
5141.56 1359.39 1330.74 1937.1 1897.87
5144.45 1302.05 1325.76 1851.43 1877.12
5147.34 1315.84 1313.45 1842.85 1849.21
5150.23 1322.45 1321.59 1853.36 1864.12
5153.12 1326.46 1305.44 1896.16 1854.51
5156.02 1267.41 1302.91 1814.01 1852.08
5158.91 1314.85 1289.36 1846.07 1821.1
5161.8 1285.82 1278.83 1803.21 1803.08
5164.69 1235.81 1212.71 1759.97 1723.85
5167.58 1116.49 1172.55 1608.37 1679.5
5170.47 1165.35 1163.64 1670.16 1657.4
5173.36 1209.08 1214.59 1693.67 1715.6
5176.25 1269.34 1236.19 1782.96 1747.08
5179.14 1230.16 1228.99 1764.61 1738.14
5182.03 1187.47 1228.53 1666.86 1740.68
5184.92 1267.95 1263.71 1790.58 1775.49
5187.81 1335.71 1283.44 1869.02 1812.58
5190.7 1246.67 1313.5 1778.13 1858.14
5193.59 1358.12 1313.99 1927.28 1860.88
5196.48 1337.2 1363.06 1877.23 1923.61
5199.37 1393.85 1358.82 1966.32 1915.03
5202.26 1345.4 1360.47 1901.55 1920.97
5205.15 1342.16 1344.51 1895.03 1907.97
5208.04 1345.97 1376.52 1927.33 1955.17
5210.93 1441.43 1406.39 2043.16 1998.77
5213.82 1431.77 1432.5 2025.81 2018.86
5216.71 1424.29 1437.15 1987.6 2031.07
5219.6 1455.38 1405.51 2079.8 1984.36
5222.49 1336.86 1375.96 1885.7 1950.39
5225.38 1335.64 1344.63 1885.69 1897.72
5228.27 1361.39 1366.96 1921.77 1921.88
5231.16 1403.84 1371.14 1958.17 1934.52
5234.05 1348.2 1395.12 1923.61 1962.69
5236.94 1433.33 1435.87 2006.29 2027.55
5239.83 1526.07 1470.97 2152.75 2068.11
5242.71 1453.52 1463 2045.3 2061.31
5245.6 1409.4 1429.7 1985.87 2016.53
5248.49 1426.17 1405.57 2018.42 1978.76
5251.38 1381.14 1407.08 1932 2002.36
5254.27 1413.91 1416.66 2056.65 2020.23
5257.16 1454.92 1414.8 2072.05 2033.3
5260.05 1375.56 1379.87 1971.19 1963.93
5262.93 1309.14 1326.78 1848.54 1884.68
5265.82 1295.65 1301.33 1834.3 1854.51
5268.71 1299.2 1301.39 1880.69 1860.03
5271.6 1309.32 1330.65 1865.09 1898.54
5274.49 1383.44 1375.51 1949.83 1946.2
5277.37 1433.76 1415.11 2023.67 1992.45
5280.26 1428.11 1416.64 2003.85 1986.28
5283.15 1388.06 1421.66 1931.33 1990.32
5286.04 1448.8 1436.28 2035.78 2022.71
5288.92 1471.97 1479.04 2101.04 2079.42
5291.81 1516.35 1471.96 2101.43 2073.45
5294.7 1427.57 1480.55 2017.88 2071.38
5297.59 1497.73 1474.09 2094.82 2070.07
5300.47 1496.97 1488.01 2097.5 2082.44
5303.36 1469.33 1493.51 2055.01 2096.01
5306.25 1514.23 1516.33 2135.53 2129.66
5309.13 1565.42 1541.86 2198.45 2168.78
5312.02 1545.93 1549.85 2172.37 2185.33
5314.91 1538.21 1524.22 2185.16 2153.16
5317.79 1488.51 1493.21 2101.93 2099.97
5320.68 1452.92 1454.35 2012.8 2041.21
5323.57 1421.62 1438.69 2008.9 2021.55
5326.45 1441.52 1442.05 2042.94 2031.77
5329.34 1463.03 1452.6 2043.46 2041.89
5332.22 1453.26 1464.2 2039.27 2033.32
5335.11 1476.32 1464.49 2017.23 2031.11
5338 1463.9 1479.06 2036.82 2052
5340.88 1496.96 1476.14 2101.95 2060.21
5343.77 1467.55 1491.87 2041.87 2080.45
5346.65 1511.09 1477.69 2097.52 2063.03
5349.54 1454.43 1489.39 2049.69 2088.35
5352.43 1502.66 1493.05 2117.85 2100.11
5355.31 1522.05 1540.13 2132.8 2148.33
5358.2 1595.69 1556.71 2194.35 2158.86
5361.08 1552.39 1541.03 2149.44 2133.28
5363.97 1475.02 1493.33 2056.05 2081.27
5366.85 1452.59 1457.28 2038.31 2036.22
5369.74 1444.21 1469.83 2014.29 2060.4
5372.62 1512.68 1486.99 2128.58 2080.06
5375.51 1504.07 1499.66 2097.29 2096.31
5378.39 1482.24 1506.09 2063.07 2095.94
5381.28 1531.97 1536.89 2127.46 2135.95
5384.16 1596.46 1549.02 2217.33 2147.49
5387.04 1518.62 1549.82 2097.68 2143.53
5389.93 1534.39 1514.26 2115.59 2094.68
5392.81 1489.77 1474.19 2070.78 2043.01
5395.7 1398.42 1468.74 1942.67 2032.05
5398.58 1518.03 1456.7 2082.71 2008.26
5401.47 1453.66 1470.54 1999.41 2016.99
5404.35 1439.93 1444.99 1968.85 1979.28
5407.23 1441.37 1452.79 1969.59 1987.53
5410.12 1477.08 1492.11 2024.17 2035.97
5413 1557.87 1534.67 2114.16 2116
5415.88 1569.05 1549.62 2209.68 2141.3
5418.77 1521.92 1554.85 2100.04 2158.45
5421.65 1573.56 1553.71 2165.62 2149.81
5424.53 1565.65 1561.67 2183.77 2158.24
5427.42 1545.79 1542.49 2125.34 2128.98
5430.3 1516.03 1504.74 2077.83 2066.85
5433.18 1452.39 1500.06 1997.39 2057.19
5436.07 1531.76 1534.88 2096.35 2094.97
5438.95 1620.5 1569 2191.17 2138.06
5441.83 1554.72 1559.1 2126.67 2112.27
5444.71 1502.06 1559.4 2018.97 2121.4
5447.6 1621.42 1564.94 2218.57 2125.34
5450.48 1571.33 1588.96 2138.47 2159.36
5453.36 1574.13 1555.29 2121.04 2118.8
5456.24 1520.39 1536.55 2096.9 2088.3
5459.13 1515.14 1529.19 2046.95 2076.34
5462.01 1552.05 1547.04 2085.17 2096.04
5464.89 1573.93 1579.27 2156.01 2142.54
5467.77 1611.82 1588.18 2186.44 2173.03
5470.65 1578.79 1589.85 2176.66 2169.6
5473.53 1578.95 1438.89 2145.7 2116.76
5476.42 1158.92 1320.33 2027.94 2088.9
5479.3 1223.12 1205.67 2093.07 2074.6
5482.18 1234.98 1244.95 2102.81 2124.43
5485.06 1276.75 1235.96 2177.4 2121.53
5487.94 1196.16 1236.56 2084.39 2153.31
5490.82 1236.78 1231.46 2198.12 2143.71
5493.7 1261.44 1255.09 2148.61 2179.21
5496.58 1267.06 1243.68 2190.91 2136.34
5499.47 1202.53 1218.87 2069.49 2087.92
5502.35 1187.03 1210.52 2003.36 2039.56
5505.23 1242 1225.93 2045.83 2052.62
5508.11 1248.75 1263.84 2108.67 2123.37
5510.99 1300.77 1264.55 2215.63 2158.97
5513.87 1244.14 1286.31 2152.62 2199.51
5516.75 1314.01 1277.32 2230.3 2195.76
5519.63 1273.81 1298.65 2204.36 2234.41
5522.51 1308.13 1280.54 2268.58 2215.09
5525.39 1259.68 1258.71 2172.34 2161.18
5528.27 1208.32 1268.01 2042.63 2150.05
5531.15 1336.01 1273.66 2235.17 2158.49
5534.03 1276.66 1279.74 2197.67 2197.15
5536.91 1226.55 1276.22 2158.61 2195.02
5539.79 1325.45 1275.24 2228.8 2197.8
5542.67 1273.71 1296.63 2206 2219.42
5545.54 1290.72 1287.98 2223.46 2216.73
5548.42 1299.52 1278.79 2220.72 2186.75
5551.3 1246.11 1288.78 2116.08 2185.72
5554.18 1320.69 1281.75 2220.37 2159.07
5557.06 1278.45 1319.78 2140.77 2214.21
5559.94 1360.2 1306.66 2281.49 2190.46
5562.82 1281.33 1315.95 2149.12 2210
5565.7 1306.34 1298.12 2199.4 2179.37
5568.58 1306.7 1298.94 2189.59 2180.56
5571.45 1283.77 1304.51 2152.68 2180.95
5574.33 1323.05 1306.99 2200.59 2146.99
5577.21 1314.16 1289.91 2087.7 2092.12
5580.09 1232.52 1298.84 1988.08 2099.97
5582.97 1349.83 1278.92 2224.12 2093.68
5585.84 1254.4 1284.2 2068.83 2136.85
5588.72 1248.36 1238.77 2117.61 2084.63
5591.6 1213.55 1261.08 2067.46 2131.53
5594.48 1321.31 1266.62 2209.52 2137.29
5597.35 1264.99 1313.02 2134.89 2205.8
5600.23 1352.76 1312.44 2273 2193.36
5603.11 1319.58 1339.4 2172.21 2241.93
5605.99 1345.86 1345.89 2280.58 2263.84
5608.86 1372.22 1349.29 2338.75 2283.2
5611.74 1329.8 1335.78 2230.26 2243.34
5614.62 1305.31 1325.55 2161.01 2210.5
5617.49 1341.55 1352.4 2240.24 2247.32
5620.37 1410.34 1375.59 2340.71 2282.71
5623.25 1374.89 1387.12 2267.19 2290.31
5626.12 1376.12 1384.56 2263.02 2283.78
5629 1402.66 1381.96 2321.14 2284.64
5631.88 1367.08 1366.86 2269.75 2265.33
5634.75 1330.82 1349.28 2205.1 2242.14
5637.63 1349.92 1327.29 2251.58 2208.07
5640.5 1301.13 1342.78 2167.53 2241.55
5643.38 1377.28 1366.68 2305.53 2259.31
5646.26 1421.63 1395.59 2304.87 2299.15
5649.13 1387.85 1379.47 2287.05 2278.09
5652.01 1328.94 1364.55 2242.35 2253.52
5654.88 1376.87 1334.39 2231.15 2207.55
5657.76 1297.35 1333.01 2149.16 2189.91
5660.63 1324.81 1332.25 2189.41 2190.14
5663.51 1374.59 1346.22 2231.84 2199.91
5666.38 1339.25 1383.86 2178.47 2265.37
5669.26 1437.74 1381.69 2385.8 2260.33
5672.13 1368.08 1382.13 2216.72 2274.78
5675.01 1340.57 1368.67 2221.82 2251.47
5677.88 1397.37 1364.02 2315.86 2251.53
5680.76 1354.13 1371.06 2216.92 2248.6
5683.63 1361.67 1366.7 2213.01 2234.62
5686.51 1384.31 1375.78 2273.94 2251.98
5689.38 1381.37 1370.35 2268.99 2252.72
5692.25 1345.36 1376.62 2215.25 2251.34
5695.13 1403.12 1370.63 2269.78 2242.16
5698 1363.41 1383.51 2241.44 2261.07
5700.88 1383.99 1367.5 2272 2230.53
5703.75 1355.09 1352.04 2178.16 2207.67
5706.62 1317.04 1352.5 2172.84 2202.7
5709.5 1385.36 1354.56 2257.09 2203.98
5712.37 1361.28 1370.48 2182.02 2216.33
5715.24 1364.79 1390.61 2209.87 2244.6
5718.12 1445.77 1401.31 2341.91 2249.81
5720.99 1393.38 1405.22 2197.65 2252.12
5723.86 1376.51 1390.08 2216.81 2234.02
5726.73 1400.35 1392.12 2287.6 2266.43
5729.61 1399.5 1410.5 2294.89 2285.47
5732.48 1431.64 1435.3 2273.91 2327.13
5735.35 1474.77 1458.39 2412.58 2331.65
5738.22 1468.74 1469.17 2308.45 2387.27
5741.1 1463.99 1455.63 2440.76 2355.63
5743.97 1434.15 1436.51 2317.67 2355.56
5746.84 1411.39 1389.9 2308.24 2274.2
5749.71 1324.16 1394.06 2196.69 2276.78
5752.58 1446.62 1395.51 2325.42 2269.87
5755.46 1415.76 1424.5 2287.49 2293.45
5758.33 1411.13 1402.52 2267.43 2267.67
5761.2 1380.67 1406.9 2248.07 2268.16
5764.07 1428.89 1421.69 2288.97 2286.38
5766.94 1455.5 1421.79 2322.1 2257.07
5769.81 1380.99 1416.68 2160.15 2243.7
5772.68 1413.57 1398.35 2248.86 2217.96
5775.56 1400.5 1398.07 2244.88 2241.28
5778.43 1380.15 1367.92 2230.1 2195.23
5781.3 1323.13 1344.57 2110.72 2151.86
5784.17 1330.42 1339.63 2114.76 2139.82
5787.04 1365.36 1358.55 2193.98 2162.36
5789.91 1379.86 1391.48 2178.33 2223.43
5792.78 1429.21 1394.14 2297.97 2206.97
5795.65 1373.34 1398.5 2144.62 2211.27
5798.52 1392.94 1397.37 2191.21 2198.28
5801.39 1425.82 1419.29 2259 2262.11
5804.26 1439.1 1425.32 2336.12 2266.75
5807.13 1411.05 1445.59 2205.13 2280.92
5810 1486.63 1446.53 2301.5 2252.44
5812.87 1441.92 1480.75 2250.7 2335.28
5815.74 1513.7 1462.34 2453.63 2336.54
5818.61 1431.4 1470.62 2305.3 2360.17
5821.48 1466.77 1446.35 2321.58 2298.81
5824.35 1440.87 1465.73 2269.54 2299.46
5827.21 1489.53 1468.57 2307.27 2302.17
5830.08 1475.29 1468.29 2329.69 2299.84
5832.95 1440.04 1471.75 2262.56 2316.92
5835.82 1499.91 1470.19 2358.52 2309.13
5838.69 1470.61 1473.87 2306.3 2308.78
5841.56 1451.09 1470.55 2261.53 2288.94
5844.43 1489.95 1459.42 2298.98 2287.22
5847.29 1437.23 1444.12 2301.16 2273.48
5850.16 1405.19 1443 2220.28 2284.21
5853.03 1486.58 1447.75 2331.17 2284.3
5855.9 1451.49 1465.86 2301.45 2304.85
5858.77 1459.52 1468.4 2281.91 2297.33
5861.63 1494.2 1470.68 2308.62 2286.11
5864.5 1458.31 1492.06 2267.8 2305.7
5867.37 1523.68 1509.21 2340.67 2340.65
5870.24 1545.64 1517.85 2413.47 2341.81
5873.1 1484.24 1525.29 2271.28 2363.19
5875.97 1546 1482.53 2404.82 2293.1
5878.84 1417.36 1469.79 2203.2 2286.5
5881.7 1446.01 1406.6 2251.48 2184.47
5884.57 1356.41 1366.38 2098.72 2119.84
5887.44 1296.73 1308.32 2009.31 2016.75
5890.3 1271.81 1310.68 1942.2 2014.95
5893.17 1363.49 1358.86 2093.34 2084.53
5896.04 1441.29 1393.71 2218.05 2152.48
5898.9 1376.36 1426.11 2146.04 2197.54
5901.77 1460.69 1412.2 2228.52 2180.34
5904.63 1399.55 1445.58 2166.46 2229.86
5907.5 1476.49 1428.27 2294.59 2216.09
5910.37 1408.76 1454.34 2187.22 2248.27
5913.23 1477.79 1449.02 2262.99 2239.81
5916.1 1460.53 1450.58 2269.22 2241.53
5918.96 1413.44 1431.95 2192.38 2227.96
5921.83 1421.89 1443.66 2222.29 2247.25
5924.69 1495.66 1440.57 2327.08 2238.28
5927.56 1404.16 1481.39 2165.47 2293.7
5930.42 1544.36 1488.61 2388.56 2305.92
5933.29 1517.3 1537 2363.72 2382.97
5936.15 1549.35 1531.9 2396.63 2384.84
5939.02 1529.04 1514.58 2394.16 2366.4
5941.88 1465.36 1489.67 2308.39 2333.27
5944.75 1474.61 1460.67 2297.25 2298.85
5947.61 1442.04 1453.92 2290.9 2258.18
5950.47 1445.11 1443.38 2186.39 2225.05
5953.34 1443 1465.74 2197.87 2234.53
5956.2 1509.12 1469.31 2319.34 2236.5
5959.07 1455.8 1471.73 2192.3 2247.64
5961.93 1450.25 1479.31 2231.27 2246.19
5964.79 1531.87 1493.1 2315.01 2272.51
5967.66 1497.17 1497.13 2271.26 2271.17
5970.52 1462.36 1454.13 2227.25 2218.77
5973.38 1402.87 1475.09 2157.8 2253.62
5976.25 1560.05 1471.04 2375.82 2242.16
5979.11 1450.2 1496.53 2192.87 2258.09
5981.97 1479.34 1457.48 2205.58 2200.23
5984.83 1442.9 1483.67 2202.23 2254.52
5987.7 1528.78 1479.08 2355.74 2257.22
5990.56 1465.56 1493.47 2213.71 2283.4
5993.42 1486.06 1493.75 2280.76 2257.07
5996.28 1529.62 1503.49 2276.75 2276.03
5999.14 1494.78 1498.16 2270.59 2276.62
6002.01 1470.06 1480.27 2282.51 2269.04
6004.87 1475.97 1471.73 2254 2248.62
6007.73 1469.17 1449.3 2209.34 2219
6010.59 1402.76 1438.82 2193.65 2200.38
6013.45 1444.51 1425.85 2198.14 2197.8
6016.31 1430.29 1438.89 2201.62 2190.03
6019.18 1441.87 1444.52 2170.34 2196.53
6022.04 1461.39 1461.13 2217.62 2207.39
6024.9 1480.14 1474.59 2234.22 2231.25
6027.76 1482.24 1480.52 2241.9 2229.31
6030.62 1479.2 1491.9 2211.8 2258.15
6033.48 1514.26 1485.38 2320.75 2260.72
6036.34 1462.68 1486.63 2249.61 2267.07
6039.2 1482.96 1476.68 2230.84 2253.54
6042.06 1484.39 1481.98 2280.16 2263.2
6044.92 1478.6 1484.3 2278.59 2280.8
6047.78 1489.9 1478.07 2283.65 2270.86
6050.64 1465.72 1479.02 2250.36 2270
6053.5 1481.43 1504.2 2276 2303.78
6056.36 1565.46 1528.14 2384.97 2321.58
6059.22 1537.53 1539.28 2303.77 2312.23
6062.08 1514.84 1528.74 2247.94 2279.59
6064.94 1533.86 1525.01 2287.05 2266.99
6067.8 1526.33 1529.45 2265.97 2270.02
6070.66 1528.16 1505.71 2257.05 2245.41
6073.52 1462.62 1496.04 2213.2 2242.82
6076.37 1497.35 1483 2258.2 2231.5
6079.23 1489.02 1483.97 2223.11 2247.81
6082.09 1465.54 1475.41 2262.11 2224.23
6084.95 1471.67 1465.28 2187.46 2219.76
6087.81 1458.63 1431.95 2209.73 2144.83
6090.67 1365.56 1433.51 2037.31 2151.36
6093.52 1476.35 1449.29 2207.05 2160.64
6096.38 1505.97 1492.59 2237.57 2239.41
6099.24 1495.46 1457.49 2273.59 2186.15
6102.1 1371.05 1438.49 2047.28 2160.08
6104.96 1448.98 1452.65 2159.38 2165.34
6107.81 1537.91 1467.84 2289.36 2187.57
6110.67 1416.65 1474.34 2113.99 2185.8
6113.53 1468.47 1462.07 2154.06 2168.31
6116.38 1501.08 1464.69 2236.89 2186.5
6119.24 1424.52 1463.08 2168.54 2212.43
6122.1 1463.64 1452.08 2231.86 2196.12
6124.95 1468.09 1481.03 2187.97 2211.71
6127.81 1511.35 1459.95 2215.32 2179.01
6130.67 1400.41 1427.24 2133.74 2128.23
6133.52 1369.97 1379.31 2035.63 2069.16
6136.38 1367.54 1375.69 2038.1 2051.3
6139.24 1389.58 1416.7 2080.16 2107.24
6142.09 1492.97 1457.63 2203.46 2167.99
6144.95 1490.35 1474.59 2220.35 2182.3
6147.8 1440.47 1448.73 2123.08 2154.59
6150.66 1415.39 1426.92 2120.34 2119.26
6153.51 1424.9 1407.47 2114.38 2099.5
6156.37 1382.12 1400.84 2063.79 2073.27
6159.22 1395.5 1387.16 2041.65 2043.14
6162.08 1383.87 1399.69 2023.97 2057.51
6164.93 1419.71 1400.55 2106.92 2074.87
6167.79 1398.09 1409.86 2093.73 2107.12
6170.64 1411.78 1433.04 2120.7 2144.08
6173.5 1489.24 1465.77 2217.82 2186.09
6176.35 1496.3 1493.11 2219.75 2216.15
6179.21 1493.78 1479.94 2210.87 2194.15
6182.06 1449.74 1468.41 2151.81 2164.54
6184.91 1461.72 1438.32 2130.93 2119.57
6187.77 1403.49 1443.55 2075.96 2130.05
6190.62 1465.43 1457.69 2183.25 2171.2
6193.48 1504.16 1454.49 2254.4 2165.57
6196.33 1393.89 1455.13 2059.06 2151.18
6199.18 1467.33 1445.73 2140.09 2128.77
6202.04 1475.96 1476.27 2187.14 2179.17
6204.89 1485.51 1499.12 2210.28 2201.09
6207.74 1535.88 1494.22 2205.85 2195.6
6210.59 1461.26 1476.02 2170.69 2177.21
6213.45 1430.93 1465.57 2155.09 2190.63
6216.3 1504.51 1440.09 2246.12 2145.35
6219.15 1384.83 1471.8 2034.85 2183.14
6222 1526.06 1437.97 2268.44 2109.29
6224.86 1403.02 1465.69 2024.56 2144.73
6227.71 1468 1457.14 2141.18 2121.78
6230.56 1500.39 1472.56 2199.6 2157.36
6233.41 1449.28 1455.63 2131.28 2131.86
6236.26 1417.21 1406.48 2064.69 2061.05
6239.11 1352.96 1388.78 1987.18 2045.21
6241.97 1396.18 1380.54 2083.76 2022.44
6244.82 1392.48 1410.74 1996.4 2077.08
6247.67 1443.55 1399.61 2151.09 2060.49
6250.52 1362.81 1377.75 2033.98 2045.08
6253.37 1326.89 1367.89 1950.17 2011.61
6256.22 1413.95 1383.27 2050.68 2020.22
6259.07 1408.96 1423.86 2059.81 2059.96
6261.92 1448.67 1445.01 2069.38 2083.36
6264.77 1477.39 1470.65 2120.88 2109.08
6267.62 1485.89 1493.56 2136.98 2155.18
6270.47 1517.39 1457.29 2207.66 2123.51
6273.32 1368.59 1438.52 2025.9 2111.36
6276.17 1429.59 1389.47 2100.51 2052.92
6279.02 1370.23 1399.05 2032.35 2065.4
6281.87 1397.32 1388.05 2063.33 2036.76
6284.72 1396.61 1380.83 2014.6 2019.11
6287.57 1348.57 1390.11 1979.39 2017.88
6290.42 1425.15 1393.52 2059.66 2015.26
6293.27 1406.85 1399.34 2006.73 1985.21
6296.12 1366.04 1408.37 1889.24 1950.21
6298.97 1452.22 1392.21 1954.65 1908.96
6301.81 1358.37 1430.83 1882.99 1979.06
6304.66 1481.91 1399.44 2099.55 1982.4
6307.51 1358.04 1397.84 1964.67 2002.05
6310.36 1353.58 1355.12 1941.94 1970.94
6313.21 1353.73 1361.84 2006.22 1985.7
6316.05 1378.21 1385.5 2008.94 2014.76
6318.9 1424.57 1425.65 2029.11 2069.58
6321.75 1474.16 1446.4 2170.7 2096.46
6324.6 1440.47 1452.12 2089.59 2108.65
6327.44 1441.72 1435.58 2065.66 2051.82
6330.29 1424.54 1423.63 2000.21 2013.94
6333.14 1404.63 1422.08 1975.94 2006.46
6335.99 1437.08 1409.97 2043.24 2007.7
6338.83 1388.19 1409.69 2003.91 2039.48
6341.68 1403.79 1414.25 2071.3 2061.87
6344.53 1450.77 1420.51 2110.4 2096.24
6347.37 1406.98 1419.95 2107.02 2084.39
6350.22 1402.09 1402.16 2035.75 2056.8
6353.06 1397.41 1379.54 2027.63 1988.01
6355.91 1339.12 1398.21 1900.65 1990.86
6358.76 1458.1 1421.55 2044.29 2014.76
6361.6 1467.43 1455.41 2099.34 2047.47
6364.45 1440.7 1433.51 1998.77 2013
6367.29 1392.38 1415.97 1940.89 1977.72
6370.14 1414.82 1412.07 1993.5 1980.17
6372.98 1429.02 1428.48 2006.13 2011.74
6375.83 1441.6 1435.78 2035.6 2030.68
6378.67 1436.73 1460.7 2050.32 2088.52
6381.52 1503.75 1468.49 2179.65 2119.13
6384.36 1464.97 1455.39 2127.42 2119.37
6387.21 1397.44 1414.58 2051.04 2082.75
6390.05 1381.32 1377.74 2069.81 2027.23
6392.9 1354.45 1392.39 1960.86 2025.58
6395.74 1441.41 1410.65 2046.08 2012.54
6398.58 1436.09 1434.43 2030.67 2035.72
6401.43 1425.8 1414.11 2030.42 2005.92
6404.27 1380.44 1417.31 1956.67 2013.32
6407.11 1445.7 1403.89 2052.87 1994.46
6409.96 1385.51 1444 1973.83 2042.99
6412.8 1500.79 1432.82 2102.28 2025.44
6415.64 1412.15 1432.16 2000.21 2016.62
6418.49 1383.54 1416.13 1947.37 1993.82
6421.33 1452.72 1429.35 2033.88 2013.85
6424.17 1451.81 1431.8 2060.31 2043.19
6427.01 1390.89 1417.42 2035.38 2044.29
6429.86 1409.56 1395.46 2037.19 2022.9
6432.7 1385.93 1405.18 1996.15 2025.53
6435.54 1420.04 1416.26 2043.25 2041.68
6438.38 1442.8 1408.09 2085.65 2024.18
6441.22 1361.42 1420.54 1943.64 2011.84
6444.07 1457.39 1407.66 2006.23 1982.75
6446.91 1404.18 1417.67 1998.38 1993.48
6449.75 1391.45 1417.24 1975.83 1999.95
6452.59 1456.1 1423.84 2025.66 2017.97
6455.43 1423.97 1413.09 2052.42 2004.88
6458.27 1359.2 1409.78 1936.56 2002.1
6461.11 1446.15 1395.01 2017.33 1956.69
6463.95 1379.66 1405.21 1916.19 1960.29
6466.79 1389.81 1379.5 1947.37 1933.22
6469.63 1369.03 1381.53 1936.1 1948.05
6472.47 1385.76 1377.87 1960.67 1944.3
6475.31 1378.81 1395.15 1936.13 1945.33
6478.15 1420.89 1422.25 1939.19 1983.3
6480.99 1467.05 1448.87 2074.57 2008.85
6483.83 1458.66 1427.83 2012.78 1985.24
6486.67 1357.76 1378.13 1868.37 1898.35
6489.51 1317.97 1339.49 1813.91 1858.57
6492.35 1342.72 1335.17 1893.43 1851.62
6495.19 1344.82 1378.68 1847.53 1910.26
6498.03 1448.51 1397.76 1989.81 1915.22
6500.87 1399.95 1422.43 1908.31 1956.07
6503.71 1418.83 1406.67 1970.08 1940.16
6506.55 1401.24 1416.47 1942.07 1968.89
6509.38 1429.33 1434.29 1994.51 2010.11
6512.22 1472.29 1430.5 2093.76 2009.6
6515.06 1389.89 1434.95 1940.55 2028.33
6517.9 1442.65 1324.52 2050.69 1986.92
6520.74 1141 1235.63 1969.51 1981.24
6523.57 1123.22 1102.7 1923.52 1909.74
6526.41 1043.87 1074.53 1836.2 1850.74
6529.25 1056.51 1090.97 1792.51 1856.72
6532.08 1172.55 1132.14 1941.44 1901.5
6534.92 1167.35 1147.3 1970.56 1942.31
6537.76 1101.99 1137.17 1914.91 1954.35
6540.6 1142.16 1105.58 1977.59 1942.17
6543.43 1072.59 1116.59 1934.01 1927.83
6546.27 1135.01 1094.42 1871.89 1894.77
6549.1 1075.64 1090.32 1878.42 1860.6
6551.94 1060.29 1031.09 1831.48 1819.38
6554.78 957.346 980.847 1748.26 1711.68
6557.61 924.905 971.683 1555.29 1650.4
6560.45 1032.8 986.825 1647.64 1641.94
6563.28 1002.77 1024.91 1722.89 1726.76
6566.12 1039.17 1039.05 1809.75 1779.35
6568.95 1075.21 1061.58 1805.4 1823.11
6571.79 1070.35 1104.35 1854.19 1867.82
6574.62 1167.49 1119.84 1943.86 1897.19
6577.46 1121.67 1149.03 1893.53 1916.95
6580.29 1157.93 1145 1913.48 1903.21
6583.13 1155.4 1126.79 1902.62 1867.8
6585.96 1067.04 1119.76 1787.3 1871.36
6588.8 1136.82 1110.33 1924.16 1868.94
6591.63 1127.11 1136.07 1895.36 1924
6594.46 1144.28 1130.36 1952.48 1910.5
6597.3 1119.67 1147.81 1883.67 1945.06
6600.13 1179.46 1162.87 1999.04 1940.82
6602.97 1189.47 1170.65 1939.75 1939.11
6605.8 1143.01 1157.95 1878.55 1924.51
6608.63 1141.37 1166.79 1955.23 1938.04
6611.46 1215.99 1164.51 1980.33 1955.77
6614.3 1136.18 1182.71 1931.74 1951.13
6617.13 1195.96 1162.84 1941.32 1936.46
6619.96 1156.39 1166.26 1936.32 1925.62
6622.8 1146.44 1161.77 1899.23 1930.07
6625.63 1182.47 1173.82 1954.66 1951.89
6628.46 1192.55 1191.06 2001.78 1959.13
6631.29 1198.18 1195.54 1920.95 1943.16
6634.12 1195.91 1187.41 1906.76 1897.19
6636.95 1168.15 1176.02 1863.85 1891.38
6639.79 1164.01 1155.95 1903.53 1871.58
6642.62 1135.7 1162.92 1847.37 1900.48
6645.45 1189.04 1161.07 1950.55 1906.16
6648.28 1158.47 1179.9 1920.56 1926.2
6651.11 1192.2 1154.67 1907.51 1884.54
6653.94 1113.34 1166.79 1825.56 1891.88
6656.77 1194.83 1142.41 1942.57 1872.55
6659.6 1119.06 1164.62 1849.52 1899.38
6662.43 1179.98 1156.38 1906.06 1871.24
6665.26 1170.11 1163.76 1858.15 1847.14
6668.09 1141.2 1154.14 1777.2 1851.86
6670.92 1151.1 1144.78 1920.21 1842.64
6673.75 1142.04 1156.21 1830.49 1877.47
6676.58 1175.47 1162.88 1881.69 1847.05
6679.41 1171.13 1168.63 1828.97 1860.59
6682.24 1159.29 1161.33 1871.1 1860.35
6685.07 1153.56 1180.49 1880.99 1889.76
6687.9 1228.63 1205.47 1917.19 1913.89
6690.73 1234.21 1230.74 1943.49 1922.62
6693.55 1229.39 1224.36 1907.18 1937.68
6696.38 1209.46 1211.08 1962.37 1935.47
6699.21 1194.38 1210.58 1936.87 1945.89
6702.04 1227.9 1204.96 1938.43 1900.7
6704.87 1192.6 1190.24 1826.81 1873.19
6707.7 1150.22 1158.75 1854.33 1830.3
6710.52 1133.45 1164.66 1809.75 1826.05
6713.35 1210.32 1182.56 1814.07 1828.18
6716.18 1203.93 1218.95 1860.72 1862.31
6719 1242.61 1229.05 1912.13 1892.3
6721.83 1240.6 1215.22 1904.03 1876.6
6724.66 1162.45 1202.8 1813.64 1866.83
6727.49 1205.34 1208.3 1882.82 1882.15
6730.31 1257.12 1226.07 1950 1913.41
6733.14 1215.74 1217.08 1907.41 1904.1
6735.96 1178.38 1187.8 1854.88 1850.37
6738.79 1169.3 1165.95 1788.81 1818.08
6741.62 1150.17 1151.91 1810.54 1801.88
6744.44 1136.26 1146.43 1806.29 1803.58
6747.27 1152.87 1183.71 1793.9 1853.18
6750.09 1261.99 1223.64 1959.35 1891.98
6752.92 1256.07 1250.19 1922.7 1925.89
6755.74 1232.53 1245.44 1895.62 1926.38
6758.57 1247.74 1229.31 1960.83 1905.59
6761.39 1207.67 1222.01 1860.31 1904.61
6764.22 1210.62 1212.35 1892.67 1875.87
6767.04 1218.75 1190.86 1874.61 1847.02
6769.87 1143.2 1192.98 1773.78 1828.48
6772.69 1217 1197.61 1837.06 1807.23
6775.51 1232.65 1227.5 1810.86 1861.49
6778.34 1232.85 1233.31 1936.54 1871.51
6781.16 1234.43 1205.94 1867.14 1863.47
6783.99 1150.56 1203.62 1786.73 1852.17
6786.81 1225.87 1193.82 1902.63 1848.53
6789.63 1205.03 1206.95 1856.24 1853.64
6792.45 1189.95 1203.93 1802.04 1833.54
6795.28 1216.79 1208.62 1842.33 1819.47
6798.1 1219.1 1195.01 1814.05 1816.15
6800.92 1149.14 1191.95 1792.07 1819.3
6803.75 1207.62 1190.01 1851.78 1824.9
6806.57 1213.28 1198.25 1830.84 1810.68
6809.39 1173.87 1213.25 1749.41 1823.77
6812.21 1252.61 1201.93 1891.06 1817.03
6815.03 1179.31 1219.78 1810.61 1852.39
6817.85 1227.42 1208.41 1855.49 1844.12
6820.68 1218.51 1201.4 1866.25 1818.22
6823.5 1158.25 1189.23 1732.9 1775.62
6826.32 1190.91 1191.73 1727.71 1766.22
6829.14 1226.02 1183.22 1838.06 1755.42
6831.96 1132.73 1201.53 1700.48 1797.85
6834.78 1245.86 1181.44 1855 1760.38
6837.6 1165.74 1192.09 1725.67 1773.84
6840.42 1164.67 1146.51 1740.86 1707.98
6843.24 1109.12 1166.76 1657.42 1739.9
6846.06 1226.5 1166 1821.42 1741.8
6848.88 1162.39 1193.89 1746.57 1783.17
6851.7 1192.78 1171.72 1781.53 1738.37
6854.52 1159.98 1185.2 1687.02 1735.47
6857.34 1202.83 1179.6 1737.86 1719.66
6860.16 1176 1157.41 1734.11 1696.04
6862.98 1093.4 1073.54 1616.16 1583.53
6865.8 951.21 990.245 1400.34 1455.4
6868.62 926.128 942.342 1349.7 1390.53
6871.43 949.687 944.257 1421.57 1392.18
6874.25 956.956 974.019 1405.26 1445.93
6877.07 1015.41 1022.78 1510.96 1493.14
6879.89 1095.98 1055.99 1563.2 1537.21
6882.71 1056.58 1071.11 1537.45 1548.34
6885.52 1060.76 1051.42 1544.36 1526.19
6888.34 1036.91 1025.2 1496.76 1491.16
6891.16 977.922 1011.31 1432.35 1472.52
6893.98 1019.09 1016.83 1488.44 1491.37
6896.79 1053.46 1040.23 1553.32 1518.34
6899.61 1048.14 1055.03 1513.26 1550.29
6902.43 1063.5 1070.18 1584.28 1569.84
6905.24 1098.89 1080.61 1611.99 1574.08
6908.06 1079.43 1085.75 1525.98 1570.39
6910.88 1078.94 1093.56 1573.2 1569.95
6913.69 1122.3 1113.57 1610.68 1598.5
6916.51 1139.48 1122.22 1611.63 1616.06
6919.32 1104.88 1128 1625.87 1638.28
6922.14 1139.65 1110.59 1677.36 1614.37
6924.95 1087.23 1122.19 1539.9 1620.72
6927.77 1139.7 1110.16 1644.92 1582.54
6930.58 1103.55 1133.72 1562.82 1627.74
6933.4 1157.9 1131.31 1675.49 1628.43
6936.21 1132.48 1137.05 1646.97 1652.85
6939.03 1120.75 1117.33 1636.08 1635.11
6941.84 1098.75 1117.91 1622.27 1618.46
6944.66 1134.21 1132.05 1597.02 1614.93
6947.47 1163.18 1145.05 1625.51 1625.06
6950.28 1137.76 1171.73 1652.65 1684.4
6953.1 1214.24 1165.82 1775.04 1702.68
6955.91 1145.44 1178.01 1680.36 1711.48
6958.72 1174.34 1174.05 1679.03 1694.33
6961.54 1202.37 1168.2 1723.59 1678.88
6964.35 1127.9 1161.31 1634.03 1644.62
6967.16 1153.67 1123.36 1576.24 1600.53
6969.98 1088.5 1089.49 1591.31 1564.47
6972.79 1026.29 1067.96 1525.87 1554.13
6975.6 1089.11 1081.76 1545.22 1555.89
6978.41 1129.89 1118.79 1596.59 1581.85
6981.22 1137.37 1120.05 1603.73 1569.86
6984.04 1092.89 1116.17 1509.27 1565.14
6986.85 1118.26 1104.29 1582.43 1554.98
6989.66 1101.71 1106.31 1573.24 1564.87
6992.47 1098.97 1099.53 1538.93 1567.01
6995.28 1097.92 1079.91 1588.86 1533.02
6998.09 1042.85 1090.69 1471.26 1546.74
7000.9 1131.31 1073.48 1580.09 1497.47
7003.71 1046.28 1089.98 1441.05 1517.62
7006.52 1092.36 1081.11 1531.73 1510.69
7009.34 1104.67 1101.99 1559.27 1558.47
7012.15 1108.93 1097.17 1584.41 1559.73
7014.96 1077.89 1103.65 1535.52 1549.8
7017.76 1124.11 1097.37 1529.46 1529.73
7020.57 1090.09 1114.13 1524.2 1538.73
7023.38 1128.19 1078.35 1562.54 1513.15
7026.19 1016.78 1075.93 1452.71 1504.3
7029 1082.82 1074.92 1497.64 1507.98
7031.81 1125.17 1095.53 1573.57 1518.47
7034.62 1078.59 1123.15 1484.19 1548.56
7037.43 1165.68 1106.51 1587.92 1536.29
7040.24 1075.27 1116.84 1536.76 1548.46
7043.04 1109.58 1109.68 1520.71 1556.39
7045.85 1144.18 1099.51 1611.72 1524.51
7048.66 1044.77 1110.48 1441.11 1531.11
7051.47 1142.5 1103.09 1540.51 1495.97
7054.28 1122.01 1127.68 1506.27 1516.28
7057.08 1118.53 1123.34 1502.05 1515.75
7059.89 1129.48 1121.89 1538.94 1513.75
7062.7 1117.66 1112.25 1500.27 1523.98
7065.5 1089.61 1092.05 1532.74 1503.23
7068.31 1068.89 1085.13 1476.67 1503.6
7071.12 1096.9 1094.66 1501.4 1492.89
7073.92 1118.19 1119.67 1500.59 1517.4
7076.73 1143.93 1098.86 1550.19 1491.93
7079.54 1034.47 1083.48 1424.99 1484.56
7082.34 1072.05 1073.65 1478.49 1454.55
7085.15 1114.44 1089.11 1460.18 1468.19
7087.95 1080.85 1069.9 1465.9 1443.53
7090.76 1014.39 1063.2 1404.51 1460.24
7093.56 1094.34 1076.44 1510.32 1472.31
7096.37 1120.6 1096.95 1502.1 1495.62
7099.17 1075.91 1107.86 1474.45 1497.35
7101.98 1127.08 1091.52 1515.51 1469
7104.78 1071.57 1100.99 1417.03 1472.91
7107.58 1104.31 1102.02 1486.17 1476.22
7110.39 1130.18 1089.41 1525.46 1469.16
7113.19 1033.73 1064.37 1395.86 1437.67
7116 1029.21 1049.44 1391.69 1416.89
7118.8 1085.39 1078.53 1463.1 1446.71
7121.6 1120.98 1070.8 1485.35 1432.26
7124.41 1006.03 1081.82 1348.32 1448.72
7127.21 1118.45 1066.79 1512.48 1426.82
7130.01 1075.88 1081.73 1419.66 1451.02
7132.81 1050.87 1052.23 1420.92 1408.3
7135.62 1029.95 1037.91 1384.33 1401.66
7138.42 1032.89 1042.41 1399.74 1394.1
7141.22 1064.4 1046.41 1398.22 1395.96
7144.02 1041.93 1048.7 1389.92 1396.77
7146.82 1039.76 1047.54 1402.17 1403.44
7149.63 1060.93 1046.47 1418.24 1387.55
7152.43 1038.72 1058.94 1342.23 1390.21
7155.23 1077.18 1048.71 1410.15 1359.94
7158.03 1030.24 1068.45 1327.44 1412.41
7160.83 1097.93 1046.81 1499.64 1385.7
7163.63 1012.26 1039.43 1330.02 1384.73
7166.43 1008.08 1019.25 1324.54 1346.42
7169.23 1037.41 1016.32 1384.71 1346.16
7172.03 1003.46 1004.13 1329.22 1325.97
7174.83 971.509 975.538 1263.98 1282.88
7177.63 951.646 951.612 1255.45 1233.76
7180.43 931.679 943.373 1181.85 1234.47
7183.23 946.795 955.222 1266.09 1244.92
7186.03 987.193 977.171 1286.82 1295.24
7188.83 997.525 983.595 1332.81 1293.17
7191.63 966.065 992.722 1259.88 1311.77
7194.43 1014.57 967.644 1342.62 1278.42
7197.22 922.293 959.028 1232.76 1280.05
7200.02 940.218 938.284 1264.78 1245.03
7202.82 952.342 955.647 1237.56 1257.17
7205.62 974.381 980.859 1269.17 1282.59
7208.42 1015.85 996.154 1341.05 1302.36
7211.21 998.227 990.274 1296.88 1297.41
7214.01 956.739 1001.34 1254.31 1296.24
7216.81 1049.05 1012.04 1337.52 1316.36
7219.6 1030.33 1034.86 1357.25 1348.46
7222.4 1025.22 1027.87 1350.61 1350.45
7225.2 1028.08 1013.63 1343.49 1329.19
7227.99 987.581 1003.63 1293.49 1308.52
7230.79 995.237 984.642 1288.57 1298.38
7233.59 971.107 982.117 1313.09 1293.29
7236.38 980.009 967.073 1278.22 1269.09
7239.18 950.103 968.887 1215.97 1240.05
7241.97 976.548 975.967 1225.96 1239.47
7244.77 1001.25 971.517 1276.49 1236.97
7247.56 936.754 953.84 1208.45 1218.62
7250.36 923.517 936.358 1170.92 1191.61
7253.15 948.804 955.451 1195.45 1217.16
7255.95 994.031 968.304 1285.13 1246.17
7258.74 962.076 976.41 1257.94 1248.98
7261.54 973.122 976.093 1203.88 1242
7264.33 993.08 987.979 1264.19 1248.25
7267.12 997.735 982.644 1276.67 1249.39
7269.92 957.117 966.508 1207.3 1226.67
7272.71 944.673 964.242 1196.03 1218.32
7275.5 990.935 961.773 1251.63 1227.37
7278.3 949.711 952.981 1234.45 1221.47
7281.09 918.296 957.933 1178.32 1224.23
7283.88 1005.79 926.947 1259.93 1166.66
7286.68 856.753 920.422 1061.74 1161.57
7289.47 898.72 891.95 1163.04 1122.99
7292.26 920.379 921.914 1144.19 1177.69
7295.05 946.643 930.701 1225.83 1171.48
7297.84 925.083 942.782 1144.43 1192.94
7300.64 956.621 945.249 1208.55 1184.32
7303.43 954.042 949.292 1199.99 1195.81
7306.22 937.212 954.275 1178.88 1199.52
7309.01 971.57 948.699 1219.68 1190.43
7311.8 937.316 976.633 1172.72 1215.26
7314.59 1021.01 988.924 1253.37 1229.39
7317.38 1008.44 1012.8 1262.07 1277.94
7320.17 1008.96 1009.91 1318.37 1268.71
7322.96 1012.33 984.081 1225.7 1238.62
7325.75 930.958 982.294 1171.78 1215.99
7328.54 1003.59 974.106 1250.48 1207.5
7331.33 987.765 992.745 1200.25 1216.13
7334.12 986.876 998.147 1197.68 1203.28
7336.91 1019.8 995.442 1211.93 1188.24
7339.7 979.652 993.915 1155.12 1184.95
7342.49 982.295 969.66 1187.8 1197.51
7345.28 947.032 977.136 1249.62 1211.64
7348.06 1002.08 972.312 1197.51 1218.4
7350.85 967.823 978.955 1208.06 1195.75
7353.64 966.961 962.441 1181.68 1185.42
7356.43 952.54 953.488 1166.53 1170.36
7359.22 940.964 927.483 1162.86 1133.6
7362 888.946 932.327 1071.39 1133.28
7364.79 967.072 908.745 1165.59 1120.78
7367.58 870.216 934.99 1125.36 1149.96
7370.36 967.681 935.927 1158.94 1157.63
7373.15 969.884 960.612 1188.59 1172.64
7375.94 944.27 961.621 1170.4 1173.49
7378.72 970.708 951.039 1161.49 1156.71
7381.51 938.138 950.819 1138.23 1145.26
7384.3 943.612 935.995 1136.07 1116.03
7387.08 926.236 940.932 1073.8 1120.45
7389.87 952.947 931.758 1151.46 1108.84
7392.65 916.092 945.117 1101.26 1128.75
7395.44 966.31 939.227 1133.52 1113.92
7398.22 935.277 947.987 1106.96 1128.09
7401.01 942.372 927.145 1143.79 1108.93
7403.79 903.785 936.734 1076.05 1137.72
7406.58 964.046 939.752 1193.31 1133.08
7409.36 951.425 949.712 1129.89 1145.17
7412.14 933.664 939.801 1112.31 1116.66
7414.93 934.313 925.788 1107.77 1087.98
7417.71 909.388 917.003 1043.85 1085.57
7420.5 907.308 924.974 1105.08 1101.2
7423.28 958.225 932.784 1154.66 1131.65
7426.06 932.818 931.833 1135.21 1116.21
7428.84 904.456 948.041 1058.75 1128.37
7431.63 1006.85 963.732 1191.14 1143.6
7434.41 979.89 953.391 1180.92 1142.94
7437.19 873.432 916.242 1056.77 1091.8
7439.97 895.405 896.568 1037.69 1057.97
7442.76 920.868 914.276 1079.44 1072.08
7445.54 926.556 914.381 1099.12 1067.63
7448.32 895.719 910.061 1024.35 1062.81
7451.1 907.908 932.142 1064.97 1068.71
7453.88 992.799 884.887 1116.82 1074.87
7456.66 753.956 818.052 1042.82 1072.1
7459.44 707.403 744.957 1056.66 1071.8
7462.22 773.512 758.838 1115.92 1102.04
7465 795.6 772.567 1133.55 1118.65
7467.78 748.59 757.367 1106.48 1086.72
7470.56 727.912 746.942 1020.14 1088.65
7473.34 764.325 748.023 1139.31 1074.16
7476.12 751.831 747.942 1063.04 1059.78
7478.9 727.669 753.68 976.98 1062.83
7481.68 781.54 764.893 1148.48 1072.56
7484.46 785.47 779.19 1092.23 1120.3
7487.24 770.561 773.641 1120.2 1097.36
7490.02 764.892 756.505 1079.65 1094.14
7492.8 734.062 743.833 1082.56 1067.61
7495.57 732.543 748.834 1040.62 1066.18
7498.35 779.897 740.047 1075.36 1057.77
7501.13 707.702 741.953 1057.33 1068.89
7503.91 738.26 727.589 1073.97 1040.96
7506.68 736.804 728.252 991.592 1015.18
7509.46 709.693 735.185 979.977 1001.11
7512.24 759.06 740.927 1031.75 1018.04
7515.01 754.028 746.051 1042.4 1015
7517.79 725.066 745.424 970.861 1023.76
7520.57 757.179 726.227 1058.01 1020.33
7523.34 696.437 734.957 1032.12 1047.27
7526.12 751.256 717.625 1051.66 1021.5
7528.9 705.181 734.102 980.727 1038.72
7531.67 745.868 726.436 1083.77 1032.46
7534.45 728.26 737.176 1032.89 1065.3
7537.22 737.399 729.522 1079.25 1042.01
7540 722.908 742.758 1013.89 1047.5
7542.77 767.967 752.209 1049.36 1027.78
7545.55 765.752 747.641 1020.09 1010.31
7548.32 709.204 737.539 961.486 994.703
7551.09 737.661 734.254 1002.53 976.233
7553.87 755.898 740.967 964.682 972.694
7556.64 729.342 742.208 950.87 966.807
7559.41 741.384 739.922 984.869 987.784
7562.19 749.038 731.375 1027.61 989.905
7564.96 703.702 712.279 957.233 978.118
7567.73 684.097 714.69 949.51 972.917
7570.51 756.272 715.703 1012.01 978.871
7573.28 706.742 725.79 975.097 1000.54
7576.05 714.357 711.241 1014.52 982.487
7578.82 712.626 694.703 957.847 958.518
7581.6 657.128 695.797 903.189 948.146
7584.37 717.639 682.396 983.403 940.256
7587.14 672.421 669.884 934.177 928.195
7589.91 619.592 585.113 867.006 817.792
7592.68 463.325 465.184 652.191 652.795
7595.45 312.633 341.978 439.188 485.502
7598.22 249.976 255.449 365.127 358.714
7600.99 203.737 221.014 271.828 308.756
7603.76 209.33 204.118 289.312 275.384
7606.53 199.288 229.892 265.012 298.49
7609.3 281.058 289.78 341.148 370.51
7612.07 388.994 371.938 505.37 464.819
7614.84 445.762 442.927 547.939 553.21
7617.61 494.024 448.722 606.321 581.165
7620.38 406.38 429.249 589.234 573.02
7623.15 387.342 387.026 523.505 527.442
7625.92 367.358 375.202 469.585 494.131
7628.69 370.906 376.223 489.303 480.474
7631.46 390.405 395.52 482.535 515.93
7634.22 425.248 402.397 575.951 530.511
7636.99 391.537 424.316 533.048 553.75
7639.76 456.162 433.578 552.252 559.847
7642.53 453.035 453.571 594.24 567.199
7645.29 451.515 478.04 555.105 601.992
7648.06 529.572 493.188 656.63 618.087
7650.83 498.477 514.156 642.524 648.699
7653.59 514.42 507.235 646.943 664.54
7656.36 508.808 519.05 704.151 668.917
7659.13 533.922 539.357 655.655 684.639
7661.89 575.34 558.637 694.11 696.873
7664.66 566.649 591.521 740.852 747.046
7667.42 632.575 616.512 806.175 800.315
7670.19 650.311 635.139 853.917 816.646
7672.95 622.529 628.39 789.847 803.857
7675.72 612.329 632.383 767.806 782.349
7678.48 662.291 659.499 789.392 815.805
7681.25 703.877 676.7 890.216 820.082
7684.01 663.931 685.768 780.639 828.643
7686.78 689.496 668.683 815.074 815.364
7689.54 652.622 665.441 850.378 817.753
7692.3 654.207 657.982 787.808 827.021
7695.07 667.117 659.208 842.878 808.095
7697.83 656.3 672.893 793.6 826.642
7700.59 695.261 669.184 843.449 820.592
7703.36 655.991 670.01 824.727 845.287
7706.12 658.78 656.092 867.685 813.559
7708.88 653.504 659.38 748.267 769.117
7711.64 665.856 641.275 691.399 735.393
7714.41 604.465 633.86 766.513 735.904
7717.17 631.259 618.728 749.799 781.941
7719.93 620.46 637.25 829.51 800.173
7722.69 660.032 649.047 821.209 837.102
7725.45 666.648 662.02 860.588 843.836
7728.21 659.381 651.435 849.712 838.833
7730.97 628.276 654.318 806.199 831.523
7733.73 675.296 654.306 838.657 823.412
7736.49 659.346 661.535 825.381 816.109
7739.25 649.963 642.637 784.289 787.026
7742.01 618.602 630.003 751.409 738.782
7744.77 621.445 625.091 680.648 716.561
7747.53 635.226 644.736 717.625 705.765
7750.29 677.537 656.576 719.022 737.648
7753.05 656.965 674.63 776.295 782.424
7755.81 689.387 668.222 851.953 809.346
7758.57 658.315 688.81 799.789 835.853
7761.33 718.727 674.13 855.817 802.216
7764.09 645.347 678.737 751.041 805.138
7766.84 672.137 644.725 808.554 756.736
7769.6 616.691 667.832 710.612 785.156
7772.36 714.669 664.318 836.303 770.657
7775.12 661.594 677.463 765.057 773.42
7777.87 656.125 661.67 718.899 741.995
7780.63 667.291 655.824 742.029 737.909
7783.39 644.055 652.209 752.798 752.978
7786.14 645.282 666.462 764.106 761.678
7788.9 710.049 676.875 768.131 767.367
7791.66 675.293 693.086 769.865 749.96
7794.41 693.916 658.494 711.884 727.953
7797.17 606.274 648.363 702.11 731.43
7799.92 644.899 624.052 780.297 714.562
7802.68 620.982 638.354 661.279 733.909
7805.43 649.18 635.249 760.15 713.017
7808.19 635.586 651.331 717.621 756.322
7810.94 669.228 648.205 791.195 742.258
7813.7 639.802 659.322 717.957 742.637
7816.45 668.936 655.858 718.76 729.697
7819.2 658.836 661.701 752.373 734.035
7821.96 657.332 657.295 730.973 737.817
7824.71 655.717 653.891 730.105 729.596
7827.46 648.624 619.99 727.709 703.157
7830.22 555.629 620.922 651.656 706.647
7832.97 658.514 623.75 740.577 697.372
7835.72 657.107 646.426 699.882 704.84
7838.48 623.657 637.449 674.062 699.456
7841.23 631.583 633.678 724.424 700.245
7843.98 645.795 615.906 702.25 676.037
7846.73 570.339 624.955 601.437 660.384
7849.48 658.73 625.011 677.465 661.561
7852.23 645.963 648.59 705.781 726.539
7854.99 641.077 630.677 796.372 744.695
7857.74 604.991 628.013 731.933 749.82
7860.49 637.971 609.094 721.155 705.89
7863.24 584.321 605.422 664.582 688.31
7865.99 593.974 606.55 679.194 686.723
7868.74 641.356 609.163 716.393 679.835
7871.49 592.159 603.212 643.918 661.167
7874.24 576.122 601.009 623.191 654.575
7876.99 634.745 602.83 696.615 648.666
7879.74 597.622 627.518 626.192 677.668
7882.48 650.188 622.541 710.197 659.242
7885.23 619.813 626.411 641.336 665.749
7887.98 609.232 595.335 645.715 630.176
7890.73 556.958 567.762 603.475 619.887
7893.48 537.095 559.986 610.47 622.736
7896.23 585.903 566.074 654.262 633.351
7898.97 575.222 563.983 635.32 631.252
7901.72 530.825 572.811 604.174 626.336
7904.47 612.387 578.287 639.515 597.58
7907.21 591.65 604.898 549.052 584.815
7909.96 610.656 616.667 565.878 562.35
7912.71 647.695 616.66 572.12 594.685
7915.45 591.628 615.128 646.057 625.429
7918.2 606.062 586.445 658.109 651.512
7920.95 561.646 587.011 650.369 637.662
7923.69 593.324 570.971 604.51 614.29
7926.44 557.943 563.255 587.992 599.714
7929.18 538.498 551.571 606.639 602.663
7931.93 558.272 547.328 613.359 603.558
7934.67 545.213 561.45 590.676 616.951
7937.42 580.866 552.389 646.818 605.905
7940.16 531.089 569.124 580.223 610.403
7942.9 595.418 557.199 604.167 578.273
7945.65 545.091 570.286 550.429 586.561
7948.39 570.349 557.518 605.088 582.407
7951.13 557.114 572.752 591.703 607.309
7953.88 590.794 574.371 625.134 606.012
7956.62 575.205 585.24 601.198 612.444
7959.36 589.721 578.95 610.998 590.177
7962.11 571.925 578.245 558.334 563.9
7964.85 573.089 596.197 522.367 584.233
7967.59 643.577 597.885 671.998 613.218
7970.33 576.987 589.689 645.287 622.073
7973.07 548.504 577.905 548.933 593.589
7975.81 608.224 588.221 586.547 579.889
7978.56 607.936 604.522 604.188 583.772
7981.3 597.405 591.378 560.583 569.78
7984.04 568.792 586.396 544.57 572.801
7986.78 592.99 575.214 613.251 557.427
7989.52 563.861 568.203 514.462 548.604
7992.26 547.758 569.4 518.1 541.664
7995 596.58 574.012 592.431 567.908
7997.74 577.699 585.583 593.194 584.87
8000.48 582.47 568.084 568.984 586.809
8003.22 544.081 569.205 598.25 589.301
8005.95 581.063 566.231 600.668 586.205
8008.69 573.548 578.136 559.696 587.679
8011.43 579.796 489.447 602.674 517.414
8014.17 314.997 413.348 389.873 457.251
8016.91 345.251 297.814 379.207 373.135
8019.64 233.195 291.253 350.326 346.131
8022.38 295.313 354.09 308.859 383.758
8025.12 533.763 452.715 492.089 422.406
8027.86 529.07 545.696 466.27 516.805
8030.59 574.254 543.246 592.055 531.112
8033.33 526.415 541.567 535.012 550.293
8036.07 524.032 537.479 523.813 534.088
8038.8 561.99 529.314 543.438 527.293
8041.54 501.92 527.402 514.627 520.374
8044.27 518.295 528.259 503.058 518.684
8047.01 564.563 539.245 538.366 517.397
8049.74 534.877 559.119 510.767 537.691
8052.48 577.917 567.924 563.939 543.842
8055.21 590.977 566.828 556.819 542.855
8057.95 531.591 567.595 507.808 533.077
8060.68 580.219 559.031 534.606 538.493
8063.42 565.283 569.245 573.064 544.425
8066.15 562.234 550.246 525.605 529.681
8068.88 523.22 534.358 490.373 512.368
8071.62 517.621 526.376 521.126 502.571
8074.35 538.288 542.104 496.212 506.753
8077.08 570.401 542.034 502.922 499.007
8079.82 517.414 536.462 497.888 499.56
8082.55 521.572 504.717 497.871 486.393
8085.28 475.166 505.703 463.421 481.689
8088.01 520.372 497.294 483.775 478.858
8090.75 496.346 507.15 489.379 484.313
8093.48 504.733 516.392 479.786 483.875
8096.21 548.096 511.608 482.46 489.041
8098.94 481.995 505.631 504.876 476.022
8101.67 486.803 493.818 440.731 472.761
8104.4 512.657 517.165 472.676 478.338
8107.13 552.034 527.438 521.608 486.173
8109.86 517.623 531.633 464.233 479.1
8112.59 525.242 517.345 451.46 467.372
8115.32 509.172 513.564 486.424 467.088
8118.05 506.278 519.163 463.38 487.157
8120.78 542.039 518.807 511.667 479.647
8123.51 508.103 522.625 463.895 485.003
8126.24 517.732 523.415 479.447 488.444
8128.96 544.409 524.028 521.99 486.602
8131.69 509.944 522.089 458.368 491.079
8134.42 511.915 494.796 492.88 459.105
8137.15 462.53 488.934 426.066 461.118
8139.88 492.356 478.917 464.408 452.082
8142.6 481.866 486.559 465.773 461.523
8145.33 485.454 489.424 454.389 459.976
8148.06 500.951 487.615 459.764 449.649
8150.78 476.441 489.646 434.794 437.052
8153.51 491.547 488.149 416.597 434.187
8156.24 496.46 479.797 451.171 433.846
8158.96 451.385 472.831 433.771 433.345
8161.69 470.648 465.679 415.093 423.524
8164.41 475.003 456.65 421.709 401.509
8167.14 424.3 458.596 367.724 400.385
8169.86 476.486 462.255 411.722 396.528
8172.59 485.977 495.72 410.137 425.648
8175.31 524.697 487.502 455.085 427.633
8178.04 451.831 478.524 417.677 431.04
8180.76 459.043 458.94 420.357 409.789
8183.49 465.945 468.999 391.334 414.241
8186.21 482.008 475.876 431.032 410.057
8188.93 479.674 477.395 407.806 411.499
8191.66 470.501 465.916 395.661 398.632
8194.38 447.574 474.803 392.43 410.483
8197.1 506.333 469.879 443.358 404.918
8199.82 455.729 488.307 378.965 425.152
8202.55 502.858 485.65 453.134 419.499
8205.27 498.364 504.27 426.399 436.886
8207.99 511.589 488.412 431.127 425.439
8210.71 455.284 479.841 418.791 419.78
8213.43 472.649 470.331 409.422 420.859
8216.15 483.059 470.409 434.365 423.081
8218.87 455.52 472.156 425.455 426.899
8221.59 477.89 461.801 420.876 408.786
8224.31 451.992 456.651 380.026 391.657
8227.03 440.071 449.041 374.069 385.902
8229.75 455.059 451.311 403.61 392.915
8232.47 458.803 465.445 401.066 403.549
8235.19 482.472 469.909 405.971 402.833
8237.91 468.453 472.608 401.46 403.821
8240.63 466.899 460.438 404.031 391.672
8243.35 445.961 455.3 369.525 387.163
8246.07 453.039 465.272 387.933 394.4
8248.78 496.816 483.732 425.74 408.631
8251.5 501.339 487.455 412.22 416.004
8254.22 464.21 463.097 410.052 392.156
8256.94 423.74 457.992 354.196 386.367
8259.65 486.027 459.149 394.852 380.889
8262.37 467.68 479.59 393.619 401.894
8265.09 485.062 474.501 417.213 398.13
8267.8 470.76 478.246 383.56 397.387
8270.52 478.916 467.65 391.387 379.724
8273.24 453.274 473.042 364.226 373.609
8275.95 486.935 465.601 365.214 365.615
8278.67 456.596 474.622 367.404 371.093
8281.38 480.335 457.932 380.662 358.28
8284.1 436.865 451.306 326.775 365.168
8286.81 436.719 442.456 388.067 362.775
8289.53 453.784 449.157 373.485 382.614
8292.24 456.969 444.095 386.29 370.77
8294.95 421.533 442.259 352.535 352.857
8297.67 448.274 423.85 319.746 340.734
8300.38 401.743 411.403 349.922 345.594
8303.09 384.192 372.356 367.115 367.254
8305.81 331.135 361.129 384.725 379.747
8308.52 368.062 347.081 387.4 378.88
8311.23 342.045 362.107 364.515 384.699
8313.94 376.213 363.194 402.181 376.372
8316.66 371.323 381.99 362.421 383.708
8319.37 398.435 388.05 386.522 377.816
8322.08 394.392 387.838 384.504 389.385
8324.79 370.686 366.912 397.128 371.275
8327.5 335.66 291.334 332.194 308.646
8330.21 167.657 226.3 196.617 253.799
8332.92 175.583 167.021 232.586 212.364
8335.63 157.824 248.669 207.89 272.296
8338.34 412.6 323.83 376.413 304.488
8341.05 401.066 398.488 329.162 356.143
8343.76 381.796 375.947 362.853 364.859
8346.47 344.979 365.025 402.563 377.167
8349.18 368.3 353.578 366.085 375.323
8351.89 347.456 364.715 357.321 358.223
8354.6 378.388 357.673 351.263 352.803
8357.31 347.176 363.8 349.825 331.842
8360.01 365.837 370.278 294.439 356.121
8362.72 397.821 379.164 424.1 353.773
8365.43 373.835 376.979 342.78 378.118
8368.14 359.282 372.429 367.475 358.199
8370.84 384.171 367.268 364.342 357.168
8373.55 358.352 373.438 339.688 360.107
8376.26 377.792 375.349 376.29 347.862
8378.96 389.905 367.763 327.606 356.656
8381.67 335.592 373.542 366.071 342.591
8384.38 395.128 368.061 334.096 339.421
8387.08 373.463 383.607 318.096 338.495
8389.79 382.23 371.499 363.292 349.882
8392.49 358.803 381.818 368.258 359.887
8395.2 404.422 381.242 348.111 340.407
8397.9 380.501 402.296 304.851 327.006
8400.61 421.964 390.342 328.055 324.616
8403.31 368.561 317.097 340.941 290.456
8406.01 160.767 239.054 202.373 251.147
8408.72 187.835 241.758 210.128 252.042
8411.42 376.672 310.842 343.624 294.032
8414.12 368.02 390.878 328.343 342.092
8416.83 427.942 389.296 354.31 356.223
8419.53 371.925 398.647 386.014 353.378
8422.23 396.074 381.328 319.81 345.56
8424.93 375.985 369.005 330.856 326.213
8427.63 334.956 378.704 327.972 328.016
8430.34 425.172 373.862 325.221 322.053
8433.04 361.456 374.793 312.967 321.434
8435.74 337.751 360.152 326.113 329.087
8438.44 381.248 366.911 348.182 333.243
8441.14 381.735 383.809 325.432 344.791
8443.84 388.445 395.062 360.758 330.158
8446.54 415.008 392.244 304.283 327.051
8449.24 373.279 391.806 316.112 308.959
8451.94 387.131 374.437 306.481 324.902
8454.64 362.901 380.731 352.112 323.509
8457.34 392.162 370.911 311.934 320.934
8460.04 357.669 378.813 298.757 292.581
8462.74 386.608 373.449 267.051 259.037
8465.43 376.069 386.976 211.302 265.213
8468.13 398.252 377.628 317.285 270.979
8470.83 358.564 375.318 284.351 307.109
8473.53 369.137 375.211 319.692 302.871
8476.22 397.934 388.772 304.569 321.251
8478.92 399.245 399.365 339.492 336.681
8481.62 400.917 403.689 365.982 346.596
8484.31 410.904 392.362 334.316 330.898
8487.01 365.263 386.48 292.397 308.513
8489.71 383.271 369.958 298.826 286.342
8492.4 361.34 361.295 267.804 280.236
8495.1 339.274 343.75 274.079 268.787
8497.79 330.634 340.905 264.478 273.997
8500.49 352.806 348.193 283.433 277.61
8503.18 361.139 361.246 284.918 281.442
8505.88 369.792 369.12 275.974 283.206
8508.57 376.43 369.838 288.726 301.492
8511.27 363.291 367.668 339.774 307.576
8513.96 363.282 373.975 294.227 314.333
8516.65 395.351 368.101 308.998 301.021
8519.35 345.67 372.852 299.837 306.852
8522.04 377.536 360.436 311.721 303.475
8524.73 358.1 372.13 298.865 311.596
8527.42 380.755 370.481 324.203 304.915
8530.12 372.587 364.515 291.678 299.714
8532.81 340.203 346.313 283.261 268.691
8535.5 326.149 316.332 231.133 236.837
8538.19 282.645 292.713 196.118 228.626
8540.88 269.347 295.06 258.627 236.535
8543.57 333.189 322.28 254.861 254.865
8546.26 364.303 358.174 251.107 270.241
8548.95 377.029 378.016 304.753 280.902
8551.64 392.717 383.98 286.847 293.946
8554.33 382.195 397.694 290.239 300.875
8557.02 418.171 394.923 325.539 303.845
8559.71 384.402 402.088 295.758 313.543
8562.4 403.69 393.961 319.331 306.262
8565.09 393.791 398.188 303.696 301.771
8567.78 397.083 395.207 282.285 285.823
8570.47 394.746 407.784 271.487 288.022
8573.15 431.524 409.899 310.294 287.866
8575.84 403.426 398.867 281.816 290.873
8578.53 361.65 388.644 280.509 288.744
8581.22 400.856 388.502 303.905 290.65
8583.9 402.999 405.964 287.535 297.671
8586.59 414.037 409.244 301.574 311.022
8589.28 410.695 407.336 343.957 324.349
8591.96 397.277 395.503 327.516 316.649
8594.65 378.537 402.19 278.475 306.396
8597.33 430.755 404.304 313.197 291.202
8600.02 403.619 412.228 281.933 294.945
8602.7 402.309 404.655 289.705 287.568
8605.39 408.036 414.781 291.067 294.287
8608.07 433.997 402.558 302.091 294.774
8610.76 365.642 394.182 291.163 280.362
8613.44 382.907 376.672 247.831 272.596
8616.13 381.469 389.462 278.794 271.623
8618.81 404.009 398.321 288.245 279.62
8621.49 409.484 411.238 271.821 283.442
8624.18 420.221 396.798 290.261 289.109
8626.86 360.688 397.47 305.243 292.192
8629.54 411.501 384.129 281.072 267.468
8632.22 380.198 389.649 216.09 245.354
8634.91 377.248 390.289 238.9 244.33
8637.59 413.42 406.502 278 268.324
8640.27 428.837 405.349 288.071 278.947
8642.95 373.79 396.591 270.77 256.225
8645.63 387.147 386.612 209.834 240.001
8648.31 398.898 402.011 239.401 249.259
8650.99 419.987 402.577 298.543 263.548
8653.67 388.847 392.016 252.7 256.867
8656.35 367.215 347.53 219.358 218.071
8659.03 286.529 316.061 182.157 199.655
8661.71 294.44 305.147 197.45 182.768
8664.39 334.471 334.751 168.699 193.112
8667.07 375.34 357.461 213.186 193.963
8669.75 362.572 376.286 200.005 219.719
8672.43 390.945 385.847 245.965 242.949
8675.1 404.025 398.199 282.878 241.601
8677.78 399.626 401.454 195.96 232.962
8680.46 400.71 408.168 220.047 226.21
8683.14 424.17 410.183 262.623 242.898
8685.81 405.668 411.316 246.025 257.811
8688.49 404.111 402.724 264.784 244.853
8691.17 398.392 412.767 223.749 245.12
8693.84 435.799 412.17 246.826 242.628
8696.52 402.319 420.498 257.308 248.341
8699.19 423.376 401.803 240.889 241.404
8701.87 379.714 401.233 226.016 231.914
8704.54 400.61 401.733 228.837 235.315
8707.22 424.875 426.896 251.092 242.71
8709.89 455.202 429.441 248.2 242.438
8712.57 408.245 428.353 228.021 237.113
8715.24 421.611 418.159 235.119 244.346
8717.91 424.621 429.144 269.896 246.971
8720.59 441.199 417.785 235.897 243.973
8723.26 387.536 409.242 226.126 234.644
8725.93 398.992 388.395 241.908 224.701
8728.61 378.657 401.765 206.07 228.363
8731.28 427.647 402.548 237.11 236.822
8733.95 401.34 404.681 267.285 235.824
8736.62 385.055 398.316 203.077 229.326
8739.29 408.553 398.796 217.617 214.73
8741.97 402.778 417.782 223.495 236.008
8744.64 442.015 416.099 266.913 246.806
8747.31 403.504 412.616 250.009 250.42
8749.98 392.327 397.715 234.337 233.963
8752.65 397.312 397.466 217.542 217.199
8755.32 402.76 399.175 199.719 201.857
8757.99 397.452 411.581 188.311 200.766
8760.66 434.532 423.614 214.268 212.298
8763.33 438.859 430.765 234.315 191.197
8766 418.904 426.485 125.007 185.841
8768.66 421.693 420.719 198.2 171.687
8771.33 421.56 400.742 191.853 183.816
8774 358.972 406.131 161.394 205.331
8776.67 437.862 405.324 262.745 213.074
8779.34 419.137 431.688 215.082 233.031
8782 438.066 403.277 221.265 202.681
8784.67 352.628 389.392 171.697 187.878
8787.34 377.483 380.319 170.672 178.004
8790 410.847 397.455 191.643 198.42
8792.67 404.037 402.592 232.944 198.239
8795.33 392.892 396.694 170.13 198.879
8798 393.153 412.105 193.564 204.542
8800.67 450.269 406.507 249.932 216.999
8803.33 376.098 391.663 207.501 215.46
8806 348.62 364.974 188.947 193.985
8808.66 370.204 371.939 185.506 201.579
8811.32 396.992 387.854 230.284 201.559
8813.99 396.365 403.186 188.886 205.144
8816.65 416.201 422.527 196.263 196.732
8819.31 455.016 419.859 205.046 196.655
8821.98 388.36 418.559 188.655 185.873
8824.64 412.3 402.392 163.918 173.857
8827.3 406.517 383.5 168.999 161.991
8829.97 331.682 366.191 153.057 202.612
8832.63 360.375 362.137 285.779 229.033
8835.29 394.355 373.017 248.262 215.896
8837.95 364.321 392.982 113.646 187.654
8840.61 420.269 392.595 201.053 176.789
8843.27 393.195 415.469 215.668 206.492
8845.93 432.944 412.41 202.754 212.581
8848.59 411.091 413.466 219.322 211.54
8851.25 396.363 400.463 212.544 184.119
8853.91 393.935 404.509 120.491 176.927
8856.57 423.23 396.813 197.748 168.879
8859.23 373.275 398.5 188.4 184.736
8861.89 398.995 385.593 168.06 190.64
8864.55 384.508 385.554 215.46 178.912
8867.21 373.159 378.575 153.216 179.747
8869.87 378.059 386.721 170.566 159.978
8872.52 408.946 388.94 156.152 164.701
8875.18 379.816 398.384 167.385 156.192
8877.84 406.389 390.709 145.039 148.348
8880.5 385.92 401.068 132.62 147.136
8883.15 410.895 416.985 163.749 180.631
8885.81 454.139 422.431 245.525 207.114
8888.47 402.259 428.081 212.067 250.165
8891.12 427.844 408.508 292.903 186.442
8893.78 395.421 408.556 54.3568 122.812
8896.43 402.402 404.537 21.1754 70.377
8899.09 415.79 405.697 135.599 117.608
8901.74 398.901 414.267 196.05 185.191
8904.4 428.109 408.77 223.924 186.685
8907.05 399.3 401.404 140.08 157.396
8909.7 376.801 390.162 108.185 107.077
8912.36 394.383 379.053 72.9653 68.9135
8915.01 365.973 376.881 25.5899 102.237
8917.66 370.288 373.427 208.155 145.318
8920.32 384.019 374.33 202.208 207.482
8922.97 368.682 372.436 212.082 133.714
8925.62 364.606 360.718 -13.1477 -20.3226
8928.27 348.866 363.682 -259.902 -138.384
8930.93 377.575 367.011 -142.101 -121.613
8933.58 374.592 383.503 37.1638 12.9954
8936.23 398.341 387.978 143.924 98.3782
8938.88 391.001 402.96 114.047 146.956
8941.53 419.538 389.052 182.897 167.019
8944.18 356.617 385.085 204.112 187.339
8946.83 379.099 363.661 175.008 147.591
8949.48 355.265 378.056 63.6528 105.361
8952.13 399.804 362.278 77.4211 83.4768
8954.78 331.765 375.503 109.357 145.693
8957.43 394.941 356.332 250.302 194.615
8960.07 342.29 348.836 224.185 202.714
8962.72 309.278 336.074 133.655 105.478
8965.37 356.653 331.988 -41.4066 -22.5994
8968.02 330.034 355.436 -160.047 -48.3165
8970.67 379.62 355.386 56.504 1.07309
8973.31 356.504 368.232 106.762 105.025
8975.96 368.572 365.521 151.809 130.924
8978.61 371.488 367.212 134.2 153.755
8981.25 361.575 354.889 175.257 147.398
8983.9 331.604 348.707 132.737 166.637
8986.54 352.941 343.724 191.918 190.655
8989.19 346.626 335.448 247.311 190.674
8991.84 306.776 331.379 132.795 173.524
8994.48 340.735 329.468 140.468 123.516
8997.12 340.892 335.868 97.2866 133.022
8999.77 325.977 355.024 161.311 170.722
9002.41 398.203 339.522 253.57 216.363
9005.06 294.384 339.548 234.209 183.328
9007.7 326.056 328.374 62.2053 95.5871
9010.34 364.681 345.175 -9.65317 36.5363
9012.99 344.786 353.168 57.0567 65.5691
9015.63 350.037 342.339 149.304 128.382
9018.27 332.193 342.919 178.785 157.313
9020.91 346.526 339.883 143.85 160.354
9023.55 340.929 338.465 158.428 143.936
9026.2 327.94 344.144 129.529 156.545
9028.84 363.563 352.29 181.68 158.6
9031.48 365.366 364.804 164.59 174.144
9034.12 365.483 369.099 176.162 172.485
9036.76 376.447 367.226 176.704 169.95
9039.4 359.748 361.315 156.985 170.444
9042.04 347.751 352.577 177.642 155.789
9044.68 350.231 368.714 132.74 159.155
9047.32 408.161 369.994 167.083 171.418
9049.96 351.592 372.662 214.43 170.956
9052.59 358.233 357.143 131.355 155.046
9055.23 361.604 360.369 119.352 101.197
9057.87 361.269 348.932 52.8831 80.8087
9060.51 323.922 339.66 70.1909 84.5645
9063.15 333.787 333.65 130.619 117.723
9065.78 343.24 341.713 152.359 144.917
9068.42 348.111 323.919 151.773 157.936
9071.06 280.405 308.224 169.675 149.531
9073.69 296.156 261.26 127.145 133.008
9076.33 207.221 217.001 102.205 98.0998
9078.96 147.625 118.282 64.9502 55.7183
