wavelength spec_sum spec_optimal
3534.41 26.0022 -1.94344
3537.32 25.9082 -24.6373
3540.24 18.1365 -12.3015
3543.15 23.389 -1.89172
3546.06 23.5579 -0.449809
3548.97 33.6663 13.3664
3551.89 18.5342 2.65185
3554.8 24.2754 6.06978
3557.71 24.3061 11.3784
3560.62 30.1809 12.2796
3563.54 22.4067 -2.97841
3566.45 21.2521 12.151
3569.36 22.9443 4.2147
3572.28 13.364 20.4658
3575.19 21.6789 -6.23751
3578.1 14.6764 11.4832
3581.01 19.1638 -1.00181
3583.93 19.4862 10.1282
3586.84 15.8612 12.9541
3589.75 24.9571 13.5551
3592.66 21.4371 0.0384166
3595.58 28.5929 3.41563
3598.49 22.6938 4.90728
3601.4 27.562 7.13659
3604.31 25.1652 6.57111
3607.23 24.8833 -7.15583
3610.14 27.8259 -10.772
3613.05 22.6908 9.73989
3615.96 20.898 0.435811
3618.88 20.4207 12.9437
3621.79 28.7558 8.54824
3624.7 28.1841 16.6982
3627.62 25.9737 -9.74666
3630.53 31.2992 10.5847
3633.44 27.4159 14.3956
3636.35 27.8362 5.15309
3639.27 29.7324 12.1336
3642.18 25.6562 3.75732
3645.09 23.7877 4.77761
3648 30.2615 0.407636
3650.92 28.1712 12.7298
3653.83 33.5645 9.7267
3656.74 29.9405 5.10624
3659.65 26.008 10.9914
3662.57 35.7063 -5.8811
3665.48 30.0562 0.720082
3668.39 35.6555 -1.30656
3671.3 30.7519 5.74507
3674.22 33.2654 -4.87387
3677.13 28.5662 8.50804
3680.04 28.7918 1.47628
3682.95 29.3687 -1.63113
3685.87 25.7597 2.39184
3688.78 28.0692 3.5749
3691.69 36.3293 -2.1872
3694.6 37.3117 0.13838
3697.52 33.5305 9.25921
3700.43 32.3328 -2.08896
3703.34 31.3557 7.85596
3706.25 29.0898 -8.30155
3709.17 34.2005 4.5751
3712.08 30.5003 1.28225
3714.99 29.8287 1.04739
3717.9 27.2474 -2.95485
3720.82 28.0467 -3.52128
3723.73 31.6346 3.82362
3726.64 30.9496 7.26026
3729.55 31.2763 8.72522
3732.47 20.399 15.5472
3735.38 24.1195 -1.83852
3738.29 23.7631 13.8728
3741.2 30.4326 18.4868
3744.11 24.6553 9.58914
3747.03 23.7402 10.3376
3749.94 24.1628 4.1058
3752.85 28.8114 0.611955
3755.76 32.0259 5.66833
3758.68 25.3016 4.95801
3761.59 30.8462 3.54008
3764.5 30.4517 8.30942
3767.41 33.4336 4.43969
3770.33 31.159 7.97885
3773.24 33.5505 -0.100082
3776.15 37.9377 7.02881
3779.06 38.5199 5.64887
3781.97 37.9936 7.19805
3784.89 36.9962 18.0349
3787.8 30.5679 10.7698
3790.71 33.1288 -8.09632
3793.62 31.5484 10.3941
3796.54 31.172 7.88143
3799.45 33.9403 9.61851
3802.36 33.6112 11.5947
3805.27 34.6887 2.95372
3808.18 31.1097 0.414895
3811.1 31.4725 3.62083
3814.01 23.7002 0.458288
3816.92 28.2031 3.39118
3819.83 28.6591 19.3139
3822.74 24.6206 -2.26801
3825.66 19.3399 9.51263
3828.57 19.306 4.55934
3831.48 19.3322 9.56474
3834.39 16.2759 8.21094
3837.3 20.5092 4.06691
3840.22 23.3133 5.90236
3843.13 27.672 9.69349
3846.04 22.3031 -1.32826
3848.95 28.6161 6.0828
3851.86 22.2778 0.197692
3854.78 19.9923 0.336451
3857.69 24.1261 9.06669
3860.6 28.8657 12.5548
3863.51 26.0179 3.53921
3866.42 23.7507 3.12705
3869.34 21.2882 2.51655
3872.25 19.7025 4.30366
3875.16 28.8312 4.75636
3878.07 24.3686 1.97102
3880.98 23.1408 4.85098
3883.89 24.0801 14.2373
3886.81 25.2317 1.11628
3889.72 33.5664 -0.108723
3892.63 34.6229 7.08948
3895.54 31.1336 1.8606
3898.45 31.73 4.16964
3901.36 33.7006 8.90249
3904.28 35.6379 10.0589
3907.19 31.6019 2.10603
3910.1 37.7883 5.92125
3913.01 34.9795 10.758
3915.92 32.8982 12.9124
3918.83 35.2894 11.3335
3921.75 31.5485 7.79004
3924.66 29.3852 2.57649
3927.57 23.7054 7.61963
3930.48 20.8892 3.49554
3933.39 16.3243 -2.92684
3936.3 19.8448 3.58626
3939.21 27.2105 2.33567
3942.13 30.4225 6.99725
3945.04 28.245 8.13132
3947.95 30.427 9.87347
3950.86 35.8506 -3.02829
3953.77 37.0239 -1.26384
3956.68 37.1209 8.5477
3959.59 35.1455 6.9301
3962.5 30.2562 7.40987
3965.42 26.8546 0.364395
3968.33 26.0857 4.92994
3971.24 25.3474 0.471296
3974.15 33.297 2.23824
3977.06 32.6276 7.37507
3979.97 38.8837 2.40125
3982.88 43.2666 -0.160679
3985.79 47.0782 8.16139
3988.71 50.6987 4.179
3991.62 51.0589 14.9772
3994.53 49.6114 10.6294
3997.44 50.0414 -2.70109
4000.35 59.2133 -4.59799
4003.26 50.5924 -3.55414
4006.17 55.7931 6.04077
4009.08 56.2158 7.26768
4011.99 59.6118 7.45825
4014.9 56.2968 8.17413
4017.81 59.2824 14.3542
4020.73 57.5495 7.72037
4023.64 56.586 -3.71709
4026.55 52.8404 4.01074
4029.46 56.7671 8.74288
4032.37 59.803 9.55356
4035.28 56.1029 13.5581
4038.19 58.6279 10.9405
4041.1 53.3754 18.0162
4044.01 54.0964 6.96972
4046.92 53.4492 7.60811
4049.83 53.3513 5.25269
4052.74 59.7411 11.9608
4055.65 53.323 8.4213
4058.56 48.7753 7.69165
4061.48 55.6819 8.61508
4064.39 50.201 5.42412
4067.3 51.2296 3.50096
4070.21 55.9268 9.29662
4073.12 52.0623 5.83662
4076.03 54.9842 9.05784
4078.94 52.5368 3.3791
4081.85 59.5277 10.5957
4084.76 57.8519 -3.22349
4087.67 59.8612 7.02137
4090.58 59.8665 8.70165
4093.49 62.2386 -2.96665
4096.4 51.8111 2.42007
4099.31 56.7035 4.52027
4102.22 53.3437 6.68309
4105.13 59.1246 8.4165
4108.04 54.7326 1.55425
4110.95 62.8877 10.2987
4113.86 57.8276 6.61686
4116.77 65.6737 11.7011
4119.68 60.8598 6.64886
4122.59 60.6647 10.0592
4125.5 60.6783 3.84334
4128.41 57.0691 5.13801
4131.32 59.8394 14.9513
4134.23 63.1597 11.7151
4137.14 64.5841 5.99673
4140.05 63.1938 -3.72024
4142.96 52.6462 3.34255
4145.87 61.9543 5.46823
4148.78 61.2495 9.32491
4151.69 60.9447 5.00321
4154.6 61.7054 5.97966
4157.51 61.6758 8.08926
4160.42 59.7607 6.69641
4163.33 59.6974 4.89324
4166.24 61.9652 12.8532
4169.15 59.9913 14.7815
4172.06 59.8562 8.40933
4174.96 63.8168 6.21598
4177.87 59.789 9.50696
4180.78 59.9904 1.5165
4183.69 58.9811 8.533
4186.6 61.9742 8.08584
4189.51 49.8202 5.24685
4192.42 58.9033 7.09329
4195.33 52.2905 5.44569
4198.24 53.06 5.84624
4201.15 51.3803 10.0497
4204.06 56.0154 4.92273
4206.97 54.9105 4.7144
4209.88 53.7753 -1.73329
4212.79 56.1349 7.58
4215.69 54.2786 15.4191
4218.6 56.1817 9.33996
4221.51 52.1087 10.7022
4224.42 54.1654 10.643
4227.33 55.3595 1.62868
4230.24 51.1353 8.88336
4233.15 55.1147 10.4983
4236.06 51.9938 8.50379
4238.97 55.3303 7.90781
4241.87 56.4275 6.2173
4244.78 49.533 1.22056
4247.69 52.7361 2.32048
4250.6 51.9237 5.60753
4253.51 53.2568 6.12479
4256.42 54.0319 6.23616
4259.33 54.2308 13.4674
4262.23 55.2629 6.42846
4265.14 52.007 4.13011
4268.05 46.9659 -1.38533
4270.96 49.5901 8.59848
4273.87 49.9364 -0.727661
4276.78 50.9827 8.51037
4279.68 52.0161 5.92728
4282.59 51.9626 1.34807
4285.5 51.6785 5.4489
4288.41 47.6607 8.78022
4291.32 48.2223 9.93601
4294.23 48.6857 4.42077
4297.13 42.5544 6.87407
4300.04 41.9484 -3.5548
4302.95 42.9055 -0.114249
4305.86 36.0549 -6.89601
4308.77 40.4676 6.74115
4311.67 43.2683 4.13071
4314.58 50.5555 8.79123
4317.49 55.6855 1.23674
4320.4 49.5007 6.6952
4323.3 50.4852 2.7336
4326.21 53.4986 6.46943
4329.12 56.3362 6.88073
4332.03 59.5561 11.3563
4334.94 55.8145 4.64793
4337.84 54.7328 3.21399
4340.75 55.1702 9.27049
4343.66 59.6706 5.02922
4346.57 59.4338 11.4415
4349.47 55.994 4.61031
4352.38 58.1122 8.16897
4355.29 59.4176 6.98614
4358.2 59.3895 10.0489
4361.1 62.0382 0.961646
4364.01 58.3258 7.27292
4366.92 60.8695 10.4478
4369.82 58.5325 8.65421
4372.73 56.1549 3.05365
4375.64 55.2725 10.101
4378.55 58.6216 10.1166
4381.45 50.4446 4.19038
4384.36 57.7614 7.6466
4387.27 51.3947 4.04162
4390.17 56.8619 6.14868
4393.08 55.1868 0.417126
4395.99 58.3945 8.25373
4398.89 55.8262 10.1445
4401.8 56.2247 5.5513
4404.71 53.623 4.60969
4407.61 56.3614 6.91039
4410.52 61.179 7.45454
4413.43 57.5402 -1.69952
4416.33 59.3062 8.13935
4419.24 60.5857 6.28122
4422.15 62.7909 11.999
4425.05 62.2691 3.25798
4427.96 61.2781 10.5379
4430.86 60.9566 9.77359
4433.77 61.9626 10.9478
4436.68 67.4674 11.3864
4439.58 65.5612 10.8625
4442.49 60.1208 3.97402
4445.4 64.9068 10.3456
4448.3 63.6222 7.00192
4451.21 61.8777 10.326
4454.11 64.9439 10.7482
4457.02 57.1433 7.80779
4459.93 59.6277 11.7841
4462.83 63.6269 6.37834
4465.74 61.9924 13.9166
4468.64 63.515 13.4757
4471.55 64.6172 10.2559
4474.45 67.6103 6.60408
4477.36 69.7222 9.73908
4480.27 69.3516 6.54875
4483.17 70.3408 16.0959
4486.08 68.4181 5.2662
4488.98 63.8793 8.55386
4491.89 67.172 5.70323
4494.79 69.0508 7.3241
4497.7 72.0162 7.66081
4500.6 71.4818 10.5137
4503.51 73.8921 11.2796
4506.41 71.1188 13.23
4509.32 71.1043 7.76046
4512.22 71.3894 6.25659
4515.13 67.2776 11.7285
4518.03 70.8752 9.11676
4520.94 69.891 9.15554
4523.84 65.2019 7.69025
4526.75 66.5244 2.70114
4529.65 66.7952 5.58665
4532.56 68.967 5.48264
4535.46 66.7594 7.3718
4538.37 65.5175 10.5805
4541.27 65.4219 4.19139
4544.18 67.4273 15.4095
4547.08 67.6017 7.33291
4549.99 64.5984 8.93346
4552.89 70.3459 14.3267
4555.79 70.6552 7.53805
4558.7 70.8144 7.9129
4561.6 68.2863 5.76472
4564.51 69.4723 8.84645
4567.41 66.1445 7.95143
4570.32 69.9003 5.41067
4573.22 69.9917 6.53042
4576.12 68.4038 8.31863
4579.03 72.2072 8.28144
4581.93 72.6301 11.7702
4584.83 71.5932 16.313
4587.74 71.876 7.53541
4590.64 67.4589 11.9008
4593.55 67.47 11.4381
4596.45 66.8372 5.99107
4599.35 70.8101 5.01922
4602.26 70.7364 10.6441
4605.16 70.8798 8.51867
4608.06 71.4148 3.27361
4610.97 72.6105 0.871955
4613.87 71.7025 10.2514
4616.77 71.9861 4.0746
4619.68 74.2955 3.73499
4622.58 69.4491 3.80358
4625.48 73.7249 6.87887
4628.39 70.0235 4.81794
4631.29 72.2833 7.39736
4634.19 67.0058 9.31487
4637.1 72.8743 7.66446
4640 66.5394 9.87222
4642.9 70.5969 10.1292
4645.8 72.5019 7.68271
4648.71 69.5907 11.3448
4651.61 70.6416 5.23004
4654.51 70.7192 10.5599
4657.42 67.9225 3.94473
4660.32 74.074 8.82307
4663.22 65.9822 11.5322
4666.12 67.5252 2.80359
4669.02 66.9732 8.63739
4671.93 68.8501 7.12275
4674.83 69.0671 2.63426
4677.73 69.5329 12.1267
4680.63 69.3381 1.67958
4683.54 65.4777 6.16528
4686.44 68.2766 6.96951
4689.34 72.8697 8.48526
4692.24 68.9813 9.91627
4695.14 69.392 5.42542
4698.05 66.7404 4.02982
4700.95 65.8351 4.85128
4703.85 64.9593 5.15963
4706.75 65.0824 5.73081
4709.65 67.4457 5.33487
4712.55 70.6627 5.3749
4715.46 69.6543 9.25473
4718.36 72.1186 8.82765
4721.26 69.7491 5.78861
4724.16 72.101 3.65057
4727.06 70.2407 6.16143
4729.96 69.8416 3.9511
4732.86 70.5592 4.00785
4735.76 72.0822 3.21647
4738.67 70.6768 5.19679
4741.57 72.5066 6.63317
4744.47 71.0427 7.44139
4747.37 73.964 1.26218
4750.27 73.2661 5.8532
4753.17 71.3923 2.64416
4756.07 71.8086 3.76729
4758.97 70.2059 1.56041
4761.87 68.0756 2.98545
4764.77 69.3327 8.61913
4767.67 74.3528 0.250219
4770.57 69.6678 5.69372
4773.47 71.91 1.71675
4776.37 68.806 3.8763
4779.27 74.5086 5.44062
4782.17 71.2028 1.35576
4785.07 68.6068 5.30411
4787.97 65.882 1.12178
4790.87 67.0721 3.32746
4793.77 70.651 3.01765
4796.67 71.8018 8.8514
4799.57 71.8059 11.1633
4802.47 70.4281 5.88103
4805.37 71.5773 0.519891
4808.27 70.23 2.31268
4811.17 74.0837 8.39628
4814.07 69.6218 4.97832
4816.97 69.158 4.63181
4819.87 70.0962 5.04583
4822.77 67.6891 1.14832
4825.67 71.6856 5.81269
4828.57 71.1549 6.69362
4831.47 70.4599 3.95693
4834.37 73.4373 5.70045
4837.27 72.4145 5.61704
4840.16 70.1812 2.32427
4843.06 71.925 4.13407
4845.96 75.1882 4.9571
4848.86 71.8263 5.07497
4851.76 69.8584 5.82632
4854.66 63.9444 5.38265
4857.56 65.5305 1.97752
4860.46 62.5248 8.58022
4863.35 62.6253 2.8651
4866.25 66.6777 -1.15013
4869.15 67.9242 3.32311
4872.05 67.2103 6.84379
4874.95 66.3386 3.92183
4877.85 67.0023 -0.453934
4880.74 70.0796 8.06302
4883.64 73.0338 5.71101
4886.54 73.3066 1.62369
4889.44 71.1603 3.69286
4892.34 74.1684 4.47393
4895.23 71.0202 1.88018
4898.13 73.2492 7.50135
4901.03 77.9681 12.1358
4903.93 73.4826 9.67361
4906.82 73.0299 9.29865
4909.72 71.7279 5.30573
4912.62 71.6644 6.65178
4915.52 69.5876 7.07088
4918.41 69.342 7.53491
4921.31 73.9006 7.58302
4924.21 73.1819 7.93131
4927.1 75.6994 1.71456
4930 72.4955 15.2422
4932.9 72.4295 4.58986
4935.79 70.2226 7.55214
4938.69 72.1557 6.75441
4941.59 70.9757 9.91221
4944.48 73.6455 11.8492
4947.38 72.7994 5.38477
4950.28 74.7152 8.22901
4953.17 67.7296 3.02337
4956.07 71.6411 10.1831
4958.97 70.332 5.41468
4961.86 69.9684 8.78161
4964.76 71.527 9.91749
4967.66 76.4865 6.77457
4970.55 69.9197 2.0313
4973.45 71.1426 5.00392
4976.34 70.8456 10.967
4979.24 69.0323 7.0307
4982.13 69.918 4.64025
4985.03 69.0108 0.177551
4987.93 70.2291 10.2516
4990.82 67.4523 5.02522
4993.72 70.6173 11.4644
4996.61 73.4184 8.72215
4999.51 69.7752 4.16881
5002.4 70.4724 5.98243
5005.3 68.45 3.63906
5008.19 68.691 6.79627
5011.09 68.217 3.57239
5013.98 68.8715 4.87505
5016.88 68.5993 5.27354
5019.77 68.0978 4.1944
5022.67 69.4831 9.47384
5025.56 70.7461 -3.40683
5028.46 70.6255 4.85037
5031.35 70.3358 2.35062
5034.25 71.3436 5.85564
5037.14 67.0679 3.74842
5040.04 69.0578 3.4476
5042.93 73.5191 4.12383
5045.82 68.2188 -0.533728
5048.72 68.9459 -2.73297
5051.61 71.5994 6.09087
5054.51 73.2309 4.72735
5057.4 73.7459 5.0243
5060.29 73.5433 2.43549
5063.19 70.7113 -1.32492
5066.08 74.0397 7.55572
5068.97 73.0079 -0.470133
5071.87 70.8989 6.41194
5074.76 69.9214 6.2271
5077.65 69.9003 4.98927
5080.55 68.9472 7.28157
5083.44 74.2566 2.39749
5086.33 69.7888 9.55769
5089.23 72.2196 5.9606
5092.12 72.1145 7.1652
5095.01 68.893 2.31272
5097.91 72.7188 4.38857
5100.8 70.5724 2.75508
5103.69 69.5793 2.29958
5106.58 70.6467 0.615763
5109.48 72.2234 4.95889
5112.37 71.7103 5.21304
5115.26 71.3041 2.87581
5118.15 68.1109 4.56859
5121.05 69.9805 11.2628
5123.94 68.2286 4.98277
5126.83 68.6787 8.41162
5129.72 72.0557 5.1465
5132.62 74.2751 6.24154
5135.51 69.1719 2.88336
5138.4 69.9343 2.61351
5141.29 70.3347 4.64544
5144.18 69.2769 1.76212
5147.07 67.8989 1.01971
5149.97 68.653 3.65219
5152.86 69.9507 12.209
5155.75 66.8861 9.48662
5158.64 69.3848 -1.9633
5161.53 67.0398 1.76761
5164.42 65.8338 2.89036
5167.31 58.9533 6.62981
5170.2 61.4064 4.16583
5173.09 63.191 6.89442
5175.99 67.1656 2.49374
5178.88 65.7822 6.82298
5181.77 62.385 3.50756
5184.66 67.1076 3.56667
5187.55 70.1962 1.44192
5190.44 67.4471 -1.1356
5193.33 73.7098 5.09249
5196.22 70.9145 4.83858
5199.11 75.8069 -1.79003
5202 72.818 6.78416
5204.89 72.6832 2.57898
5207.78 74.897 6.96171
5210.67 79.4041 6.42647
5213.56 79.5496 3.91838
5216.45 78.2621 3.17938
5219.34 80.685 6.21676
5222.23 75.2354 5.64445
5225.12 74.411 -0.276557
5228.01 77.1495 0.795166
5230.9 77.5211 6.32127
5233.78 76.5246 0.377483
5236.67 79.7538 -0.0513642
5239.56 85.8521 3.62123
5242.45 80.7904 7.33246
5245.34 80.1993 4.58975
5248.23 80.8159 8.99197
5251.12 77.8897 -2.06714
5254.01 80.712 7.63757
5256.9 82.7343 1.89906
5259.78 80.0144 6.1385
5262.67 75.5984 3.71863
5265.56 73.2624 3.01092
5268.45 74.2065 9.6034
5271.34 74.826 7.99505
5274.22 78.7106 0.773159
5277.11 80.6741 7.9649
5280 79.4919 6.30768
5282.89 76.3803 0.253396
5285.78 80.8423 4.47931
5288.66 82.7877 3.3381
5291.55 83.0958 2.34345
5294.44 79.0762 1.98453
5297.33 82.0302 1.33138
5300.21 82.8278 3.68851
5303.1 80.618 5.6014
5305.99 83.9235 4.59687
5308.87 85.3688 1.92664
5311.76 85.1362 1.01617
5314.65 84.0116 5.33078
5317.54 81.1606 5.33743
5320.42 78.6253 -0.207727
5323.31 79.0641 2.00317
5326.2 79.5567 9.48189
5329.08 79.1593 0.0782818
5331.97 78.5166 4.50596
5334.85 78.2293 -4.66584
5337.74 77.5644 1.48132
5340.63 82.0743 3.30145
5343.51 77.8969 -0.0402388
5346.4 80.5757 1.80229
5349.28 78.1257 -0.339562
5352.17 80.9626 0.892253
5355.06 81.5041 2.51697
5357.94 85.2406 -1.62253
5360.83 81.7795 2.49377
5363.71 78.1174 4.8063
5366.6 78.4929 1.93008
5369.48 77.8128 -2.48283
5372.37 80.9803 5.03751
5375.25 79.5027 0.0468063
5378.14 80.0578 -2.43022
5381.02 80.7447 -3.5116
5383.91 85.2209 1.26855
5386.79 79.3552 -1.08854
5389.68 81.2771 -2.84297
5392.56 79.5264 3.90968
5395.45 74.7893 -0.0455154
5398.33 79.4547 0.850127
5401.21 77.1613 -0.706112
5404.1 75.8121 -2.91264
5406.98 75.5644 -4.74291
5409.87 77.4213 -1.11253
5412.75 80.2639 -2.76186
5415.63 82.1697 5.53109
5418.52 79.7078 0.89375
5421.4 82.0771 0.363126
5424.28 80.5872 4.84008
5427.17 81.6095 1.11793
5430.05 79.2138 -5.77417
5432.93 74.9284 0.762222
5435.82 80.2367 3.2656
5438.7 83.9167 -9.36529
5441.58 80.0123 -1.71424
5444.47 76.1669 -2.45814
5447.35 84.635 -4.80417
5450.23 80.702 0.113772
5453.11 80.078 -4.55622
5456 78.8094 -0.487126
5458.88 78.8877 -5.95633
5461.76 78.9514 -6.49298
5464.64 80.0376 0.553203
5467.53 82.5986 -8.00934
5470.41 78.9452 0.772531
5473.29 80.9495 2.32107
5476.17 74.3365 0.0833227
5479.05 78.0035 -2.2159
5481.94 78.9619 -2.05539
5484.82 81.3366 -1.92085
5487.7 78.2464 -6.43268
5490.58 81.5834 0.265407
5493.46 80.0176 -4.32439
5496.34 81.3671 -5.72207
5499.22 78.765 -6.6751
5502.1 75.5441 -6.99352
5504.99 76.9118 -7.39985
5507.87 78.8719 -4.99581
5510.75 81.6754 -1.22536
5513.63 78.6708 3.11119
5516.51 83.0985 -6.76564
5519.39 79.7114 -3.67529
5522.27 81.3405 1.83431
5525.15 77.0827 1.95749
5528.03 75.7252 -5.45471
5530.91 81.5257 -4.71706
5533.79 78.6681 2.03069
5536.67 77.1928 -2.41535
5539.55 81.2925 -3.30531
5542.43 80.4775 0.595981
5545.31 81.6646 -1.98671
5548.19 81.1115 -1.50552
5551.07 76.7463 -2.14174
5553.95 79.7709 -3.75364
5556.83 78.1594 -4.73306
5559.7 76.0278 0.377429
5562.58 72.3725 0.0764505
5565.46 73.992 -2.33893
5568.34 74.0987 -2.29198
5571.22 72.4855 -3.59293
5574.1 74.1449 -6.47117
5576.98 62.9472 -14.5735
5579.86 68.3616 -12.6133
5582.73 75.4845 -0.537496
5585.61 68.5176 -4.85194
5588.49 68.9428 -7.50625
5591.37 67.3299 -5.65404
5594.25 70.0971 0.545934
5597.12 69.7964 1.42832
5600 75.0469 3.14078
5602.88 72.5717 -4.99269
5605.76 76.4386 1.82848
5608.63 73.1392 0.11253
5611.51 73.9054 -3.52689
5614.39 71.9821 -4.66625
5617.27 73.5175 1.66634
5620.14 77.4905 -0.0825748
5623.02 71.9774 -0.746442
5625.9 75.0785 -0.853451
5628.77 77.2813 0.242509
5631.65 74.4509 0.266098
5634.53 69.4962 -0.730177
5637.4 72.2262 0.608956
5640.28 71.0276 1.16963
5643.15 75.4281 3.16201
5646.03 75.2812 -2.86827
5648.91 75.5407 -0.955361
5651.78 73.2457 -2.2026
5654.66 72.2795 -2.88927
5657.53 70.2617 -1.37205
5660.41 72.5156 -1.86021
5663.29 70.0772 0.970689
5666.16 71.8968 -2.70456
5669.04 77.9619 7.52057
5671.91 72.7618 -1.01781
5674.79 69.8693 -1.62977
5677.66 74.519 2.79373
5680.54 71.8558 1.13993
5683.41 72.5175 4.89362
5686.29 72.0378 1.64896
5689.16 74.2145 -2.47996
5692.03 71.5634 2.9922
5694.91 73.4981 2.15022
5697.78 71.1848 -0.63863
5700.66 73.3195 3.16242
5703.53 70.9048 -2.41338
5706.4 70.0601 3.40132
5709.28 72.8242 3.51516
5712.15 70.285 -2.22137
5715.03 71.8328 4.5384
5717.9 76.2965 0.975844
5720.77 72.2797 1.09897
5723.65 72.0644 1.85903
5726.52 74.1186 1.62013
5729.39 73.8679 3.39355
5732.27 74.3927 -2.5889
5735.14 76.9725 4.74579
5738.01 74.119 0.369747
5740.88 75.1773 15.0286
5743.76 73.0181 5.04413
5746.63 73.3953 6.84392
5749.5 69.9524 2.44541
5752.37 74.8565 -0.834676
5755.24 70.8481 5.26
5758.12 72.9593 1.70747
5760.99 71.9588 8.63503
5763.86 73.7858 5.04039
5766.73 77.476 -0.130145
5769.6 71.2282 -0.278743
5772.48 72.7279 2.79403
5775.35 73.171 4.63732
5778.22 70.7262 6.92387
5781.09 67.0063 2.123
5783.96 68.9537 -0.186205
5786.83 72.6859 3.06144
5789.7 71.8474 -0.25728
5792.57 74.0722 1.63348
5795.44 70.1058 -2.82633
5798.31 71.5823 0.161327
5801.18 73.6557 -4.16528
5804.05 75.1428 9.10459
5806.92 69.0679 -0.446464
5809.79 74.836 5.21565
5812.66 73.1926 2.80559
5815.53 78.1909 8.27126
5818.4 73.0786 3.47834
5821.27 75.8579 1.92197
5824.14 73.5454 -2.83167
5827.01 75.2305 2.66821
5829.88 74.9446 7.00429
5832.75 73.2826 0.250443
5835.62 76.0914 1.94262
5838.49 72.6294 0.849551
5841.36 73.3249 3.26216
5844.23 74.6783 2.03209
5847.09 74.8243 4.03171
5849.96 72.1108 7.85499
5852.83 71.61 2.35424
5855.7 74.569 7.29752
5858.57 74.409 2.02373
5861.44 75.0911 3.39426
5864.3 73.2666 -0.617923
5867.17 75.9033 2.72962
5870.04 74.9152 7.7216
5872.91 73.7766 2.28803
5875.77 76.8315 5.67264
5878.64 70.2822 2.54789
5881.51 72.6158 0.225845
5884.38 68.5626 -2.55411
5887.24 66.478 4.35155
5890.11 62.9405 2.65278
5892.98 68.5531 6.04269
5895.84 70.7326 2.54213
5898.71 68.6383 6.98347
5901.58 67.1103 -3.16636
5904.44 69.5452 7.20082
5907.31 72.6685 7.50081
5910.17 70.1677 3.49372
5913.04 72.2711 5.35523
5915.91 69.4996 5.16199
5918.77 70.2511 1.53083
5921.64 69.7577 4.81182
5924.5 72.674 6.77188
5927.37 69.5392 5.60313
5930.23 75.8171 2.97699
5933.1 74.6045 9.11035
5935.96 76.2028 1.76416
5938.83 73.1721 4.22023
5941.69 73.2066 6.25506
5944.56 72.9017 2.68001
5947.42 73.0095 11.5796
5950.29 70.4808 2.11253
5953.15 71.0801 5.4182
5956.02 71.1064 1.60386
5958.88 70.7895 4.2986
5961.74 69.1092 1.90158
5964.61 74.4605 1.58776
5967.47 73.694 5.0571
5970.34 71.924 6.6107
5973.2 69.2141 4.40275
5976.06 76.0103 11.2474
5978.93 70.2325 3.30124
5981.79 70.9066 6.60112
5984.65 67.8839 6.1409
5987.51 72.4969 7.4864
5990.38 71.7356 10.003
5993.24 72.6011 10.8282
5996.1 73.2962 6.68993
5998.97 73.1951 6.51039
6001.83 70.9428 8.64423
6004.69 72.0097 11.656
6007.55 70.3718 2.83268
6010.41 69.7966 3.88001
6013.28 70.4148 7.10648
6016.14 70.145 9.26957
6019 69.7183 5.1978
6021.86 70.9642 6.99856
6024.72 72.119 1.5481
6027.58 71.9008 7.53101
6030.44 70.5818 11.2448
6033.31 74.6597 7.66924
6036.17 71.5606 9.30369
6039.03 70.876 9.84757
6041.89 72.9305 13.8287
6044.75 72.4219 9.9735
6047.61 72.9149 6.38425
6050.47 68.5993 12.1049
6053.33 71.4325 8.50806
6056.19 76.0982 11.0997
6059.05 72.3287 3.32751
6061.91 72.0114 -0.506319
6064.77 70.5942 11.8124
6067.63 72.6275 7.75651
6070.49 72.5581 4.02916
6073.35 69.0643 7.84183
6076.21 72.209 8.50573
6079.06 69.0225 10.3596
6081.92 71.1618 10.5499
6084.78 68.4005 8.9167
6087.64 71.114 8.91548
6090.5 65.9361 9.40196
6093.36 70.6585 6.86837
6096.22 71.7728 14.0367
6099.07 72.5221 8.84493
6101.93 65.2079 0.523481
6104.79 69.6095 6.71641
6107.65 73.3674 13.8243
6110.51 67.8758 7.82599
6113.36 66.6086 7.01214
6116.22 70.8927 14.0261
6119.08 64.9157 11.2676
6121.93 70.5682 13.8263
6124.79 71.0855 10.2203
6127.65 70.8156 11.166
6130.51 67.883 12.7325
6133.36 65.2065 11.4433
6136.22 62.3649 10.5803
6139.07 65.7535 7.88386
6141.93 69.8659 11.8061
6144.79 70.2363 15.1316
6147.64 67.7237 8.98482
6150.5 66.573 11.1372
6153.35 67.9103 6.60543
6156.21 63.1469 11.9568
6159.07 64.8188 10.9144
6161.92 65.3963 9.22266
6164.78 66.7039 15.5891
6167.63 66.0048 15.2212
6170.49 68.0218 20.4837
6173.34 70.9562 17.6287
6176.2 71.9061 19.2246
6179.05 69.9464 12.3426
6181.91 68.5706 20.1179
6184.76 68.5202 15.0955
6187.61 67.1702 14.2956
6190.47 68.3267 14.3157
6193.32 71.6082 18.411
6196.18 64.8357 13.6842
6199.03 70.4716 13.744
6201.88 71.6914 14.0603
6204.74 70.6168 17.4239
6207.59 70.1149 12.2891
6210.44 69.3665 15.3782
6213.3 72.414 16.0013
6216.15 74.1427 20.5373
6219 66.0505 18.4832
6221.85 77.2746 22.6579
6224.71 68.2969 9.84693
6227.56 71.8874 21.8334
6230.41 72.5753 15.7981
6233.26 69.0498 14.8166
6236.12 71.0249 13.1091
6238.97 68.5791 15.7878
6241.82 72.4066 20.9597
6244.67 70.8136 11.6835
6247.52 74.1327 21.7994
6250.37 67.6862 17.0598
6253.22 69.8154 16.2077
6256.08 73.4271 21.156
6258.93 74.017 23.3864
6261.78 75.0189 16.6061
6264.63 76.4945 18.4275
6267.48 76.7531 11.9332
6270.33 80.701 21.8308
6273.18 72.8407 21.2616
6276.03 74.4753 22.8402
6278.88 69.3775 23.758
6281.73 74.846 25.0441
6284.58 74.1932 19.3331
6287.43 71.3667 19.4275
6290.28 73.6518 20.1005
6293.13 73.2635 14.0933
6295.98 71.1657 11.162
6298.83 74.5713 2.25157
6301.67 68.892 4.67833
6304.52 77.417 23.5306
6307.37 70.6258 25.9721
6310.22 61.2817 20.7598
6313.07 71.2804 22.6354
6315.92 66.8033 21.4689
6318.76 72.0531 24.7017
6321.61 76.0528 32.4465
6324.46 73.7224 27.0106
6327.31 73.7246 23.8587
6330.16 72.9992 18.9451
6333 68.1546 19.8493
6335.85 74.4067 20.3328
6338.7 71.6216 24.4987
6341.54 72.2554 27.9393
6344.39 71.0462 26.9533
6347.24 73.2629 30.5173
6350.08 72.7782 29.1214
6352.93 72.9169 24.3847
6355.78 69.0113 18.634
6358.62 75.5419 21.5616
6361.47 76.1526 24.2297
6364.32 71.5688 20.9564
6367.16 71.4172 17.0845
6370.01 71.4696 22.9629
6372.85 69.9344 18.0791
6375.7 71.0613 24.6152
6378.54 73.0359 26.7038
6381.39 77.223 37.9431
6384.23 76.141 31.5256
6387.08 73.0616 30.5128
6389.92 73.4152 34.9405
6392.77 70.7469 34.6978
6395.61 75.1325 22.4988
6398.46 74.4991 27.478
6401.3 74.3367 30.6125
6404.14 71.1413 30.1348
6406.99 74.7012 29.2571
6409.83 72.2696 28.1662
6412.67 75.0398 34.905
6415.52 73.9905 29.6046
6418.36 68.0661 27.1156
6421.2 74.5984 28.7251
6424.05 75.3053 38.7026
6426.89 73.8582 36.437
6429.73 72.8809 37.519
6432.57 72.2237 32.9198
6435.42 73.4197 32.437
6438.26 75.6903 36.1609
6441.1 68.401 31.4745
6443.94 75.426 27.4834
6446.79 72.893 33.7703
6449.63 72.3856 37.6007
6452.47 75.0285 35.3481
6455.31 75.1488 32.51
6458.15 70.7786 32.2464
6460.99 70.2928 31.951
6463.83 67.1291 31.742
6466.67 71.9689 36.9622
6469.51 71.8919 27.1308
6472.36 71.579 36.0623
6475.2 71.1898 37.416
6478.04 72.1197 38.5013
6480.88 74.9544 39.1687
6483.72 74.2829 37.3095
6486.56 69.0025 30.7029
6489.4 68.3001 28.7479
6492.23 68.2507 36.2409
6495.07 65.3936 35.4232
6497.91 74.4833 37.4976
6500.75 70.6596 31.2611
6503.59 72.4004 37.6131
6506.43 68.0855 36.9142
6509.27 70.9625 39.99
6512.11 72.4913 41.8357
6514.95 71.4437 38.9526
6517.78 70.7522 42.9975
6520.62 70.0178 40.1729
6523.46 71.2879 32.7029
6526.3 67.1282 34.3886
6529.13 66.5825 37.2067
6531.97 72.0984 39.7079
6534.81 72.6965 46.9994
6537.65 68.6464 38.0525
6540.48 70.4833 45.6636
6543.32 68.6333 33.0863
6546.16 69.4393 42.8301
6548.99 66.0051 40.0977
6551.83 67.3621 30.1836
6554.67 61.8163 33.5599
6557.5 56.884 38.3632
6560.34 57.6546 42.0059
6563.17 63.2792 33.5004
6566.01 63.7993 39.4689
6568.85 66.2632 40.8819
6571.68 66.9417 38.126
6574.52 71.8355 41.4962
6577.35 69.448 41.7945
6580.19 71.2825 41.3285
6583.02 66.9219 49.1475
6585.86 64.7462 38.7565
6588.69 66.1604 48.8303
6591.52 68.2994 42.4892
6594.36 70.6597 36.7492
6597.19 69.0746 39.9702
6600.03 73.7814 42.37
6602.86 71.6826 47.8988
6605.69 68.6395 48.8535
6608.53 70.6378 43.2935
6611.36 71.9326 54.0337
6614.19 70.2902 52.3184
6617.03 71.9863 49.5162
6619.86 68.7835 52.1966
6622.69 70.0095 45.4724
6625.52 72.4082 50.8285
6628.36 72.4985 52.4524
6631.19 72.6513 49.1722
6634.02 71.2151 51.6379
6636.85 69.6366 44.4527
6639.68 69.1387 50.1697
6642.52 68.8042 43.6884
6645.35 73.0393 48.9829
6648.18 65.6899 45.0097
6651.01 64.9679 52.6682
6653.84 63.6344 50.5669
6656.67 67.8534 48.7689
6659.5 63.2739 50.8509
6662.33 66.4884 54.8216
6665.16 63.782 51.7988
6667.99 62.7856 51.5397
6670.82 65.8681 45.0726
6673.65 63.3563 52.1659
6676.48 66.1038 58.8968
6679.31 64.4301 52.0721
6682.14 64.6151 49.3771
6684.97 65.2679 54.7957
6687.8 67.7555 54.678
6690.63 68.2133 57.0701
6693.46 67.1717 53.2699
6696.29 67.265 56.8259
6699.12 68.1893 61.7743
6701.94 65.2888 58.1857
6704.77 65.4627 60.5139
6707.6 64.0689 54.3443
6710.43 64.7633 50.6903
6713.26 65.7317 56.6452
6716.08 66.8628 66.4631
6718.91 68.6515 62.5624
6721.74 68.4128 59.8133
6724.57 63.5005 56.7646
6727.39 66.6814 62.8654
6730.22 68.8621 64.9088
6733.05 67.3887 57
6735.87 65.4709 61.5142
6738.7 63.4458 62.3198
6741.52 64.3932 60.7745
6744.35 62.9918 59.6449
6747.18 63.3513 58.7232
6750 68.9136 67.5279
6752.83 67.4257 62.9747
6755.65 65.1904 63.6322
6758.48 67.4824 63.0777
6761.3 67.0412 62.7844
6764.13 66.3121 68.6536
6766.95 66.2875 67.4266
6769.78 62.1519 58.817
6772.6 65.1351 58.815
6775.43 65.2104 65.9263
6778.25 67.4039 67.5754
6781.07 66.0456 65.843
6783.9 62.7047 62.9334
6786.72 65.9245 65.1368
6789.55 64.7293 68.6842
6792.37 63.5789 66.4166
6795.19 65.0623 69.0551
6798.01 62.6715 69.791
6800.84 63.6358 61.1673
6803.66 65.9313 71.3606
6806.48 64.8122 67.2418
6809.3 62.0005 65.8125
6812.13 67.3159 69.9205
6814.95 64.5832 70.1779
6817.77 65.5168 68.0357
6820.59 64.5716 70.4975
6823.41 60.5257 63.2066
6826.24 61.8569 69.6538
6829.06 59.6846 72.6209
6831.88 59.9313 66.6778
6834.7 65.0421 77.6679
6837.52 61.506 64.2841
6840.34 60.8979 68.1309
6843.16 58.9376 66.0049
6845.98 63.6386 65.2404
6848.8 62.5435 73.1575
6851.62 60.4763 71.7223
6854.44 57.6006 70.6531
6857.26 62.884 73.2606
6860.08 61.3599 69.9117
6862.9 56.7746 64.3459
6865.72 49.7761 55.9413
6868.54 47.9414 56.0043
6871.35 47.5948 56.2203
6874.17 47.505 61.5602
6876.99 52.406 63.9107
6879.81 56.6245 69.7283
6882.63 54.8518 66.6356
6885.45 55.5562 62.3302
6888.26 54.6205 69.4223
6891.08 51.2404 63.1085
6893.9 53.4088 62.5086
6896.72 54.6926 66.8867
6899.53 54.11 68.1097
6902.35 56.6172 72.3604
6905.17 58.936 72.1691
6907.98 55.8407 71.265
6910.8 57.3287 73.1873
6913.61 59.3658 74.3192
6916.43 60.0866 77.4787
6919.25 59.1818 70.4949
6922.06 61.9347 76.4314
6924.88 56.718 74.7702
6927.69 60.1906 78.091
6930.51 56.2396 75.4223
6933.32 60.7061 80.5788
6936.14 60.0828 75.2474
6938.95 60.9975 76.4867
6941.77 59.8944 77.2011
6944.58 59.2398 73.7433
6947.4 60.7141 77.4778
6950.21 61.5917 79.5261
6953.02 64.3179 79.7595
6955.84 60.4775 84.34
6958.65 63.3447 84.2755
6961.46 64.886 83.3246
6964.28 60.7144 78.6019
6967.09 60.7692 83.2235
6969.9 59.7582 78.6627
6972.72 53.7008 70.2484
6975.53 58.0536 75.3551
6978.34 62.263 82.7461
6981.15 61.6492 77.1293
6983.97 57.1191 81.4315
6986.78 60.7635 80.0928
6989.59 60.2559 81.5277
6992.4 60.325 80.7607
6995.21 60.4079 81.4299
6998.02 56.698 75.0117
7000.83 61.8215 85.8528
7003.64 56.2667 79.259
7006.46 59.2062 82.7269
7009.27 60.213 86.4609
7012.08 60.7991 86.5297
7014.89 59.6193 82.4262
7017.7 59.3403 89.7524
7020.51 58.4476 86.6928
7023.32 61.2327 89.6247
7026.12 56.819 82.7739
7028.93 58.4016 81.7543
7031.74 61.8098 90.9851
7034.55 58.8922 81.837
7037.36 63.2398 93.593
7040.17 60.2344 83.0915
7042.98 58.4163 87.4752
7045.79 64.1577 94.9966
7048.59 56.6389 85.15
7051.4 59.7521 92.2448
7054.21 61.385 96.1754
7057.02 60.4749 92.9251
7059.82 61.2474 87.4446
7062.63 60.0557 94.1355
7065.44 58.2658 84.683
7068.24 58.7479 89.6316
7071.05 60.095 90.5001
7073.86 60.714 94.4095
7076.66 60.0268 96.6632
7079.47 57.3137 87.1167
7082.28 59.9662 89.1399
7085.08 59.409 93.1085
7087.89 57.4772 91.7371
7090.69 56.7106 84.9878
7093.5 60.3216 93.8722
7096.3 59.2151 100.894
7099.11 59.314 91.6207
7101.91 62.7196 100.59
7104.72 59.1024 91.4081
7107.52 61.9219 93.1804
7110.33 63.1908 97.5305
7113.13 57.8825 92.2199
7115.93 58.3017 90.046
7118.74 61.6974 103.562
7121.54 63.1152 100.962
7124.34 57.4011 94.6567
7127.15 64.0516 105.581
7129.95 59.7183 102.511
7132.75 59.9354 95.6324
7135.55 58.4615 97.1512
7138.36 58.9059 92.0028
7141.16 60.9528 99.2265
7143.96 60.1648 98.9983
7146.76 60.0261 97.9545
7149.56 61.038 103.677
7152.37 60.1139 102.45
7155.17 63.72 107.121
7157.97 60.1059 102.213
7160.77 63.8206 109.7
7163.57 60.6946 103.648
7166.37 60.5281 103.17
7169.17 59.3647 99.2143
7171.97 58.7945 98.6069
7174.77 58.8283 99.5318
7177.57 58.2402 96.5113
7180.37 57.0632 97.1964
7183.17 56.6517 92.8247
7185.97 60.8094 103.967
7188.77 62.3299 105.042
7191.57 59.0544 103.997
7194.37 63.6828 109.703
7197.16 56.996 99.1352
7199.96 59.0486 103.06
7202.76 56.3221 106.593
7205.56 60.2182 106.892
7208.36 64.3337 114.347
7211.15 61.7097 105.053
7213.95 60.0604 103.294
7216.75 64.6701 121.741
7219.55 64.2582 112.138
7222.34 65.2292 111.118
7225.14 63.9315 113.05
7227.94 60.9133 109.437
7230.73 62.1748 106.686
7233.53 62.0349 111.012
7236.33 61.5661 110.195
7239.12 57.9406 102.556
7241.92 49.5757 108.103
7244.71 61.8838 112.062
7247.51 58.3553 110.861
7250.3 57.0547 110.023
7253.1 57.7365 105.865
7255.89 61.9247 115.618
7258.69 58.9641 108.966
7261.48 57.5731 108.505
7264.28 61.3669 114.074
7267.07 58.9375 111.317
7269.86 58.9736 111.251
7272.66 58.9314 108.6
7275.45 62.1286 120.689
7278.24 51.6015 112.635
7281.04 56.6696 107.808
7283.83 56.0248 113.955
7286.62 53.2102 100.892
7289.41 57.2359 105.517
7292.21 51.1692 106.513
7295 53.995 113.014
7297.79 52.5246 110.112
7300.58 54.8629 113.165
7303.37 55.3644 111.55
7306.16 52.734 113.346
7308.96 56.9914 121.135
7311.75 54.0807 111.165
7314.54 58.6418 126.566
7317.33 59.1696 121.915
7320.12 57.9665 130.747
7322.91 57.5837 125.634
7325.7 53.3221 116.108
7328.49 58.4177 126.836
7331.28 58.5952 123.875
7334.07 57.2128 130.565
7336.86 53.6613 137.396
7339.65 57.9424 122.594
7342.43 58.0462 123.252
7345.22 51.5207 124.972
7348.01 59.1533 133.619
7350.8 56.504 129.142
7353.59 57.2791 123.858
7356.38 56.7832 128.229
7359.16 55.0633 122.301
7361.95 51.186 112.681
7364.74 57.5742 124.537
7367.53 44.665 113.45
7370.31 59.5672 137.748
7373.1 56.8108 134.836
7375.89 55.6177 131.23
7378.67 58.3418 133.969
7381.46 53.9042 120.72
7384.24 53.0952 128.206
7387.03 55.5934 122.37
7389.82 55.16 126.921
7392.6 53.4817 126.76
7395.39 58.3744 134.412
7398.17 55.5041 123.358
7400.96 55.4123 134.218
7403.74 52.2215 122.258
7406.53 57.4881 134.151
7409.31 55.0863 121.654
7412.09 54.2996 130.56
7414.88 55.6763 132.625
7417.66 53.7128 126.418
7420.45 54.8949 125.008
7423.23 58.4499 136.124
7426.01 53.9533 135.863
7428.79 53.7134 125.47
7431.58 57.4426 140.403
7434.36 59.1338 142.469
7437.14 53.7579 120.135
7439.92 51.1838 125.753
7442.71 55.9015 135.958
7445.49 55.5021 140.716
7448.27 55.5919 124.103
7451.05 54.6838 134.211
7453.83 59.0937 147.228
7456.61 56.9908 141.85
7459.39 52.8089 130.843
7462.17 59.3612 145.641
7464.95 59.6951 148.314
7467.73 57.371 136.096
7470.51 55.4151 135.755
7473.29 59.3655 148.21
7476.07 57.7249 137.199
7478.85 53.6512 138.267
7481.63 59.5451 150.07
7484.41 56.2637 151.412
7487.19 55.6206 147.761
7489.97 58.2523 150.599
7492.75 55.8501 138.647
7495.53 55.9067 139.769
7498.3 57.9518 148.761
7501.08 54.5827 139.399
7503.86 56.9005 141.923
7506.64 55.0635 141.086
7509.41 52.4291 135.273
7512.19 54.101 147.45
7514.97 54.0513 145.356
7517.74 49.8765 135.983
7520.52 56.2193 147.298
7523.3 51.7753 130.397
7526.07 53.6676 146.522
7528.85 52.5456 131.242
7531.62 53.0081 142.204
7534.4 53.6335 139.954
7537.17 55.837 141.701
7539.95 53.2986 137.144
7542.72 53.6723 144.997
7545.5 54.6189 148.406
7548.27 50.5168 132.08
7551.05 52.7191 142.363
7553.82 50.1484 141.822
7556.59 50.3042 137.629
7559.37 51.7583 143.978
7562.14 52.466 147.844
7564.91 50.0246 134.461
7567.69 46.4909 127.733
7570.46 53.2689 146.774
7573.23 50.9606 136.002
7576.01 51.3406 140.163
7578.78 52.5593 136.506
7581.55 47.1562 125.17
7584.32 49.6417 139.63
7587.09 46.7443 127.242
7589.86 46.2063 116.975
7592.64 33.674 91.9251
7595.41 22.4247 60.637
7598.18 17.9708 50.1704
7600.95 13.6864 40.3906
7603.72 15.8894 41.5029
7606.49 14.8635 39.0222
7609.26 19.9772 58.3277
7612.03 26.8733 80.2314
7614.8 30.4698 89.0499
7617.57 32.707 102.463
7620.34 29.1911 86.1389
7623.1 27.0382 78.4343
7625.87 26.437 76.8031
7628.64 27.0824 77.0513
7631.41 26.4456 83.2719
7634.18 29.4523 88.4895
7636.95 29.013 82.2831
7639.71 31.507 96.0536
7642.48 33.8502 94.4305
7645.25 33.4314 95.316
7648.01 37.9175 110.022
7650.78 36.3404 110.445
7653.55 39.0864 110.886
7656.31 37.312 106.903
7659.08 37.9414 115.98
7661.85 41.8762 120.885
7664.61 42.8173 124.432
7667.38 46.8984 137.237
7670.14 47.9759 144.041
7672.91 46.4424 139.903
7675.67 46.5564 137.189
7678.44 47.1007 150.584
7681.2 53.9314 161.024
7683.97 45.8968 150.397
7686.73 51.5092 161.904
7689.5 51.1125 145.685
7692.26 48.802 150.037
7695.02 48.7925 153.042
7697.79 51.1062 150.603
7700.55 52.6604 164.701
7703.31 52.1661 154.891
7706.07 52.8675 146.804
7708.84 42.3718 153.638
7711.6 50.1264 146.511
7714.36 48.1246 147.598
7717.12 38.5475 154.995
7719.88 47.4052 153.809
7722.65 50.9854 160.101
7725.41 53.5023 162.403
7728.17 46.6659 162.249
7730.93 50.5146 151.958
7733.69 53.8995 166.058
7736.45 53.4518 161.991
7739.21 51.0486 158.57
7741.97 42.6952 157.338
7744.73 43.5946 151.29
7747.49 45.0519 153.57
7750.25 46.8651 169.238
7753.01 45.6043 166.993
7755.77 46.671 181.207
7758.53 44.861 165.844
7761.28 47.722 186.815
7764.04 45.0148 168.06
7766.8 46.4524 174.998
7769.56 43.2894 158.215
7772.32 50.7353 183.884
7775.07 47.5176 171.579
7777.83 44.7623 169.453
7780.59 46.9006 179.066
7783.34 44.7912 166.86
7786.1 45.6025 166.097
7788.86 50.1296 185.096
7791.61 46.2204 176.436
7794.37 49.7441 180.059
7797.12 41.5856 158.444
7799.88 46.5203 170.881
7802.63 44.0782 168.094
7805.39 45.489 172.261
7808.14 46.1911 166.608
7810.9 47.1615 173.395
7813.65 45.647 168.359
7816.41 47.6493 180.338
7819.16 47.5366 175.615
7821.91 46.0434 179.879
7824.67 48.5802 179.912
7827.42 45.9812 182.883
7830.17 38.9576 155.361
7832.93 47.1044 187.883
7835.68 47.6711 181.895
7838.43 45.3459 167.515
7841.18 45.9751 172.293
7843.94 46.3932 180.7
7846.69 43.4239 159.285
7849.44 49.4751 180.928
7852.19 46.3961 178.285
7854.94 46.3984 177.039
7857.69 43.5956 173.93
7860.44 48.875 185.023
7863.19 41.4075 169.482
7865.94 43.5138 171.924
7868.69 48.5468 186.511
7871.44 43.4993 175.266
7874.19 43.6414 167.427
7876.94 46.9257 184.115
7879.69 41.9948 172.752
7882.44 46.9559 194.345
7885.19 45.0705 179.349
7887.94 44.9595 178.428
7890.69 41.8366 163.956
7893.43 39.1108 160.131
7896.18 44.7283 173.131
7898.93 41.488 171.669
7901.68 40.0577 152.032
7904.42 45.29 178.412
7907.17 43.6575 178.672
7909.92 46.2226 172.051
7912.66 47.6221 185.943
7915.41 44.6376 179.461
7918.16 46.6085 187.23
7920.9 41.6979 177.624
7923.65 44.1392 178.124
7926.39 39.9224 171.138
7929.14 41.2792 162.795
7931.88 42.2804 170.568
7934.63 41.4725 169.33
7937.37 43.6721 181.559
7940.12 40.5517 167.073
7942.86 45.4347 181.676
7945.6 42.7857 162.616
7948.35 43.8681 176.347
7951.09 41.484 175.291
7953.84 43.9652 187.621
7956.58 44.3948 182.011
7959.32 46.0862 188.749
7962.06 43.1204 177.786
7964.81 43.8203 175.39
7967.55 51.954 202.843
7970.29 45.3383 192.929
7973.03 43.1905 178.249
7975.77 49.2528 195.353
7978.51 46.7863 193.736
7981.25 47.7258 192.197
7983.99 46.1523 184.754
7986.74 47.8535 195.951
7989.48 45.0803 182.78
7992.22 44.692 182.899
7994.96 47.9522 194.3
7997.69 47.5477 198.238
8000.43 47.7196 199.238
8003.17 42.3599 188.617
8005.91 47.2181 199.782
8008.65 46.9533 199.561
8011.39 48.8259 198.858
8014.13 28.0333 88.8512
8016.87 29.6528 100.611
8019.6 18.9934 66.883
8022.34 25.2799 76.1974
8025.08 48.0469 188.675
8027.81 45.4308 187.04
8030.55 47.9173 206.986
8033.29 47.3167 192.682
8036.02 45.2946 193.048
8038.76 49.7859 204.781
8041.5 43.215 185.626
8044.23 45.7161 190.652
8046.97 50.1303 201.983
8049.7 47.0232 196.42
8052.44 51.3491 212.858
8055.17 53.5614 217.202
8057.91 48.7364 195.027
8060.64 51.7341 213.915
8063.38 51.4096 212.796
8066.11 50.7105 218.306
8068.84 46.7449 201.214
8071.58 46.4653 194.408
8074.31 49.571 199.589
8077.04 50.8851 218.795
8079.78 46.9503 199.275
8082.51 48.5326 205.175
8085.24 42.3813 181.347
8087.97 47.2679 195.42
8090.7 45.3073 199.033
8093.44 47.5032 191.339
8096.17 35.4764 206.999
8098.9 30.6866 186.643
8101.63 33.0069 190.141
8104.36 32.335 200.053
8107.09 37.8942 218.454
8109.82 33.7972 197.246
8112.55 35.0998 204.038
8115.28 36.1043 207.781
8118.01 36.7634 205.721
8120.74 37.6579 210.62
8123.47 36.814 200.382
8126.2 35.6263 203.475
8128.92 35.0085 215.726
8131.65 35.8515 202.599
8134.38 35.591 200.035
8137.11 32.2727 185.457
8139.84 32.4868 198.594
8142.56 32.2308 188.964
8145.29 34.1496 194.568
8148.02 32.6757 196.939
8150.74 34.9585 192.746
8153.47 34.6439 191.828
8156.2 37.15 198.876
8158.92 31.1662 180.14
8161.65 32.4225 186.595
8164.37 34.2254 189.178
8167.1 33.3423 172.908
8169.82 34.6645 190.353
8172.55 36.504 192.285
8175.27 37.2795 206.89
8178 35.481 188.144
8180.72 32.9965 188.969
8183.45 35.3691 187.755
8186.17 36.5666 196.622
8188.89 36.7488 196.308
8191.62 33.5054 189.349
8194.34 34.7729 183.559
8197.06 37.0534 207.277
8199.78 35.2397 187.484
8202.51 35.9875 202.479
8205.23 39.0591 208.615
8207.95 38.5144 210.732
8210.67 33.5692 189.602
8213.39 36.3533 200.076
8216.11 37.5755 199.228
8218.83 32.3718 188.898
8221.55 35.0332 200.546
8224.27 34.3959 188.16
8226.99 31.5483 178.339
8229.71 33.4084 189.063
8232.43 35.4161 190.199
8235.15 37.0853 203.163
8237.87 34.9504 195.847
8240.59 36.2886 193.649
8243.31 33.3929 184.473
8246.03 34.4119 189.99
8248.75 37.2953 202.435
8251.46 37.738 207.294
8254.18 34.5982 191.38
8256.9 32.1896 178.075
8259.62 39.6581 206.929
8262.33 37.0106 196.619
8265.05 37.2321 201.875
8267.77 34.4667 194.68
8270.48 36.4703 197.634
8273.2 34.1867 186.704
8275.91 35.4684 197.568
8278.63 34.5368 185.467
8281.34 35.4102 196.487
8284.06 36.4925 175.069
8286.77 31.4029 174.7
8289.49 35.058 187.667
8292.2 33.773 197.896
8294.92 32.6824 181.177
8297.63 39.5691 182.492
8300.34 38.1249 195.912
8303.06 38.0932 199.399
8305.77 30.1792 181.403
8308.48 36.4726 193.716
8311.2 32.6144 179.597
8313.91 33.6553 193.635
8316.62 36.4004 194.664
8319.33 37.9105 202.026
8322.04 37.9821 202.64
8324.75 35.5858 197.096
8327.47 32.2596 178.452
8330.18 16.6501 90.9008
8332.89 17.3222 91.5991
8335.6 14.6884 85.7055
8338.31 38.7356 206.664
8341.02 44.4388 192.572
8343.73 35.073 182.675
8346.44 35.5438 184.586
8349.15 35.37 186.194
8351.85 31.9587 187.627
8354.56 36.24 197.758
8357.27 33.0849 178.303
8359.98 36.5835 185.209
8362.69 40.9225 214.789
8365.39 36.2178 203.033
8368.1 36.4431 189.163
8370.81 37.6342 203.303
8373.52 34.64 190.824
8376.22 35.3272 199.448
8378.93 38.0448 195.131
8381.64 33.5057 177.987
8384.34 39.9847 195.531
8387.05 36.0902 184.157
8389.75 12.1512 199.074
8392.46 10.1546 196.272
8395.16 12.8413 205.639
8397.87 13.3373 188.613
8400.57 10.2452 202.259
8403.28 10.936 178.556
8405.98 8.50924 91.1896
8408.68 6.96306 102.657
8411.39 13.3671 190.421
8414.09 10.1871 182.11
8416.79 12.5065 209.956
8419.5 8.62384 203.916
8422.2 13.8337 196.231
8424.9 12.2723 190.154
8427.6 8.4844 177.147
8430.3 14.7172 207.624
8433 11.776 176.168
8435.71 7.67633 174.519
8438.41 10.2192 197.999
8441.11 12.4349 191.452
8443.81 12.7332 194.063
8446.51 11.8685 202.011
8449.21 15.035 176.079
8451.91 14.6383 189.488
8454.61 13.0259 186.01
8457.31 8.95655 201.972
8460.01 13.2041 184.651
8462.7 17.6592 182.597
8465.4 16.1778 171.39
8468.1 16.2114 183.701
8470.8 11.0301 185.798
8473.5 12.5458 188.002
8476.19 12.2044 200.319
8478.89 13.8138 199.347
8481.59 14.4106 202.878
8484.28 17.0471 205.301
8486.98 16.4421 181.208
8489.68 16.0752 187.277
8492.37 16.7064 171.384
8495.07 14.617 173.557
8497.76 10.5578 168.384
8500.46 11.924 171.92
8503.15 13.842 175.148
8505.85 14.5906 180.574
8508.54 15.7228 179.146
8511.24 12.0594 184.995
8513.93 14.3704 178.667
8516.62 14.4567 195.159
8519.32 15.6495 174.765
8522.01 16.2355 184.832
8524.7 16.71 169.135
8527.4 13.5454 195.318
8530.09 14.1269 178.235
8532.78 14.4206 170.022
8535.47 13.966 153.02
8538.16 13.1104 134.862
8540.85 8.17082 136.955
8543.54 17.3464 150.471
8546.24 15.4722 166.393
8548.93 16.319 185.281
8551.62 14.7645 187.628
8554.31 15.8697 184.986
8557 15.5565 205.661
8559.69 16.2862 181.94
8562.37 17.0681 192.969
8565.06 14.9105 187.166
8567.75 17.7755 181.397
8570.44 18.2268 181.937
8573.13 19.0129 201.113
8575.82 20.3114 188.394
8578.5 16.3281 167.109
8581.19 17.7375 188.363
8583.88 20.0797 179.22
8586.57 21.0325 190.218
8589.25 19.2005 192.196
8591.94 17.981 185.276
8594.63 14.9949 172.365
8597.31 17.9525 195.019
8600 22.3263 181.379
8602.68 19.705 182.239
8605.37 17.7839 188.221
8608.05 18.0805 193.571
8610.74 15.774 173.47
8613.42 18.807 169.833
8616.1 16.7811 179.925
8618.79 18.492 184.16
8621.47 21.8474 182.668
8624.16 20.2847 188.954
8626.84 16.77 174.814
8629.52 18.2098 188.436
8632.2 19.9251 174.232
8634.89 20.0397 165.693
8637.57 20.3557 190.79
8640.25 0.876762 190.75
8642.93 1.00383 170.94
8645.61 5.14065 164.384
8648.29 4.20798 173.171
8650.97 -1.68974 192.951
8653.65 0.821404 174.829
8656.33 3.42375 163.816
8659.01 1.1212 125.908
8661.69 -1.46591 133.926
8664.37 0.406733 146.785
8667.05 2.62719 166.236
8669.73 3.03921 160.52
8672.41 2.56531 173.846
8675.09 0.782232 181.587
8677.76 0.636981 166.986
8680.44 1.8161 173.608
8683.12 1.76814 187.223
8685.8 1.98875 179.32
8688.47 2.03296 179.833
8691.15 1.04985 175.427
8693.83 1.22502 195.778
8696.5 1.00415 176.344
8699.18 4.30025 182.466
8701.85 -0.453965 174.067
8704.53 1.40424 175.347
8707.2 4.13919 184.576
8709.88 4.08441 189.384
8712.55 1.69381 176.788
8715.23 -0.36642 186.204
8717.9 1.0636 185.693
8720.58 4.21245 181.665
8723.25 3.09113 165.925
8725.92 4.46044 173.179
8728.6 3.7573 162.476
8731.27 1.92177 178.752
8733.94 2.01402 176.556
8736.61 3.826 159.319
8739.28 1.94659 176.644
8741.96 2.08366 172.904
8744.63 1.50652 190.153
8747.3 2.23085 175.622
8749.97 3.4252 165.421
8752.64 2.25989 166.27
8755.31 3.40815 164.278
8757.98 1.74831 162.273
8760.65 2.15367 171.487
8763.32 -1.01464 184.939
8765.99 8.57704 146.283
8768.66 -1.58739 168.617
8771.33 2.60321 166.159
8773.99 -0.0369926 154.248
8776.66 0.592043 182.046
8779.33 0.0848404 167.07
8782 0.44059 173.899
8784.66 -5.31283 156.901
8787.33 1.19041 161.369
8790 0.411552 162.049
8792.66 0.80675 163.509
8795.33 3.96944 149.64
8798 2.02432 164.514
8800.66 3.50636 184.36
8803.33 1.26023 152.998
8805.99 3.35404 141.027
8808.66 3.85404 145.481
8811.32 1.31916 165.963
8813.99 3.97811 161.338
8816.65 4.92475 161.987
8819.31 4.20162 179.331
8821.98 3.15166 163.189
8824.64 1.19788 157.768
8827.3 5.711 139.668
8829.97 1.0341 143.377
8832.63 -8.52801 162.228
8835.29 -2.04834 192.59
8837.95 6.6976 142.577
8840.61 7.68767 171.189
8843.28 1.30569 173.783
8845.94 4.02626 182.607
8848.6 2.10003 172.392
8851.26 0.0546826 174.518
8853.92 5.21529 156.063
8856.58 6.65384 178.059
8859.24 4.13595 161.954
8861.9 0.172344 172.518
8864.56 -3.24245 169.24
8867.21 3.70062 160.935
8869.87 -2.3699 170.499
8872.53 1.83818 173.926
8875.19 0.58183 170.757
8877.85 -1.33853 171.603
8880.5 0.733802 164.624
8883.16 0.443167 184.217
8885.82 2.20557 195.936
8888.47 2.39761 185.582
8891.13 -1.37199 205.007
8893.79 -2.38086 165.526
8896.44 0.629606 155.381
8899.1 2.19236 181.839
8901.75 1.99515 183.413
8904.41 -0.609922 192.922
8907.06 4.70973 172.864
8909.72 0.676131 146.752
8912.37 -4.61051 158.287
8915.03 0.738351 141.081
8917.68 7.24595 168.278
8920.33 3.65331 174.364
8922.98 2.34481 174.619
8925.64 -0.796483 128.273
8928.29 0.870686 69.0323
8930.94 0.0838902 102.742
8933.59 1.97021 133.666
8936.25 2.5174 166.38
8938.9 3.45968 156.168
8941.55 1.62162 165.695
8944.2 -0.567522 154.17
8946.85 2.08232 158.87
8949.5 0.767882 125.126
8952.15 0.258557 145.312
8954.8 -3.77894 132.168
8957.45 4.42052 165.905
8960.1 -0.587237 150.666
8962.75 7.66248 118.684
8965.39 -2.08992 119.306
8968.04 2.19585 85.3573
8970.69 0.926655 137.832
8973.34 -0.0286732 138.025
8975.99 -0.102306 141.76
8978.63 1.0336 143.756
8981.28 1.10227 143.741
8983.93 -0.789528 134.635
8986.57 1.18512 145.781
8989.22 0.887567 157.593
8991.86 1.54929 127.274
8994.51 1.06427 136.65
8997.15 -0.606856 133.541
8999.8 2.28419 143.191
9002.44 3.07017 195.046
9005.09 -4.81209 147.965
9007.73 2.09641 132.646
9010.38 0.0246274 125.323
9013.02 -0.207758 127.166
9015.66 -0.232947 144.041
9018.3 -1.87862 153.229
9020.95 -0.109004 156.396
9023.59 2.20803 159.256
9026.23 -0.586446 150.745
9028.87 -0.844963 166.907
9031.51 1.68229 165.641
9034.16 0.51445 166.676
9036.8 0.537814 171.133
9039.44 2.02802 162.483
9042.08 -1.32558 156.525
9044.72 1.96691 144.037
9047.36 1.85882 165.407
9050 1.18537 155.828
9052.64 1.95656 146.045
9055.27 -1.10196 140.668
9057.91 0.370161 122.986
9060.55 1.02895 122.056
9063.19 0.325349 145.377
9065.83 -0.426741 147.173
9068.46 -0.0793741 167.046
9071.1 -0.214526 188.299
