wavelength spectrum_sum 3smoothed_sum spectrum_optimal 3smoothed_optimal
3514.02 10.4008 18.6099 8.14219 8.10229
3516.94 45.4289 32.3601 16.1647 14.5041
3519.85 41.2504 42.9895 19.2056 20.5536
3522.76 42.2892 45.6568 26.2905 9.01914
3525.67 53.4308 55.2733 -18.4387 -6.31513
3528.59 70.0998 59.6595 -26.7972 -20.2708
3531.5 55.4479 60.6 -15.5766 -15.5261
3534.41 56.2522 56.2016 -4.20437 -24.6314
3537.32 56.9049 51.1829 -54.1133 -28.5715
3540.24 40.3918 50.0167 -27.3967 -28.5923
3543.15 52.7535 48.9672 -4.26674 -10.8966
3546.06 53.7564 61.3873 -1.02641 8.51224
3548.97 77.6519 58.1957 30.8299 11.9938
3551.89 43.1789 59.3046 6.17798 17.0936
3554.8 57.083 52.64 14.2729 15.8141
3557.71 57.6582 62.3113 26.9914 23.5457
3560.62 72.1928 61.2932 29.3728 16.3942
3563.54 54.0285 59.2883 -7.18173 17.2396
3566.45 51.6436 53.9515 29.5276 10.8887
3569.36 56.1824 46.9332 10.3203 30.1147
3572.28 32.9736 47.6851 50.4962 15.1028
3575.19 53.8992 41.2155 -15.508 21.2536
3578.1 36.7738 46.3587 28.7727 3.57813
3581.01 48.403 44.9352 -2.53032 17.3458
3583.93 49.6288 46.26 25.7951 18.8482
3586.84 40.7483 51.6922 33.2798 31.4051
3589.75 64.6994 53.8489 35.1405 22.8403
3592.66 56.0992 65.4527 0.100533 14.7557
3595.58 75.5596 64.078 9.02612 7.40844
3598.49 60.5751 70.1554 13.0987 13.7905
3601.4 74.3316 67.8315 19.2466 16.7516
3604.31 68.5879 70.4923 17.9096 5.8136
3607.23 68.5573 71.5522 -19.7154 -10.6041
3610.14 77.5114 69.9951 -30.0064 -7.42863
3613.05 63.9166 66.9882 27.4358 -0.442981
3615.96 59.5366 60.7676 1.24159 21.9932
3618.88 58.8495 67.407 37.302 21.1551
3621.79 83.8348 75.2723 24.9216 37.159
3624.7 83.1325 81.4961 49.2534 15.0284
3627.62 77.5211 85.0596 -29.0899 17.3766
3630.53 94.5252 85.2769 31.9664 15.6234
3633.44 83.7843 88.1315 43.9937 30.6321
3636.35 86.0849 87.6403 15.9362 32.6346
3639.27 93.0518 86.797 37.974 21.9366
3642.18 81.2544 83.5139 11.8996 21.7283
3645.09 76.2355 85.2088 15.3114 9.51097
3648 98.1364 88.9385 1.32194 19.4686
3650.92 92.4436 100.673 41.7726 25.1296
3653.83 111.44 101.485 32.2943 30.4064
3656.74 100.572 100.13 17.1522 28.9322
3659.65 88.3786 103.897 37.3502 11.4288
3662.57 122.74 105.206 -20.2162 6.54588
3665.48 104.5 117.538 2.5036 -7.4356
3668.39 125.374 113.074 -4.5942 6.11253
3671.3 109.347 118.109 20.4282 -0.563301
3674.22 119.605 110.931 -17.5239 11.2772
3677.13 103.84 109.748 30.9273 6.27608
3680.04 105.8 106.241 5.42484 10.0979
3682.95 109.082 103.86 -6.05837 2.78173
3685.87 96.6989 104.086 8.97871 5.49373
3688.78 106.476 114.138 13.5608 4.71889
3691.69 139.239 130.061 -8.38287 1.90459
3694.6 144.468 138.283 0.535797 9.45572
3697.52 131.143 134.443 36.2142 9.49948
3700.43 127.717 127.978 -8.25157 19.7662
3703.34 125.072 123.315 31.3359 -3.44954
3706.25 117.154 127.092 -33.433 5.50134
3709.17 139.05 127.123 18.6011 -3.18996
3712.08 125.165 129.25 5.262 9.40025
3714.99 123.534 120.854 4.3377 -0.916067
3717.9 113.863 118.548 -12.3479 -7.61869
3720.82 118.246 122.214 -14.8459 -3.64428
3723.73 134.534 128.508 16.2609 10.8516
3726.64 132.745 134.183 31.1397 28.379
3729.55 135.269 118.989 37.7363 45.5569
3732.47 88.9512 110.081 67.7948 32.4831
3735.38 106.022 100.086 -8.0816 40.3926
3738.29 105.284 115.732 61.4645 45.3104
3741.2 135.889 117.373 82.5483 62.3875
3744.11 110.945 118.162 43.1497 57.5248
3747.03 107.652 109.668 46.8765 36.2623
3749.94 110.407 116.904 18.7606 22.8182
3752.85 132.653 130.546 2.81756 15.9586
3755.76 148.58 133.173 26.2975 17.4313
3758.68 118.286 137.394 23.1789 22.0513
3761.59 145.318 136.059 16.6775 26.4355
3764.5 144.573 149.955 39.45 25.7902
3767.41 159.974 151.608 21.2432 33.0582
3770.33 150.277 157.788 38.4813 19.746
3773.24 163.112 166.445 -0.486567 24.1485
3776.15 185.947 179.809 34.4508 20.6271
3779.06 190.368 188.557 27.9171 32.7473
3781.97 189.355 188.568 35.8741 51.4841
3784.89 185.98 176.784 90.6613 60.384
3787.8 155.018 170.172 54.6167 34.6166
3790.71 169.517 162.484 -41.4281 22.2879
3793.62 162.916 164.976 53.675 17.7771
3796.54 162.494 168.014 41.0845 48.461
3799.45 178.632 173.258 50.6234 51.1119
3802.36 178.649 181.175 61.6279 42.7033
3805.27 186.243 177.882 15.8585 26.579
3808.18 168.754 175.84 2.25059 12.6524
3811.1 172.522 157.525 19.8482 8.21256
3814.01 131.299 153.914 2.53892 13.792
3816.92 157.923 150.477 18.9889 43.6147
3819.83 162.21 153.665 109.316 38.4431
3822.74 140.861 138.307 -12.9759 50.452
3825.66 111.851 121.857 55.0157 22.8977
3828.57 112.86 112.979 26.6533 46.061
3831.48 114.226 108.093 56.5142 44.0663
3834.39 97.1909 111.725 49.0314 43.3622
3837.3 123.759 121.032 24.541 36.5201
3840.22 142.145 145.449 35.9877 40.0784
3843.13 170.444 150.447 59.7064 29.1436
3846.04 138.751 162.989 -8.26329 29.8854
3848.95 179.771 153.271 38.2131 10.4012
3851.86 141.292 149.681 1.25382 13.8736
3854.78 127.982 141.704 2.15381 20.6576
3857.69 155.84 157.302 58.5653 47.508
3860.6 188.084 171.627 81.805 54.5418
3863.51 170.956 172.12 23.2551 41.9244
3866.42 157.321 156.794 20.7131 20.2556
3869.34 142.104 143.971 16.7986 22.1505
3872.25 132.488 156.606 28.9396 25.9817
3875.16 195.225 164.602 32.2068 24.8602
3878.07 166.093 173.34 13.4342 26.3031
3880.98 158.701 163.633 33.2683 48.304
3883.89 166.106 166.605 98.2095 46.4068
3886.81 175.009 191.713 7.7426 35.0647
3889.72 234.024 217.2 -0.758013 18.8844
3892.63 242.567 231.905 49.6686 20.6686
3895.54 219.124 228.66 13.0952 30.746
3898.45 224.29 227.537 29.474 35.2521
3901.36 239.196 239.139 63.187 54.7779
3904.28 253.93 239.708 71.6727 49.9736
3907.19 225.998 250.369 15.0611 43.0755
3910.1 271.18 249.677 42.4927 45.0041
3913.01 251.854 253.55 77.4585 71.0714
3915.92 237.616 248.375 93.263 84.2758
3918.83 255.656 240.83 82.106 77.3227
3921.75 229.218 232.99 56.5992 52.4924
3924.66 214.096 205.498 18.7719 43.6787
3927.57 173.179 180.093 55.665 33.3468
3930.48 153.005 148.686 25.6035 19.9253
3933.39 119.875 139.658 -21.4928 10.1707
3936.3 146.094 155.595 26.4014 7.38204
3939.21 200.816 190.662 17.2375 31.8024
3942.13 225.077 211.791 51.7682 43.1041
3945.04 209.482 220.261 60.3068 61.828
3947.95 226.224 234.307 73.4091 37.0481
3950.86 267.216 256.701 -22.5717 13.7978
3953.77 276.662 273.994 -9.44408 10.674
3956.68 278.103 272.92 64.0378 35.5498
3959.59 263.996 256.66 52.0555 57.3007
3962.5 227.88 231.564 55.8087 36.8721
3965.42 202.817 209.421 2.75207 31.9662
3968.33 197.565 197.637 37.3378 14.5565
3971.24 192.528 214.585 3.57977 19.3229
3974.15 253.662 231.838 17.0513 25.6625
3977.06 249.323 267.017 56.3565 30.6049
3979.97 298.067 293.379 18.407 24.5092
3982.88 332.745 331.363 -1.23571 26.7161
3985.79 363.276 362.867 62.9769 31.3669
3988.71 392.579 384.215 32.3595 70.5758
3991.62 396.79 392.115 116.391 77.2204
3994.53 386.976 391.866 82.9107 59.3838
3997.44 391.833 414.769 -21.15 8.53798
4000.35 465.5 418.901 -36.1467 -28.4509
4003.26 399.37 435.725 -28.0559 -5.43792
4006.17 442.306 429.769 47.8889 25.9011
4009.08 447.63 455.594 57.8704 55.1398
4011.99 476.846 458.98 59.66 61.0757
4014.9 452.465 469.37 65.6966 80.43
4017.81 478.799 466.145 115.933 81.434
4020.73 467.172 469.244 62.6719 49.4242
4023.64 461.761 454.153 -30.3327 21.7483
4026.55 433.525 454.535 32.9058 24.9002
4029.46 468.32 466 72.1274 61.4314
4032.37 496.155 477.536 79.261 88.1735
4035.28 468.134 485.449 113.132 94.7384
4038.19 492.057 470.269 91.8222 119.018
4041.1 450.615 467.363 152.099 101.037
4044.01 459.416 455.554 59.1906 92.0959
4046.92 456.631 458.19 64.9981 56.4441
4049.83 458.523 477.222 45.1437 71.1843
4052.74 516.511 479.602 103.411 73.9327
4055.65 463.772 469.006 73.2435 81.3163
4058.56 426.735 460.182 67.2943 72.1188
4061.48 490.038 453.716 75.8185 63.7089
4064.39 444.375 463.499 48.0138 51.6668
4067.3 456.085 467.06 31.1682 54.1385
4070.21 500.719 475.17 83.2337 55.6493
4073.12 468.707 489.043 52.546 72.5896
4076.03 497.703 481.494 81.9892 55.0947
4078.94 478.072 506.753 30.749 69.8847
4081.85 544.484 518.121 96.9159 32.6776
4084.76 531.805 543.076 -29.632 44.0468
4087.67 552.939 546.77 64.8565 38.6588
4090.58 555.565 562.888 80.7519 39.3182
4093.49 580.16 540.249 -27.6538 25.2511
4096.4 485.023 532.726 22.6552 12.4968
4099.31 532.995 507.135 42.4891 42.7368
4102.22 503.386 532.146 63.066 61.76
4105.13 560.055 527.933 79.7249 52.5225
4108.04 520.358 560.147 14.7767 64.2548
4110.95 600.029 558.022 98.2629 58.7979
4113.86 553.679 594.891 63.3541 91.3454
4116.77 630.964 590.448 112.419 79.9565
4119.68 586.699 601.485 64.0962 91.2715
4122.59 586.791 587.463 97.2992 66.232
4125.5 588.899 577.145 37.3007 61.5448
4128.41 555.744 576.451 50.0344 77.8098
4131.32 584.711 586.582 146.094 103.666
4134.23 619.292 613.166 114.869 106.657
4137.14 635.494 626.282 59.0066 45.7124
4140.05 624.061 593.795 -36.7387 18.4665
4142.96 521.831 587.446 33.1315 16.9339
4145.87 616.446 583.376 54.409 60.2305
4148.78 611.85 613.203 93.1509 65.915
4151.69 611.311 614.917 50.1851 67.8574
4154.6 621.59 618.989 60.2362 64.0907
4157.51 624.064 617.719 81.8508 70.0533
4160.42 607.502 613.793 68.0728 66.6361
4163.33 609.812 617.838 49.9847 83.3406
4166.24 636.2 621.741 131.964 111.506
4169.15 619.211 625.548 152.57 123.938
4172.06 621.233 635.518 87.2784 101.577
4174.96 666.109 638.358 64.8814 83.9913
4177.87 627.73 642.487 99.8143 60.2377
4180.78 633.622 629.372 16.0174 68.836
4183.69 626.765 641.011 90.6763 64.3833
4186.6 662.645 608.476 86.456 77.8611
4189.51 536.017 612.128 56.451 73.2344
4192.42 637.721 581.142 76.7961 64.192
4195.33 569.688 596.37 59.329 66.7393
4198.24 581.701 572.731 64.0928 78.0952
4201.15 566.805 590.089 110.864 76.5328
4204.06 621.763 600.598 54.6417 72.7183
4206.97 613.228 613.053 52.6494 29.2725
4209.88 604.168 617.267 -19.4736 39.6136
4212.79 634.406 618.511 85.665 80.484
4215.69 616.959 631.183 175.261 122.562
4218.6 642.183 619.339 106.76 135.006
4221.51 598.876 622.284 122.998 117.573
4224.42 625.792 622.498 122.962 88.2908
4227.33 642.825 621.755 18.9119 81.8415
4230.24 596.647 628.502 103.651 81.8733
4233.15 646.035 618.26 123.057 108.94
4236.06 612.097 637.386 100.111 105.547
4238.97 654.025 645.21 93.4733 89.1174
4241.87 669.509 637.769 73.7679 60.5913
4244.78 589.774 629.752 14.5328 38.6736
4247.69 629.972 613.971 27.7199 36.4813
4250.6 622.167 630.703 67.1912 56.1702
4253.51 639.97 637.724 73.5996 71.9769
4256.42 651.034 648.699 75.1399 103.808
4259.33 655.093 658.431 162.683 105.221
4262.23 669.168 651.819 77.8409 96.8833
4265.14 631.196 623.881 50.1261 37.0387
4268.05 571.28 602.325 -16.8508 46.03
4270.96 604.5 595.262 104.815 26.3583
4273.87 610.007 612.865 -8.88888 66.701
4276.78 624.088 624.052 104.177 55.9986
4279.68 638.06 633.63 72.7075 64.4852
4282.59 638.742 637.803 16.5709 52.1337
4285.5 636.606 621.249 67.1228 64.0303
4288.41 588.399 607.229 108.397 99.4881
4291.32 596.682 596.306 122.944 95.3904
4294.23 603.839 576.539 54.8299 87.7474
4297.13 529.097 551.953 85.4681 31.9948
4300.04 522.923 529.45 -44.3136 13.2421
4302.95 536.331 503.758 -1.42814 -44.0655
4305.86 452.019 499.092 -86.4549 -1.03526
4308.77 508.924 502.298 84.7773 16.8143
4311.67 545.95 565.011 52.1205 82.7388
4314.58 640.159 631.289 111.319 59.7194
4317.49 707.758 659.844 15.7189 70.8222
4320.4 631.615 662.055 85.4289 45.3898
4323.3 646.793 655.564 35.0217 67.8943
4326.21 688.285 687.668 83.2323 69.0535
4329.12 727.925 729.712 88.9065 106.507
4332.03 772.926 742.822 147.383 98.9604
4334.94 727.616 739.094 60.5919 83.3543
4337.84 716.74 723.375 42.0881 74.8781
4340.75 725.769 743.692 121.954 76.8351
4343.66 788.567 767.788 66.4628 113.437
4346.57 789.028 774.775 151.895 93.2801
4349.47 746.73 771.409 61.4827 107.603
4352.38 778.468 774.895 109.431 88.3051
4355.29 799.488 793.516 94.0013 113.078
4358.2 802.592 814.676 135.801 80.9509
4361.1 841.947 813.128 13.0509 82.6548
4364.01 794.845 823.21 99.113 85.0379
4366.92 832.838 810.543 142.95 120.31
4369.82 803.946 803.642 118.866 101.304
4372.73 774.142 780.916 42.0971 100.234
4375.64 764.658 784.16 139.74 107.419
4378.55 813.681 760.229 140.421 112.835
4381.45 702.348 774.188 58.3433 101.845
4384.36 806.534 742.802 106.771 73.8991
4387.27 719.526 774.68 56.5827 83.2141
4390.17 797.979 764.561 86.2883 49.5793
4393.08 776.179 799.035 5.8667 69.4913
4395.99 822.948 795.775 116.319 88.4713
4398.89 788.197 802.102 143.228 112.686
4401.8 795.162 780.967 78.5097 95.6773
4404.71 759.542 784.722 65.2938 80.6081
4407.61 799.463 809.316 98.021 89.7312
4410.52 868.944 828.891 105.879 59.9105
4413.43 818.266 843.854 -24.1685 65.8639
4416.33 844.351 842.043 115.881 60.4125
4419.24 863.514 867.918 89.5249 125.536
4422.15 895.89 882.921 171.2 102.419
4425.05 889.359 887.116 46.5321 122.798
4427.96 876.099 879.284 150.661 112.357
4430.86 872.395 878.739 139.877 149.128
4433.77 887.723 909.252 156.847 153.344
4436.68 967.639 932.244 163.308 158.709
4439.58 941.368 924.434 155.971 125.47
4442.49 864.294 913.322 57.1303 120.674
4445.4 934.303 905.226 148.92 102.326
4448.3 917.08 914.887 100.929 132.972
4451.21 893.277 916.475 149.068 135.137
4454.11 939.069 886.697 155.416 139.194
4457.02 827.744 877.405 113.099 146.514
4459.93 865.401 872.834 171.028 125.63
4462.83 925.356 898.114 92.7633 155.546
4465.74 903.584 918.96 202.845 164.162
4468.64 927.939 925.963 196.877 183.309
4471.55 946.366 955.681 150.205 148.017
4474.45 992.739 988.53 96.9694 130.186
4477.36 1026.48 1014.35 143.383 112.344
4480.27 1023.84 1030.57 96.6794 159.453
4483.17 1041.38 1027.03 238.296 137.722
4486.08 1015.86 1002.84 78.1917 147.956
4488.98 951.274 990.156 127.382 96.9204
4491.89 1003.33 996.382 85.1876 107.434
4494.79 1034.54 1040.06 109.732 103.351
4497.7 1082.31 1064.82 115.132 127.788
4500.6 1077.62 1092.46 158.499 148.07
4503.51 1117.45 1091.31 170.578 176.593
4506.41 1078.88 1092.79 200.701 163.125
4509.32 1082.05 1083.57 118.097 138.102
4512.22 1089.78 1067.35 95.5086 131.067
4515.13 1030.21 1069.54 179.596 138.379
4518.03 1088.64 1065.22 140.033 153.563
4520.94 1076.8 1057.67 141.058 133.31
4523.84 1007.57 1038.48 118.838 100.587
4526.75 1031.05 1025.62 41.8645 82.5132
4529.65 1038.24 1048.11 86.8368 71.3878
4532.56 1075.04 1052.26 85.462 95.8423
4535.46 1043.51 1048.48 115.228 122.175
4538.37 1026.89 1032.85 165.834 115.644
4541.27 1028.13 1039.16 65.8692 158.169
4544.18 1062.44 1052.84 242.804 141.506
4547.08 1067.95 1051.17 115.843 166.713
4549.99 1023.13 1069.36 141.491 161.607
4552.89 1116.99 1088.28 227.487 162.991
4555.79 1124.73 1123.94 119.995 157.921
4558.7 1130.1 1115.77 126.279 112.834
4561.6 1092.48 1112.28 92.227 120.13
4564.51 1114.24 1090.08 141.885 120.654
4567.41 1063.52 1101.5 127.849 118.983
4570.32 1126.74 1107.11 87.2158 106.865
4573.22 1131.06 1122 105.531 109.172
4576.12 1108.21 1137.37 134.77 124.938
4579.03 1172.84 1154.61 134.513 153.653
4581.93 1182.77 1174.85 191.676 197.514
4584.83 1168.95 1176.14 266.353 193.798
4587.74 1176.71 1151.01 123.365 195.026
4590.64 1107.39 1131.58 195.361 169.004
4593.55 1110.64 1107.12 188.286 160.848
4596.45 1103.32 1128.74 98.8981 123.426
4599.35 1172.26 1150.03 83.0931 119.574
4602.26 1174.49 1175.72 176.732 133.897
4605.16 1180.4 1182.61 141.866 124.427
4608.06 1192.94 1196.67 54.6837 70.3868
4610.97 1216.68 1204.95 14.6107 80.5352
4613.87 1205.22 1211.9 172.311 85.2085
4616.77 1213.79 1225.24 68.7037 101.397
4619.68 1256.69 1216.3 63.1765 65.4731
4622.58 1178.41 1230 64.539 81.6006
4625.48 1254.88 1209.63 117.086 87.9625
4628.39 1195.59 1229.48 82.2622 108.68
4631.29 1237.96 1194.86 126.691 122.989
4634.19 1151.04 1214.86 160.013 139.586
4637.1 1255.57 1185.45 132.053 154.216
4640 1149.74 1209.53 170.583 159.384
4642.9 1223.28 1210.91 175.515 159.862
4645.8 1259.71 1231.77 133.486 168.878
4648.71 1212.31 1235.24 197.633 140.82
4651.61 1233.71 1228.01 91.3392 157.945
4654.51 1238.02 1221.16 184.863 115.139
4657.42 1191.76 1244.08 69.2137 136.405
4660.32 1302.45 1218.89 155.137 142.508
4663.22 1162.46 1218.9 203.172 135.931
4666.12 1191.8 1179.42 49.4826 135.118
4669.02 1184 1198.26 152.698 109.429
4671.93 1218.97 1209.12 126.106 108.501
4674.83 1224.37 1225.77 46.6981 129.336
4677.73 1233.96 1229.98 215.205 97.2455
4680.63 1231.62 1209.84 29.8336 118.211
4683.54 1163.93 1203.33 109.594 87.7984
4686.44 1214.44 1225.06 123.967 128.189
4689.34 1296.8 1246.46 151.005 150.506
4692.24 1228.12 1253.6 176.546 141.393
4695.14 1235.87 1217.67 96.6266 114.989
4698.05 1189.01 1199.36 71.7931 84.9572
4700.95 1173.21 1173.38 86.4519 83.4057
4703.85 1157.92 1163.86 91.9721 93.5356
4706.75 1160.45 1173.78 102.183 96.4363
4709.65 1202.98 1208.09 95.1541 97.7472
4712.55 1260.84 1235.74 95.9048 118.756
4715.46 1243.42 1264.13 165.209 139.596
4718.36 1288.13 1259.4 157.673 142.115
4721.26 1246.65 1274.84 103.462 108.812
4724.16 1289.74 1264.69 65.3012 93.0285
4727.06 1257.69 1266.47 110.323 82.1506
4729.96 1251.99 1258.75 70.828 84.3644
4732.86 1266.57 1271.5 71.9427 66.8663
4735.76 1295.95 1278.51 57.8282 74.4577
4738.67 1273 1292.54 93.6023 90.384
4741.57 1308.67 1288.98 119.722 115.983
4744.47 1285.27 1311.87 134.626 92.4142
4747.37 1341.67 1319.96 22.8953 88.0029
4750.27 1332.94 1325.88 106.488 59.2146
4753.17 1303.04 1317.05 48.2607 74.582
4756.07 1315.17 1302.91 68.9976 48.6471
4758.97 1290.51 1287.26 28.6831 50.9225
4761.87 1256.11 1276.98 55.0867 81.1435
4764.77 1284.32 1307.75 159.661 73.1336
4767.67 1382.82 1322.69 4.6536 90.2113
4770.57 1300.92 1343.99 106.32 47.72
4773.47 1348.22 1314.78 32.1868 70.4913
4776.37 1295.2 1350.5 72.9673 69.3239
4779.27 1408.08 1351.35 102.818 67.1683
4782.17 1350.78 1355.08 25.72 76.5117
4785.07 1306.36 1305.36 100.997 49.3843
4787.97 1258.92 1283.74 21.4357 62.0763
4790.87 1285.94 1301.2 63.7958 47.7556
4793.77 1358.76 1343.17 58.0354 97.5148
4796.67 1384.81 1377.32 170.713 148.199
4799.57 1388.4 1379.32 215.847 166.841
4802.47 1364.76 1380.91 113.963 113.301
4805.37 1389.58 1373.25 10.093 56.3396
4808.27 1365.39 1398.92 44.9623 72.8195
4811.17 1441.77 1387.62 163.403 101.768
4814.07 1355.68 1381.39 96.9382 116.846
4816.97 1346.72 1355.58 90.1956 95.115
4819.87 1364.34 1342.4 98.2112 70.2449
4822.77 1316.14 1357.4 22.3279 77.7958
4825.67 1391.71 1362.17 112.848 88.289
4828.57 1378.65 1377.41 129.691 106.34
4831.47 1361.89 1385.34 76.4818 105.349
4834.37 1415.49 1389.61 109.875 98.096
4837.27 1391.44 1383.64 107.931 87.4388
4840.16 1343.98 1369.27 44.5101 77.1079
4843.06 1372.4 1381.87 78.8822 72.5399
4845.96 1429.22 1387.19 94.2274 89.7328
4848.86 1359.95 1368.85 96.0888 100.063
4851.76 1317.38 1292.77 109.872 102.352
4854.66 1200.97 1248.05 101.094 82.6523
4857.56 1225.79 1197.23 36.9908 99.3153
4860.46 1164.92 1184.34 159.861 83.3424
4863.35 1162.31 1186.73 53.1756 63.923
4866.25 1232.96 1215.64 -21.2675 31.048
4869.15 1251.66 1239.73 61.236 55.2265
4872.05 1234.56 1233.76 125.711 86.26
4874.95 1215.07 1224.61 71.833 63.0834
4877.85 1224.2 1239.04 -8.29384 70.1869
4880.74 1277.84 1277.24 147.022 80.9013
4883.64 1329.67 1313.61 103.976 93.5101
4886.54 1333.33 1318.94 29.5323 66.8836
4889.44 1293.81 1325.34 67.1423 59.3471
4892.34 1348.89 1311.86 81.3667 60.9123
4895.23 1292.89 1325.81 34.2278 84.1251
4898.13 1335.64 1351.13 136.781 130.929
4901.03 1424.86 1369.04 221.78 178.613
4903.93 1346.63 1371.4 177.277 190.007
4906.82 1342.72 1337.69 170.964 148.719
4909.72 1323.71 1331.48 97.9152 130.715
4912.62 1328.01 1315.68 123.264 117.599
4915.52 1295.31 1306.74 131.618 131.936
4918.41 1296.89 1327.1 140.924 138.36
4921.31 1389.1 1356.26 142.537 144.441
4924.21 1382.78 1403.3 149.863 108.323
4927.1 1438.01 1401.83 32.5703 157.855
4930 1384.69 1404.6 291.132 137.285
4932.9 1391.08 1377.31 88.1528 175.044
4935.79 1356.14 1382.79 145.847 121.72
4938.69 1401.14 1380.99 131.159 156.843
4941.59 1385.7 1410.75 193.522 185.747
4944.48 1445.42 1422.42 232.561 177.437
4947.38 1436.15 1454.26 106.228 167.309
4950.28 1481.21 1422.12 163.138 109.861
4953.17 1348.99 1421.12 60.2173 142.356
4956.07 1433.17 1398.29 203.712 124.23
4958.97 1412.71 1418.83 108.761 163.171
4961.86 1410.6 1423.37 177.042 162.135
4964.76 1446.79 1469.65 200.603 171.69
4967.66 1551.56 1473.4 137.425 126.445
4970.55 1421.85 1474.39 41.3075 93.5679
4973.45 1449.76 1439.28 101.971 122.386
4976.34 1446.24 1435.75 223.879 156.527
4979.24 1411.26 1429.5 143.732 154.194
4982.13 1431.02 1418.67 94.9726 80.7806
4985.03 1413.73 1428.14 3.63724 102.921
4987.93 1439.66 1412.26 210.153 105.618
4990.82 1383.39 1423.93 103.063 182.804
4993.72 1448.74 1446.19 235.196 172.408
4996.61 1506.44 1462.31 178.966 166.568
4999.51 1431.74 1461.39 85.5413 129.086
5002.4 1445.97 1427.34 122.749 94.3164
5005.3 1404.31 1419.77 74.6585 112.273
5008.19 1409.04 1404.15 139.41 95.7786
5011.09 1399.09 1406.81 73.2676 104.216
5013.98 1412.31 1406 99.97 93.7895
5016.88 1406.59 1405.05 108.131 98.0342
5019.77 1396.27 1409.21 86.0015 129.466
5022.67 1424.78 1424.01 194.265 70.1315
5025.56 1450.97 1441.59 -69.8724 74.6357
5028.46 1449.01 1447.94 99.5141 25.9649
5031.35 1443.84 1452.82 48.253 89.3533
5034.25 1465.62 1429.53 120.293 81.875
5037.14 1379.13 1422.18 77.0794 89.451
5040.04 1421.8 1438.94 70.981 77.6962
5042.93 1515.87 1448.88 85.0281 48.3286
5045.82 1408.95 1450.49 -11.0233 5.81772
5048.72 1426.65 1440.07 -56.5516 19.5727
5051.61 1484.6 1477.68 126.293 55.993
5054.51 1521.79 1514.16 98.2377 109.728
5057.4 1536.08 1531.17 104.653 84.5816
5060.29 1535.62 1517.32 50.8542 42.5905
5063.19 1480.26 1523.29 -27.7356 60.5678
5066.08 1554 1523.56 158.585 40.3184
5068.97 1536.44 1528.85 -9.89388 94.6654
5071.87 1496.11 1504.02 135.305 85.7246
5074.76 1479.5 1486.23 131.762 124.308
5077.65 1483.07 1476.46 105.857 130.843
5080.55 1466.8 1511.27 154.91 103.969
5083.44 1583.94 1514.41 51.14 136.816
5086.33 1492.49 1541.6 204.399 127.777
5089.23 1548.36 1530.23 127.793 162.06
5092.12 1549.83 1527.39 153.989 110.533
5095.01 1483.99 1534.54 49.8171 99.5141
5097.91 1569.79 1526.76 94.7366 68.0491
5100.8 1526.51 1534.7 59.5936 68.0541
5103.69 1507.79 1522.58 49.832 40.9304
5106.58 1533.44 1537.06 13.3656 56.9966
5109.48 1569.93 1554.68 107.792 78.2043
5112.37 1560.68 1561.34 113.455 94.6328
5115.26 1553.4 1533.03 62.6511 91.9047
5118.15 1485.01 1521.69 99.6082 135.988
5121.05 1526.67 1500.23 245.706 151.353
5123.94 1489.02 1504.94 108.744 179.353
5126.83 1499.12 1520.32 183.609 134.897
5129.72 1572.82 1564.29 112.337 144.052
5132.62 1620.94 1567.59 136.212 103.817
5135.51 1508.99 1551.56 62.9008 85.3648
5138.4 1524.76 1522.03 56.9817 73.697
5141.29 1532.35 1521.67 101.208 65.5152
5144.18 1507.92 1505.53 38.3554 53.9118
5147.07 1476.32 1491.69 22.1715 46.6121
5149.97 1490.84 1494.68 79.3095 122.077
5152.86 1516.87 1485.28 264.751 183.151
5155.75 1448.13 1488.21 205.392 142.57
5158.64 1499.63 1464.66 -42.4333 67.0303
5161.53 1446.22 1454.39 38.1319 19.3082
5164.42 1417.32 1376.66 62.2259 80.9263
5167.31 1266.43 1333.27 142.421 97.9765
5170.2 1316.07 1311.16 89.2826 126.368
5173.09 1350.99 1366.43 147.399 96.6194
5175.99 1432.23 1394.05 53.1762 115.224
5178.88 1398.91 1384.68 145.096 90.8834
5181.77 1322.88 1380.19 74.3781 98.2935
5184.66 1418.79 1407.06 75.4065 60.0585
5187.55 1479.51 1438.45 30.391 27.3129
5190.44 1417.05 1480.05 -23.8588 37.7253
5193.33 1543.59 1480.26 106.644 61.2586
5196.22 1480.13 1533.55 100.991 56.7995
5199.11 1576.93 1522.23 -37.2362 68.1336
5202 1509.63 1529.43 140.646 52.2316
5204.89 1501.72 1517.86 53.2848 112.427
5207.78 1542.22 1557.82 143.35 109.506
5210.67 1629.53 1599.62 131.884 118.46
5213.56 1627.1 1617.39 80.1461 92.2828
5216.45 1595.55 1620.79 64.8189 90.4349
5219.34 1639.72 1586.51 126.34 101.838
5222.23 1524.26 1555.69 114.356 78.3697
5225.12 1503.09 1527.12 -5.58641 41.5955
5228.01 1554 1538.14 16.0168 45.8058
5230.9 1557.31 1548.26 126.987 50.1894
5233.78 1533.46 1561.75 7.5643 44.5082
5236.67 1594.48 1613.58 -1.0269 26.2611
5239.56 1712.8 1638.7 72.2458 72.4108
5242.45 1608.81 1638.69 146.014 103.17
5245.34 1594.46 1602.61 91.2498 138.598
5248.23 1604.56 1581.28 178.531 76.2607
5251.12 1544.83 1583 -40.9987 96.2999
5254.01 1599.61 1594.48 151.367 49.3299
5256.9 1638.99 1607.84 37.6209 103.527
5259.78 1584.92 1573.87 121.591 77.6276
5262.67 1497.7 1511.56 73.6707 84.9794
5265.56 1452.06 1473.85 59.6764 107.939
5268.45 1471.79 1469.77 190.471 136.288
5271.34 1485.45 1507.19 158.718 121.518
5274.22 1564.34 1551.76 15.3662 110.865
5277.11 1605.5 1584.73 158.51 99.8651
5280 1584.36 1571.58 125.719 96.4293
5282.89 1524.88 1575.37 5.05887 73.455
5285.78 1616.87 1600.23 89.5875 53.8457
5288.66 1658.95 1648.1 66.8909 67.8443
5291.55 1668.49 1639.52 47.0545 51.2923
5294.44 1591.12 1637.91 39.9315 37.9444
5297.33 1654.13 1639.71 26.8471 47.107
5300.21 1673.89 1653.63 74.5422 71.6141
5303.1 1632.87 1670.13 113.453 93.7702
5305.99 1703.63 1691.11 93.3155 81.9886
5308.87 1736.82 1725.45 39.1974 51.0774
5311.76 1735.9 1729.79 20.7194 56.2814
5314.65 1716.66 1704.81 108.927 79.646
5317.54 1661.87 1663.9 109.291 71.3189
5320.42 1613.18 1633.44 -4.262 48.7358
5323.31 1625.28 1625.6 41.1782 77.3934
5326.2 1638.34 1632.16 195.264 79.3523
5329.08 1632.86 1631.1 1.61476 96.6563
5331.97 1622.1 1624.48 93.0901 -0.608415
5334.85 1618.46 1615.79 -96.5301 9.08229
5337.74 1606.82 1642.53 30.6869 0.877583
5340.63 1702.32 1642.21 68.476 32.7758
5343.51 1617.49 1664.89 -0.835539 35.0343
5346.4 1674.86 1639.28 37.4626 9.85401
5349.28 1625.5 1662.13 -7.06499 16.3262
5352.17 1686.04 1670.09 18.5811 21.3252
5355.06 1698.74 1720.93 52.4597 12.3989
5357.94 1778.01 1727.95 -33.844 23.557
5360.83 1707.08 1705.62 52.0554 39.5363
5363.71 1631.78 1659.87 100.398 64.2657
5366.6 1640.73 1633.36 40.3442 29.6032
5369.48 1627.57 1654.4 -51.9321 31.282
5372.37 1694.9 1662.5 105.434 18.1607
5375.25 1665.02 1679.21 0.980261 18.4954
5378.14 1677.7 1678.63 -50.928 -41.1947
5381.02 1693.17 1719.69 -73.6363 -32.6487
5383.91 1788.2 1715.87 26.6182 -23.2915
5386.79 1666.24 1720.75 -22.8564 -18.6583
5389.68 1707.8 1682.1 -59.7366 -0.127284
5392.56 1672.25 1651.31 82.2112 7.17225
5395.45 1573.88 1639.86 -0.957834 33.0529
5398.33 1673.46 1624.65 17.9052 0.687354
5401.21 1626.61 1633.25 -14.8853 -19.4797
5404.1 1599.69 1607.45 -61.4589 -58.8412
5406.98 1596.06 1610.91 -100.179 -61.7205
5409.87 1637 1644.01 -23.5233 -60.7211
5412.75 1698.96 1692.41 -58.4607 11.742
5415.63 1741.27 1710.44 117.21 25.9037
5418.52 1691.08 1725.26 18.9618 47.9617
5421.4 1743.44 1716.14 7.71333 43.2042
5424.28 1713.9 1731.72 102.937 44.8188
5427.17 1737.83 1713.56 23.8057 1.20933
5430.05 1688.97 1675.49 -123.115 -27.6789
5432.93 1599.67 1667.96 16.2729 -12.3441
5435.82 1715.25 1703.73 69.81 -38.129
5438.7 1796.29 1742.18 -200.47 -55.801
5441.58 1714.99 1715.34 -36.7432 -96.6572
5444.47 1634.75 1722.89 -52.7584 -64.25
5447.35 1818.92 1730.12 -103.248 -51.1861
5450.23 1736.7 1760.39 2.44837 -66.3264
5453.11 1725.55 1720.9 -98.1791 -35.4138
5456 1700.45 1710.12 -10.5106 -79.1249
5458.88 1704.35 1704.24 -128.685 -93.2181
5461.76 1707.91 1715.28 -140.459 -85.7204
5464.64 1733.59 1744.26 11.9822 -100.724
5467.53 1791.28 1746.33 -173.695 -48.313
5470.41 1714.12 1755.04 16.7738 -35.4883
5473.29 1759.71 1697.21 50.4562 23.0145
5476.17 1617.81 1692.34 1.81338 1.33005
5479.05 1699.52 1679.87 -48.2794 -30.4325
5481.94 1722.29 1732.6 -44.8315 -45.0175
5484.82 1775.98 1736.19 -41.9416 -75.7924
5487.7 1710.29 1757.11 -140.604 -58.9128
5490.58 1785.05 1749.3 5.80712 -76.5031
5493.46 1752.54 1773.81 -94.7125 -71.4509
5496.34 1783.84 1754.95 -125.447 -122.214
5499.22 1728.45 1723.88 -146.481 -141.847
5502.1 1659.33 1692.91 -153.613 -154.261
5504.99 1690.94 1695.3 -162.689 -142.079
5507.87 1735.61 1741.82 -109.935 -99.8708
5510.75 1798.91 1756.26 -26.9886 -22.7796
5513.63 1734.26 1788.88 68.5847 -35.8928
5516.51 1833.46 1775.98 -149.275 -53.95
5519.39 1760.24 1797.15 -81.1601 -63.298
5522.27 1797.74 1754.35 40.5408 0.89343
5525.15 1705.07 1726.42 43.2996 -12.306
5528.03 1676.44 1729.29 -120.759 -60.6579
5530.91 1806.35 1742.42 -104.515 -60.0809
5533.79 1744.47 1754.66 45.0306 -37.6962
5536.67 1713.16 1754.42 -53.6044 -27.3298
5539.55 1805.62 1769.25 -73.4157 -37.9239
5542.43 1788.98 1803.81 13.2484 -34.789
5545.31 1816.85 1803.95 -44.1997 -21.491
5548.19 1806.02 1777.7 -33.5218 -41.816
5551.07 1710.22 1765.1 -47.7267 -54.9877
5553.95 1779.07 1744.61 -83.7146 -79.0285
5556.83 1744.55 1740.66 -105.644 -60.3092
5559.7 1698.35 1686.97 8.43122 -31.8346
5562.58 1618.01 1657.31 1.70918 -14.0643
5565.46 1655.56 1644.29 -52.3332 -33.9828
5568.34 1659.29 1646.45 -51.3242 -61.393
5571.22 1624.48 1648.93 -80.5216 -92.3297
5574.1 1663.01 1566.83 -145.143 -184.267
5576.98 1412.99 1537.25 -327.135 -251.88
5579.86 1535.76 1548.62 -283.361 -207.527
5582.73 1697.13 1591.53 -12.0846 -134.873
5585.61 1541.72 1597.12 -109.174 -96.7642
5588.49 1552.52 1537.21 -169.033 -135.211
5591.37 1517.4 1550.31 -127.424 -94.7147
5594.25 1581.01 1557.95 12.3133 -27.6234
5597.12 1575.46 1617.25 32.2404 38.5012
5600 1695.3 1637.14 70.9499 -3.22739
5602.88 1640.66 1688.46 -112.872 -0.184477
5605.76 1729.42 1675.37 41.3692 -22.9851
5608.63 1656.04 1686.71 2.54793 -12.0003
5611.51 1674.67 1654.35 -79.9181 -61.062
5614.39 1632.33 1658.47 -105.816 -49.3059
5617.27 1668.41 1686.87 37.8161 -23.2917
5620.14 1759.89 1688.07 -1.87536 6.3252
5623.02 1635.9 1701.14 -16.9651 -12.7507
5625.9 1707.64 1700.85 -19.4115 -10.2856
5628.77 1759.02 1720.83 5.51982 -2.61021
5631.65 1695.82 1679.65 6.06109 -1.68756
5634.53 1584.09 1642.46 -16.6436 1.10258
5637.4 1647.47 1617.61 13.8902 7.98139
5640.28 1621.25 1663.86 26.6975 37.6039
5643.15 1722.86 1688.25 72.2238 11.1211
5646.03 1720.65 1723.74 -65.5582 -5.06154
5648.91 1727.71 1708.22 -21.8503 -45.9389
5651.78 1676.29 1686.4 -50.4084 -46.1411
5654.66 1655.21 1647.16 -66.1646 -49.3374
5657.53 1609.98 1642.6 -31.4391 -46.7513
5660.41 1662.61 1626.74 -42.6503 -17.2737
5663.29 1607.63 1640.18 22.2684 -27.4871
5666.16 1650.29 1682.8 -62.0794 44.3019
5669.04 1790.47 1704.22 172.717 29.0834
5671.91 1671.91 1689.54 -23.387 37.2875
5674.79 1606.25 1664.04 -37.4674 1.13411
5677.66 1713.96 1657.89 64.2567 17.6734
5680.54 1653.46 1678.94 26.2308 67.7141
5683.41 1669.41 1660.64 112.655 58.9539
5686.29 1659.05 1679.43 37.9759 31.1648
5689.16 1709.84 1672.75 -57.1362 16.6009
5692.03 1649.36 1684.58 68.9629 20.4669
5694.91 1694.53 1661.87 49.5742 34.6028
5697.78 1641.72 1675.9 -14.7286 35.9339
5700.66 1691.46 1656.46 72.9561 0.845337
5703.53 1636.21 1648.27 -55.6915 31.9248
5706.4 1617.14 1644.9 78.5098 34.6585
5709.28 1681.35 1640.52 81.1572 36.123
5712.15 1623.09 1654.54 -51.298 44.8956
5715.03 1659.18 1681.63 104.827 25.3579
5717.9 1762.62 1697.31 22.5442 50.9216
5720.77 1670.12 1699.39 25.3931 30.3
5723.65 1665.42 1682.9 42.9625 35.2676
5726.52 1713.15 1695.39 37.447 52.9526
5729.39 1707.59 1713.56 78.4481 18.6802
5732.27 1719.94 1735.77 -59.8546 42.7758
5735.14 1779.79 1737.91 109.734 19.4766
5738.01 1713.99 1744.14 8.55034 155.284
5740.88 1738.63 1713.82 347.568 157.595
5743.76 1688.84 1708.39 116.666 207.513
5746.63 1697.7 1668.24 158.306 110.514
5749.5 1618.18 1682.54 56.5687 65.1884
5752.37 1731.74 1663.01 -19.3095 52.9842
5755.24 1639.11 1686.3 121.693 47.2965
5758.12 1688.05 1664.05 39.5056 120.332
5760.99 1664.99 1686.8 199.798 118.645
5763.86 1707.35 1721.72 116.631 104.472
5766.73 1792.83 1716.17 -3.01162 35.7228
5769.6 1648.34 1708.1 -6.45057 18.4
5772.48 1683.14 1674.99 64.6621 55.1799
5775.35 1693.5 1671.22 107.328 110.75
5778.22 1637.03 1627.19 160.26 105.577
5781.09 1551.05 1594.78 49.1429 68.3639
5783.96 1596.27 1610.05 -4.31061 38.5705
5786.83 1682.84 1647.58 70.8791 20.2037
5789.7 1663.62 1687.27 -5.9573 34.25
5792.57 1715.36 1667.58 37.8281 -11.197
5795.44 1623.75 1665.78 -65.4619 -7.96552
5798.31 1658.23 1662.86 3.7372 -52.7445
5801.18 1706.59 1702.08 -96.5088 39.4085
5804.05 1741.42 1683.01 210.997 34.713
5806.92 1601.02 1692.54 -10.3492 107.193
5809.79 1735.19 1677.94 120.933 58.5515
5812.66 1697.59 1748.97 65.0713 125.968
5815.53 1814.11 1735.94 191.902 112.568
5818.4 1696.11 1757.18 80.7301 105.752
5821.27 1761.31 1721.92 44.6254 19.86
5824.14 1708.35 1739.32 -65.7755 13.6191
5827.01 1748.31 1733.07 62.0075 53.03
5829.88 1742.55 1731.9 162.858 76.8972
5832.75 1704.84 1739.54 5.82629 71.3012
5835.62 1771.22 1722.58 45.2194 23.6111
5838.49 1691.68 1723.96 19.7877 47.0128
5841.36 1708.99 1714.13 76.0314 47.7377
5844.23 1741.71 1732.34 47.394 72.5073
5847.09 1746.33 1724.08 94.0965 108.317
5849.96 1684.21 1701.43 183.46 110.861
5852.83 1673.74 1700.72 55.0257 136.393
5855.7 1744.2 1719.9 170.692 91.0299
5858.57 1741.77 1748.35 47.3716 99.1924
5861.44 1759.07 1739.49 79.5134 37.4662
5864.3 1717.63 1752.5 -14.4863 43.0225
5867.17 1780.79 1752.45 64.0404 76.9497
5870.04 1758.93 1757.73 181.295 99.6987
5872.91 1733.48 1766.33 53.7604 122.813
5875.77 1806.57 1731.27 133.383 82.3652
5878.64 1653.75 1723.39 59.9522 66.2177
5881.51 1709.84 1659.69 5.31784 1.69667
5884.38 1615.48 1630.89 -60.1801 15.9117
5887.24 1567.36 1555.9 102.597 35.0001
5890.11 1484.86 1556.8 62.583 102.606
5892.98 1618.2 1591.2 142.638 88.42
5895.84 1670.54 1636.87 60.0393 122.564
5898.71 1621.88 1626.3 165.015 50.0672
5901.58 1586.49 1617.69 -74.8528 86.8195
5904.44 1644.71 1650.13 170.296 90.9659
5907.31 1719.19 1674.82 177.454 143.477
5910.17 1660.55 1696.85 82.6804 128.968
5913.04 1710.8 1672.31 126.769 110.558
5915.91 1645.59 1673.37 122.224 95.0824
5918.77 1663.73 1653.88 36.2541 90.8184
5921.64 1652.34 1679.25 113.977 103.553
5924.5 1721.68 1673.89 160.429 135.721
5927.37 1647.63 1721.96 132.758 121.243
5930.23 1796.57 1737.4 70.5431 139.734
5933.1 1768 1790.2 215.9 109.418
5935.96 1806.02 1769.44 41.8109 119.246
5938.83 1734.31 1758.52 100.027 96.7008
5941.69 1735.23 1732.54 148.265 103.94
5944.56 1728.1 1731.36 63.5283 162.099
5947.42 1730.75 1709.92 274.503 129.371
5950.29 1670.9 1695.62 50.0821 151.014
5953.15 1685.21 1680.69 128.458 72.1893
5956.02 1685.95 1683.25 38.0278 89.4718
5958.88 1678.57 1667.8 101.929 61.684
5961.74 1638.88 1694.48 45.0948 61.5604
5964.61 1765.98 1717.63 37.6568 67.5689
5967.47 1748.03 1740.11 119.955 104.814
5970.34 1706.31 1698.89 156.831 127.085
5973.2 1642.32 1717.53 104.469 176.079
5976.06 1803.96 1704.5 266.936 149.924
5978.93 1667.23 1718.29 78.3673 167.349
5981.79 1683.67 1654.42 156.743 126.989
5984.65 1612.35 1672.82 145.856 160.155
5987.51 1722.43 1679.89 177.867 187.152
5990.38 1704.88 1717.78 237.733 224.343
5993.24 1726.01 1724.67 257.428 218.087
5996.1 1743.12 1736.81 159.099 190.47
5998.97 1741.31 1724.25 154.882 173.233
6001.83 1688.31 1714.64 205.717 212.695
6004.69 1714.29 1692.83 277.488 183.555
6007.55 1675.87 1684.3 67.4588 145.793
6010.41 1662.73 1672.2 92.4316 109.747
6013.28 1678.01 1670.95 169.35 160.916
6016.14 1672.11 1670.85 220.967 171.42
6019 1662.44 1675.72 123.942 170.613
6021.86 1692.63 1691.9 166.929 109.269
6024.72 1720.63 1709.7 36.935 127.861
6027.58 1715.84 1707.07 179.72 161.686
6030.44 1684.73 1727.66 268.403 210.405
6033.31 1782.4 1725.27 183.093 224.548
6036.17 1708.68 1727.87 222.148 213.468
6039.03 1692.54 1714.32 235.163 262.524
6041.89 1741.75 1721.32 330.262 267.876
6044.75 1729.68 1737.63 238.201 240.314
6047.61 1741.46 1703.16 152.478 226.592
6050.47 1638.33 1695.22 289.096 214.919
6053.33 1705.88 1720.45 203.181 252.441
6056.19 1817.13 1749.98 265.047 182.559
6059.05 1726.92 1754.39 79.4476 110.802
6061.91 1719.12 1710.37 -12.0873 116.439
6064.77 1685.05 1712.5 281.957 151.662
6067.63 1733.33 1716.6 185.117 187.74
6070.49 1731.42 1704.19 96.1461 156.121
6073.35 1647.82 1700.62 187.1 162.053
6076.21 1722.63 1672.29 202.914 212.376
6079.06 1646.43 1688.79 247.113 233.886
6081.92 1697.31 1658.36 251.63 237.135
6084.78 1631.35 1674.89 212.663 225.64
6087.64 1696.02 1633.3 212.628 216.508
6090.5 1572.55 1651.28 224.233 200.226
6093.36 1685.27 1656.62 163.817 240.958
6096.22 1712.03 1709.16 334.824 236.552
6099.07 1730.18 1666.08 211.016 186.11
6101.93 1556.03 1649.25 12.4916 127.942
6104.79 1661.54 1656.48 160.317 167.636
6107.65 1751.87 1678.29 330.098 225.789
6110.51 1621.45 1655.11 186.951 228.215
6113.36 1592 1636.29 167.596 229.996
6116.22 1695.42 1613.66 335.439 257.564
6119.08 1553.56 1646.37 269.656 312.08
6121.93 1690.13 1649.2 331.144 281.927
6124.79 1703.93 1697.66 244.982 281.336
6127.65 1698.93 1677.63 267.883 272.866
6130.51 1630.02 1632.03 305.735 282.88
6133.36 1567.14 1565.78 275.022 278.42
6136.22 1500.16 1550.1 254.505 239.776
6139.07 1583 1588.83 189.802 242.92
6141.93 1683.34 1653.28 284.454 279.7
6144.79 1693.49 1670.26 364.844 288.691
6147.64 1633.95 1644.83 216.774 283.489
6150.5 1607.05 1627 268.849 215.048
6153.35 1640.01 1590.82 159.519 239.068
6156.21 1525.4 1577.13 288.834 237.346
6159.07 1565.98 1557.08 263.684 258.44
6161.92 1579.85 1585.63 222.802 287.666
6164.78 1611.05 1594.79 376.511 322.258
6167.63 1593.45 1615.18 367.461 412.714
6170.49 1641.03 1648.25 494.171 428.845
6173.34 1710.25 1694.12 424.903 460.631
6176.2 1731.09 1707.6 462.819 394.809
6179.05 1681.45 1686 296.705 414.095
6181.91 1645.46 1655.91 482.761 380.317
6184.76 1640.83 1630.3 361.486 395.25
6187.61 1604.61 1624.38 341.503 348.008
6190.47 1627.7 1644.3 341.034 373.256
6193.32 1700.58 1620.92 437.232 367.378
6196.18 1534.48 1632.26 323.867 361.728
6199.03 1661.72 1626.67 324.084 326.063
6201.88 1683.83 1665.74 330.237 353.95
6204.74 1651.67 1656.09 407.53 341.316
6207.59 1632.79 1630.84 286.181 350.07
6210.44 1608.06 1637.24 356.499 337.296
6213.3 1670.86 1660.5 369.209 399.107
6216.15 1702.59 1627.62 471.612 421.068
6219 1509.41 1656.42 422.384 469.749
6221.85 1757.26 1604.04 515.252 386.818
6224.71 1545.44 1640.47 222.819 409.9
6227.56 1618.71 1596.8 491.63 356.15
6230.41 1626.26 1594.94 354.001 392.017
6233.26 1539.86 1580.87 330.42 325.131
6236.12 1576.48 1543.88 290.972 323.411
6238.97 1515.3 1561.56 348.841 366.972
6241.82 1592.91 1553.21 461.103 355.304
6244.67 1551.42 1587.38 255.969 397.602
6247.52 1617.82 1547.02 475.735 367.554
6250.37 1471.81 1534.25 370.958 399.322
6253.22 1513.12 1523.88 351.273 393.134
6256.08 1586.72 1565.08 457.17 437.509
6258.93 1595.41 1598.57 504.085 439.479
6261.78 1613.58 1617.17 357.181 418.981
6264.63 1642.5 1633.98 395.678 336.25
6267.48 1645.86 1672.4 255.891 373.08
6270.33 1728.83 1644.71 467.673 392.917
6273.18 1559.44 1627.39 455.187 470.56
6276.03 1593.9 1546.02 488.821 484.148
6278.88 1484.72 1560.23 508.436 511.108
6281.73 1602.07 1558.52 536.066 486.167
6284.58 1588.78 1573.35 414 455.45
6287.43 1529.22 1565.82 416.285 420.446
6290.28 1579.46 1560.44 431.055 383.287
6293.13 1572.64 1560.45 302.52 324.478
6295.98 1529.26 1568.74 239.858 196.94
6298.83 1604.33 1539.19 48.4403 129.691
6301.67 1483.99 1586.03 100.775 218.913
6304.52 1669.78 1559.69 507.524 389.739
6307.37 1525.3 1506.76 560.918 505.792
6310.22 1325.22 1464.64 448.933 499.988
6313.07 1543.4 1438.94 490.113 468.155
6315.92 1448.21 1518.46 465.419 497.211
6318.76 1563.77 1554.75 536.101 568.807
6321.61 1652.25 1606.35 704.901 609.441
6324.46 1603.03 1619.84 587.322 603.794
6327.31 1604.23 1598.85 519.16 506.314
6330.16 1589.29 1559.27 412.459 454.635
6333 1484.3 1564.75 432.287 429.206
6335.85 1620.67 1554.96 442.873 469.581
6338.7 1559.92 1584.65 533.582 528.279
6341.54 1573.37 1559.91 608.382 576.217
6344.39 1546.45 1571.23 586.688 619.661
6347.24 1593.86 1574.2 663.914 627.912
6350.08 1582.28 1586.74 633.132 608.93
6352.93 1584.07 1554.75 529.742 522.444
6355.78 1497.91 1573.35 404.456 467.249
6358.62 1638.08 1595.2 467.549 465.621
6361.47 1649.6 1612.09 524.858 481.952
6364.32 1548.59 1580.57 453.451 449.184
6367.16 1543.53 1544.98 369.244 439.466
6370.01 1542.82 1531.4 495.702 418.249
6372.85 1507.85 1526.98 389.801 471.86
6375.7 1530.27 1536.33 530.076 498.077
6378.54 1570.88 1586.69 574.353 639.847
6381.39 1658.94 1621.2 815.111 688.641
6384.23 1633.79 1619.56 676.458 715.186
6387.08 1565.95 1590.53 653.989 692.848
6389.92 1571.86 1550.35 748.096 714.749
6392.77 1513.23 1563.56 742.164 657.02
6395.61 1605.59 1569.87 480.802 603.235
6398.46 1590.78 1594.2 586.738 573.587
6401.3 1586.23 1564.74 653.222 627.544
6404.14 1517.2 1565.29 642.673 639.859
6406.99 1592.43 1549.91 623.683 622.198
6409.83 1540.11 1577.12 600.238 655.873
6412.67 1598.82 1571.75 743.697 658.212
6415.52 1576.31 1541.74 630.702 650.692
6418.36 1450.1 1538.61 577.678 606.803
6421.2 1589.42 1548.1 612.027 671.49
6424.05 1604.78 1589.52 824.764 737.827
6426.89 1574.36 1577.73 776.69 800.494
6429.73 1554.06 1556.37 800.028 759.655
6432.57 1540.68 1553.89 702.247 731.518
6435.42 1566.94 1574.63 692.279 722.23
6438.26 1616.26 1548.22 772.165 712.31
6441.1 1461.46 1563.43 672.487 677.411
6443.94 1612.57 1544.49 587.581 660.848
6446.79 1559.46 1573.9 722.475 705.014
6449.63 1549.69 1572.2 804.987 761.592
6452.47 1607.44 1589.45 757.312 753.109
6455.31 1611.22 1579.11 697.027 715.415
6458.15 1518.68 1546.44 691.904 691.675
6460.99 1509.42 1490.23 686.094 686.71
6463.83 1442.6 1499.94 682.133 721.051
6466.67 1547.8 1512.57 794.927 686.997
6469.51 1547.32 1545.62 583.932 718.535
6472.36 1541.74 1541.18 776.746 722.389
6475.2 1534.47 1543.94 806.489 804.567
6478.04 1555.61 1569.31 830.466 827.465
6480.88 1617.86 1592.63 845.44 827.251
6483.72 1604.43 1571.21 805.846 771.621
6486.56 1491.34 1524.28 663.576 697.045
6489.4 1477.08 1481.77 621.712 689.839
6492.23 1476.9 1456.62 784.228 724.307
6495.07 1415.9 1502.14 766.982 787.855
6497.91 1613.62 1520.38 812.356 752.318
6500.75 1531.62 1571.81 677.616 768.568
6503.59 1570.18 1526.38 815.732 764.776
6506.43 1477.35 1529.35 800.98 828.286
6509.27 1540.53 1530.78 868.145 859.256
6512.11 1574.46 1555.8 908.642 874.398
6514.95 1552.41 1554.97 846.407 896.584
6517.78 1538.05 1537.73 934.703 884.925
6520.62 1522.72 1537.25 873.664 839.953
6523.46 1550.96 1511.57 711.493 777.87
6526.3 1461.02 1487.22 748.454 756.677
6529.13 1449.67 1493.67 810.083 807.793
6531.97 1570.31 1534.61 864.841 899.638
6534.81 1583.86 1550.09 1023.99 906.051
6537.65 1496.09 1538.84 829.323 949.603
6540.48 1536.58 1509.78 995.496 848.775
6543.32 1496.67 1515.97 721.506 883.746
6546.16 1514.65 1483.81 934.235 843.531
6548.99 1440.1 1474.93 874.851 822.595
6551.83 1470.05 1419.82 658.7 755.364
6554.67 1349.32 1353.76 732.542 742.933
6557.5 1241.91 1283.4 837.558 829.119
6560.34 1258.97 1294.31 917.259 828.824
6563.17 1382.03 1344.87 731.656 837.02
6566.01 1393.61 1407.76 862.145 828.98
6568.85 1447.64 1434.63 893.138 862.774
6571.68 1462.65 1493.35 833.039 877.652
6574.52 1569.76 1516.71 906.78 884.403
6577.35 1517.74 1548.49 913.391 907.819
6580.19 1557.97 1512.83 903.287 963.646
6583.02 1462.77 1478.68 1074.26 941.577
6585.86 1415.3 1441.45 847.185 996.296
6588.69 1446.28 1451.56 1067.44 947.827
6591.52 1493.09 1494.7 928.855 933.229
6594.36 1544.72 1515.96 803.389 868.685
6597.19 1510.08 1555.92 873.811 867.824
6600.03 1612.97 1563.37 926.271 949.069
6602.86 1567.06 1560.17 1047.12 1013.79
6605.69 1500.49 1537.22 1067.96 1020.49
6608.53 1544.11 1538.98 946.377 1065.14
6611.36 1572.33 1550.92 1181.09 1090.33
6614.19 1536.33 1560.65 1143.52 1135.6
6617.03 1573.28 1537.59 1082.19 1122.13
6619.86 1503.15 1535.41 1140.67 1072.16
6622.69 1529.79 1538.32 993.625 1081.61
6625.52 1582.03 1565.21 1110.54 1083.35
6628.36 1583.81 1584.26 1145.88 1110.17
6631.19 1586.94 1575.36 1074.08 1115.92
6634.02 1555.35 1554.31 1127.78 1057.52
6636.85 1520.65 1528.51 970.71 1064.62
6639.68 1509.54 1510.73 1095.38 1006.6
6642.52 1501.99 1535.23 953.715 1039.4
6645.35 1594.17 1509.89 1069.11 1001.68
6648.18 1433.51 1481.73 982.218 1066.82
6651.01 1417.5 1413.05 1149.14 1078.15
6653.84 1388.15 1428.52 1103.09 1105.3
6656.67 1479.91 1415.94 1063.67 1091.88
6659.5 1379.77 1436.42 1108.87 1122.59
6662.33 1449.59 1406.56 1195.23 1144.4
6665.16 1390.32 1402.75 1129.11 1149.2
6667.99 1368.34 1397.97 1123.25 1078.16
6670.82 1435.25 1394.62 982.121 1080.61
6673.65 1380.26 1418.45 1136.47 1133.82
6676.48 1439.85 1407.75 1282.87 1184.45
6679.31 1403.14 1416.64 1134.01 1164
6682.14 1406.92 1410.32 1075.13 1134.02
6684.97 1420.89 1434.2 1192.91 1152.73
6687.8 1474.8 1460.08 1190.15 1208.36
6690.63 1484.53 1473.66 1242.02 1197.1
6693.46 1461.64 1469.88 1159.14 1212.5
6696.29 1463.46 1469.49 1236.34 1246.43
6699.12 1483.37 1455.64 1343.82 1281.92
6701.94 1420.1 1442.4 1265.6 1308.51
6704.77 1423.73 1412.37 1316.1 1254.51
6707.6 1393.29 1408.44 1181.81 1200.06
6710.43 1408.29 1410.29 1102.27 1171.93
6713.26 1429.28 1430.47 1231.7 1259.71
6716.08 1453.84 1458.62 1445.15 1345.73
6718.91 1492.74 1478.06 1360.34 1368.7
6721.74 1487.6 1453.74 1300.61 1298.45
6724.57 1380.88 1439.56 1234.4 1300.74
6727.39 1450.2 1442.97 1367.21 1337.82
6730.22 1497.84 1471.36 1411.85 1339.71
6733.05 1466.06 1462.85 1240.05 1330.15
6735.87 1424.66 1423.9 1338.56 1311.69
6738.7 1380.97 1402.56 1356.46 1339.42
6741.52 1402.04 1385.02 1323.25 1326.28
6744.35 1372.04 1384.85 1299.14 1300.67
6747.18 1380.46 1418.3 1279.61 1350.31
6750 1502.39 1451.2 1472.18 1375.15
6752.83 1470.75 1465.33 1373.66 1411.56
6755.65 1422.85 1455.82 1388.84 1380.05
6758.48 1473.86 1454.01 1377.66 1379.59
6761.3 1465.3 1463.23 1372.26 1417.22
6764.13 1450.53 1455.69 1501.75 1450.07
6766.95 1451.26 1421.26 1476.2 1422.29
6769.78 1362.01 1414.03 1288.93 1351.77
6772.6 1428.83 1407.62 1290.19 1342.29
6775.43 1432.02 1447.57 1447.74 1407.85
6778.25 1481.85 1455.85 1485.62 1460.86
6781.07 1453.68 1439.11 1449.22 1440.56
6783.9 1381.81 1430.02 1386.85 1424.41
6786.72 1454.55 1422.11 1437.17 1447.12
6789.55 1429.97 1430.29 1517.34 1474.54
6792.37 1406.33 1425.76 1469.1 1505.28
6795.19 1440.97 1412.36 1529.4 1515.39
6798.01 1389.78 1414.56 1547.66 1478.4
6800.84 1412.95 1422.82 1358.14 1497.41
6803.66 1465.74 1440.43 1586.44 1480.43
6806.48 1442.62 1430.01 1496.7 1516.59
6809.3 1381.68 1442.05 1466.63 1507.77
6812.13 1501.87 1442.01 1559.98 1531.36
6814.95 1442.5 1469.75 1567.46 1549.55
6817.77 1464.9 1450.87 1521.22 1555.51
6820.59 1445.21 1422.01 1577.84 1505.02
6823.41 1355.92 1396.02 1415.98 1518.53
6826.24 1386.94 1360.71 1561.76 1535.77
6829.06 1339.28 1357.33 1629.56 1562.85
6831.88 1345.75 1382.14 1497.24 1623.96
6834.7 1461.39 1396.59 1745.07 1562.47
6837.52 1382.63 1404.51 1445.08 1574.11
6840.34 1369.5 1359.31 1532.16 1487.34
6843.16 1325.8 1375.71 1484.78 1494.93
6845.98 1431.82 1388.31 1467.86 1532.93
6848.8 1407.31 1399.98 1646.14 1575.95
6851.62 1360.79 1354.69 1613.84 1616.54
6854.44 1295.96 1357.11 1589.63 1617.15
6857.26 1414.57 1363.48 1647.99 1603.28
6860.08 1379.91 1356.94 1572.23 1555.59
6862.9 1276.34 1258.26 1446.55 1425.28
6865.72 1118.52 1157.2 1257.06 1320.48
6868.54 1076.74 1087.86 1257.83 1258.95
6871.35 1068.33 1070.22 1261.94 1300.22
6874.17 1065.61 1102.87 1380.89 1358.47
6876.99 1174.69 1169.51 1432.57 1458.39
6879.81 1268.24 1223.47 1561.73 1495.16
6882.63 1227.48 1245.94 1491.18 1482.15
6885.45 1242.1 1229.86 1393.55 1478.44
6888.26 1219.99 1201.8 1550.6 1450.76
6891.08 1143.31 1184.57 1408.12 1450.65
6893.9 1190.4 1183.78 1393.22 1430.15
6896.72 1217.63 1203.76 1489.11 1465.63
6899.53 1203.24 1226.11 1514.55 1536.92
6902.35 1257.45 1255.99 1607.1 1574.15
6905.17 1307.29 1267.26 1600.82 1595.54
6907.98 1237.02 1270.87 1578.71 1599.55
6910.8 1268.28 1272.29 1619.12 1613.25
6913.61 1311.55 1301.82 1641.91 1656.78
6916.43 1325.61 1313.65 1709.31 1634.75
6919.25 1303.78 1330.61 1553.01 1647.89
6922.06 1362.45 1304.03 1681.35 1625.58
6924.88 1245.85 1309.49 1642.38 1678.83
6927.69 1320.16 1265.89 1712.77 1668.96
6930.51 1231.64 1293.08 1651.74 1708.83
6933.32 1327.44 1290.3 1761.99 1685.54
6936.14 1311.8 1322.99 1642.89 1690.76
6938.95 1329.73 1315.07 1667.39 1663.55
6941.77 1303.67 1306.95 1680.37 1650.14
6944.58 1287.44 1302.85 1602.64 1654.74
6947.4 1317.45 1313.11 1681.21 1668.96
6950.21 1334.45 1347.77 1723.02 1709.89
6953.02 1391.4 1344.06 1725.45 1756.75
6955.84 1306.34 1354.66 1821.78 1788.3
6958.65 1366.23 1356.66 1817.67 1811.32
6961.46 1397.41 1356.43 1794.51 1767.5
6964.28 1305.66 1336.01 1690.33 1757.33
6967.09 1304.97 1297.36 1787.16 1721.45
6969.9 1281.46 1245.47 1686.85 1659.45
6972.72 1149.98 1224.32 1504.34 1600.91
6975.53 1241.53 1240.44 1611.54 1627.73
6978.34 1329.82 1295.47 1767.3 1674.7
6981.15 1315.05 1287.27 1645.26 1715.82
6983.97 1216.93 1275.02 1734.91 1694.85
6986.78 1293.06 1263.61 1704.39 1724.09
6989.59 1280.82 1284.93 1732.98 1717.4
6992.4 1280.91 1281.03 1714.83 1725.02
6995.21 1281.35 1254.58 1727.26 1677.21
6998.02 1201.47 1263.87 1589.55 1711.46
7000.83 1308.8 1233.46 1817.56 1694.52
7003.64 1190.12 1250.04 1676.44 1747.42
7006.46 1251.2 1237.57 1748.26 1750.12
7009.27 1271.41 1268.45 1825.64 1799.84
7012.08 1282.75 1270.35 1825.62 1796.31
7014.89 1256.88 1263.23 1737.69 1818.01
7017.7 1250.06 1245.77 1890.72 1817.78
7020.51 1230.36 1256.17 1824.94 1867
7023.32 1288.08 1237.62 1885.33 1816.77
7026.12 1194.42 1236.46 1740.03 1780.94
7028.93 1226.87 1239.64 1717.45 1789.2
7031.74 1297.62 1253.36 1910.12 1781.51
7034.55 1235.58 1286.38 1716.97 1863.16
7037.36 1325.96 1274.56 1962.38 1806.82
7040.17 1262.16 1270.48 1741.11 1845.11
7042.98 1223.31 1276.06 1831.84 1853.7
7045.79 1342.72 1250.23 1988.13 1866.98
7048.59 1184.64 1258.78 1780.97 1899.09
7051.4 1248.99 1238.65 1928.18 1906.08
7054.21 1282.33 1264.62 2009.1 1959.09
7057.02 1262.53 1274.24 1939.99 1924.5
7059.82 1277.85 1264.18 1824.42 1909.05
7062.63 1252.17 1248.02 1962.74 1850.54
7065.44 1214.03 1229.8 1764.46 1864.48
7068.24 1223.21 1229.19 1866.25 1837.88
7071.05 1250.32 1245.24 1882.92 1903.95
7073.86 1262.19 1253.12 1962.69 1951.15
7076.66 1246.84 1232.81 2007.83 1926.13
7079.47 1189.39 1226.48 1807.87 1887.91
7082.28 1243.2 1220.97 1848.02 1861.37
7085.08 1230.33 1220.82 1928.23 1891.29
7087.89 1188.94 1196.96 1897.62 1860.55
7090.69 1171.61 1201.68 1755.8 1863.37
7093.5 1244.51 1212 1936.7 1923.67
7096.3 1219.88 1228.11 2078.5 1966.55
7099.11 1219.96 1242.54 1884.44 2009.43
7101.91 1287.78 1239.66 2065.35 1941.03
7104.72 1211.24 1255.16 1873.31 1948.15
7107.52 1266.47 1255.77 1905.79 1923.17
7110.33 1289.61 1244.87 1990.42 1924.62
7113.13 1178.52 1217.4 1877.65 1898.95
7115.93 1184.08 1204.09 1828.79 1934.68
7118.74 1249.66 1236.14 2097.61 1988.48
7121.54 1274.69 1226.69 2039.06 2014.16
7124.34 1155.71 1238.58 1905.81 2021.2
7127.15 1285.34 1211.74 2118.72 2024.81
7129.95 1194.17 1224.52 2049.89 2024.61
7132.75 1194.06 1182.8 1905.23 1961.02
7135.55 1160.16 1172.81 1927.95 1883.84
7138.36 1164.22 1174.67 1818.35 1899.73
7141.16 1199.62 1180.95 1952.89 1903.74
7143.96 1179 1183.24 1939.99 1934.65
7146.76 1171.09 1178.52 1911.06 1954.89
7149.56 1185.48 1172.92 2013.61 1968.46
7152.37 1162.2 1191.32 1980.7 2018.6
7155.17 1226.27 1179.96 2061.5 2000.07
7157.97 1151.4 1198.21 1958.01 2037.1
7160.77 1216.95 1173.48 2091.79 2005.72
7163.57 1152.07 1170.92 1967.38 2002.89
7166.37 1143.74 1137.54 1949.5 1927.78
7169.17 1116.8 1120.61 1866.47 1887.67
7171.97 1101.3 1105.14 1847.04 1856.69
7174.77 1097.32 1093.53 1856.56 1832.19
7177.57 1081.97 1078.44 1792.96 1816.08
7180.37 1056.02 1060.86 1798.73 1767.75
7183.17 1044.58 1072.67 1711.56 1806.91
7185.97 1117.41 1101.24 1910.45 1848.71
7188.77 1141.73 1112.58 1924.12 1911.35
7191.57 1078.62 1126.84 1899.49 1940.72
7194.37 1160.17 1091.61 1998.56 1900.02
7197.16 1036.04 1089.18 1802.02 1890.14
7199.96 1071.33 1042.55 1869.84 1867.6
7202.76 1020.28 1060.37 1930.95 1911.59
7205.56 1089.51 1090.89 1933.97 1977.26
7208.36 1162.87 1122.35 2066.88 1966.15
7211.15 1114.68 1120.65 1897.6 1943.16
7213.95 1084.41 1122.16 1865 1986.73
7216.75 1167.38 1137.23 2197.58 2028.92
7219.55 1159.91 1168.3 2024.17 2075.93
7222.34 1177.6 1164 2006.04 2023.91
7225.14 1154.5 1144.18 2041.51 2008.2
7227.94 1100.44 1126.24 1977.06 1982.29
7230.73 1123.79 1115.37 1928.31 1971.01
7233.53 1121.9 1119.93 2007.65 1976.69
7236.33 1114.11 1095.06 1994.11 1952.94
7239.12 1049.17 1020.52 1857.06 1936.64
7241.92 898.273 1023.14 1958.74 1949.17
7244.71 1121.97 1026.28 2031.71 2000.51
7247.51 1058.59 1072.02 2011.07 2013.21
7250.3 1035.5 1047.46 1996.84 1976.67
7253.1 1048.28 1069.47 1922.11 2006.23
7255.89 1124.62 1081.29 2099.75 2000.35
7258.69 1070.98 1080.42 1979.18 2016.54
7261.48 1045.66 1076.98 1970.7 2007.07
7264.28 1114.29 1076.54 2071.33 2020.78
7267.07 1069.68 1084.52 2020.33 2036.46
7269.86 1069.59 1069.04 2017.74 2001.97
7272.66 1067.84 1087.32 1967.84 2056.67
7275.45 1124.51 1041.7 2184.44 2062.76
7278.24 932.75 1026.7 2036 2055.43
7281.04 1022.84 988.38 1945.85 2011.76
7283.83 1009.55 996.508 2053.44 1938.04
7286.62 957.134 998.094 1814.83 1920.9
7289.41 1027.6 967.192 1894.42 1872.58
7292.21 916.842 969.967 1908.49 1941.22
7295 965.459 939.816 2020.75 1964.62
7297.79 937.147 959.773 1964.62 2000
7300.58 976.711 965.763 2014.64 1986.9
7303.37 983.431 964.912 1981.45 2001.63
7306.16 934.594 975.26 2008.8 2044.07
7308.96 1007.76 965.499 2141.98 2037.36
7311.75 954.148 998.081 1961.29 2110.45
7314.54 1032.34 1008.63 2228.08 2110.32
7317.33 1039.39 1029.29 2141.59 2220.55
7320.12 1016.14 1020.98 2291.97 2210.5
7322.91 1007.42 984.888 2197.95 2172.47
7325.7 931.11 985.609 2027.48 2145.45
7328.49 1018.3 989.719 2210.92 2131.41
7331.28 1019.75 1010.77 2155.83 2211.91
7334.07 994.254 981.787 2268.99 2269.83
7336.86 931.359 976.735 2384.68 2259.72
7339.65 1004.59 980.483 2125.5 2215.07
7342.43 1005.5 967.303 2135.02 2141.26
7345.22 891.818 973.553 2163.25 2203.29
7348.01 1023.35 964.083 2311.6 2236
7350.8 977.085 996.865 2233.16 2228.62
7353.59 990.165 982.873 2141.09 2196.8
7356.38 981.37 974.348 2216.15 2156.88
7359.16 951.508 939.105 2113.4 2092.19
7361.95 884.437 943.577 1947.01 2070.73
7364.74 994.787 883.654 2151.79 2019.68
7367.53 771.738 931.922 1960.23 2164.04
7370.31 1029.24 927.536 2380.09 2223.38
7373.1 981.628 990.626 2329.82 2325.8
7375.89 961.01 983.56 2267.5 2304.02
7378.67 1008.04 966.778 2314.74 2222.62
7381.46 931.282 952.162 2085.63 2205
7384.24 917.162 936.175 2214.62 2137.85
7387.03 960.082 943.171 2113.29 2173.01
7389.82 952.268 945.072 2191.13 2163.92
7392.6 922.866 960.608 2187.34 2232.15
7395.39 1006.69 962.009 2317.98 2210.37
7398.17 956.472 972.39 2125.77 2251.51
7400.96 954.01 936.188 2310.77 2179.7
7403.74 898.082 946.483 2102.54 2239.12
7406.53 987.356 943.369 2304.04 2164.27
7409.31 944.668 953.868 2086.22 2208.46
7412.09 929.58 941.863 2235.11 2195.83
7414.88 951.342 932.279 2266.16 2218.99
7417.66 915.916 933.763 2155.7 2182.95
7420.45 934.03 947.396 2126.99 2197.84
7423.23 992.241 946.666 2310.83 2246.24
7426.01 913.728 937.802 2300.91 2243.81
7428.79 907.436 929.722 2119.7 2262.21
7431.58 968.003 956.475 2366.03 2293.5
7434.36 993.984 954.44 2394.78 2258.35
7437.14 901.332 917.109 2014.24 2170.71
7439.92 856.011 896.643 2103.12 2128.5
7442.71 932.585 904.092 2268.13 2237.7
7445.49 923.68 926.426 2341.84 2223.5
7448.27 923.012 917.533 2060.53 2208.58
7451.05 905.907 935.273 2223.37 2239.27
7453.83 976.901 941.035 2433.89 2332.55
7456.61 940.296 928.982 2340.39 2309.75
7459.39 869.747 928.719 2154.95 2296.74
7462.17 976.112 942.041 2394.87 2328.43
7464.95 980.264 965.807 2435.49 2354.24
7467.73 941.045 943.166 2232.35 2297.57
7470.51 908.188 940.538 2224.87 2294.95
7473.29 972.381 941.947 2427.61 2299.72
7476.07 945.272 932.094 2246.69 2312.89
7478.85 878.628 933.141 2264.36 2323.21
7481.63 975.522 925.509 2458.59 2401.73
7484.41 922.379 936.862 2482.23 2455.15
7487.19 912.686 930.686 2424.63 2460.32
7489.97 956.993 929.497 2474.11 2393.22
7492.75 918.811 932.338 2280.94 2352.7
7495.53 921.211 932.206 2303.06 2346.52
7498.3 956.596 926.843 2455.57 2354.7
7501.08 902.722 934.105 2305.46 2371.03
7503.86 942.998 920.087 2352.05 2333.59
7506.64 914.54 910.097 2343.27 2315.71
7509.41 872.753 896.661 2251.81 2351.77
7512.19 902.69 893.152 2460.24 2381.05
7514.97 904.013 880.967 2431.09 2390.38
7517.74 836.197 895.009 2279.8 2395.45
7520.52 944.818 884.415 2475.48 2317.34
7523.3 872.229 907.765 2196.73 2382.14
7526.07 906.247 889.279 2474.22 2297.43
7528.85 889.361 898.269 2221.34 2369.27
7531.62 899.198 900.109 2412.26 2337.6
7534.4 911.768 920.708 2379.21 2401.76
7537.17 951.157 924.192 2413.81 2377.88
7539.95 909.651 926.148 2340.64 2411.15
7542.72 917.634 920.862 2479.01 2453.66
7545.5 935.299 906.399 2541.32 2428.42
7548.27 866.264 902.232 2264.92 2416.83
7551.05 905.134 877.764 2444.23 2382.21
7553.82 861.893 877.45 2437.47 2416.39
7556.59 865.322 872.726 2367.47 2427.79
7559.37 890.962 886.638 2478.43 2464.08
7562.14 903.63 885.5 2546.34 2447.16
7564.91 861.907 855.579 2316.71 2354.78
7567.69 801.2 860.393 2201.29 2349.2
7570.46 918.072 865.831 2529.6 2358.22
7573.23 878.22 893.621 2343.76 2429.43
7576.01 884.571 889.343 2414.93 2369.92
7578.78 905.238 867.194 2351.07 2306.92
7581.55 811.773 857.009 2154.75 2302.65
7584.32 854.016 823.114 2402.14 2248.08
7587.09 803.555 817.055 2187.34 2199.51
7589.86 793.596 724.972 2009.06 1924.54
7592.64 577.764 585.225 1577.21 1541.82
7595.41 384.316 423.226 1039.2 1158.39
7598.18 307.599 308.619 858.745 862.784
7600.95 233.943 270.914 690.403 752.505
7603.72 271.198 252.809 708.367 687.914
7606.49 253.286 288.113 664.972 788.538
7609.26 339.853 349.83 992.275 1006.57
7612.03 456.352 437.552 1362.46 1288.03
7614.8 516.451 508.692 1509.36 1535.03
7617.57 553.273 520.833 1733.26 1565.58
7620.34 492.775 500.499 1454.11 1502.86
7623.1 455.45 464.183 1321.2 1355.38
7625.87 444.324 451.295 1290.82 1301.33
7628.64 454.112 446.935 1291.98 1325.25
7631.41 442.368 462.641 1392.93 1387.15
7634.18 491.442 472.229 1476.54 1412.98
7636.95 482.878 499.113 1369.48 1480.17
7639.71 523.02 522.103 1594.5 1509.11
7642.48 560.41 545.129 1563.35 1577.18
7645.25 551.957 578.881 1573.68 1649.48
7648.01 624.275 590.945 1811.41 1732.75
7650.78 596.601 620.231 1813.17 1813.23
7653.55 639.816 615.129 1815.12 1791.02
7656.31 608.97 622.057 1744.77 1815.7
7659.08 617.384 635.231 1887.23 1864.35
7661.85 679.339 663.066 1961.06 1953.57
7664.61 692.476 709.311 2012.42 2062.02
7667.38 756.117 739.887 2212.59 2180.01
7670.14 771.067 757.08 2315.02 2256.33
7672.91 744.055 752.877 2241.38 2249.11
7675.67 743.508 745.783 2190.92 2276.47
7678.44 749.785 783.019 2397.11 2381.03
7681.2 855.762 777.154 2555.07 2443.63
7683.97 725.914 797.908 2378.71 2495.4
7686.73 812.047 780.379 2552.44 2406.81
7689.5 803.176 793.204 2289.28 2397.25
7692.26 764.388 776.445 2350.03 2342.89
7695.02 761.77 773.823 2389.36 2361.02
7697.79 795.312 791.317 2343.68 2429.29
7700.55 816.869 806.267 2554.84 2431.17
7703.31 806.62 812.787 2395 2404.2
7706.07 814.873 757.51 2262.77 2339.47
7708.84 651.037 744.566 2360.62 2289.17
7711.6 767.787 717.893 2244.11 2286.18
7714.36 734.856 696.489 2253.8 2285.82
7717.12 586.825 680.396 2359.56 2315.94
7719.88 719.508 692.63 2334.48 2372.27
7722.65 771.558 766.123 2422.79 2402.6
7725.41 807.301 760.336 2450.52 2438.18
7728.17 702.148 755.799 2441.24 2390.61
7730.93 757.948 755.548 2280.06 2402.06
7733.69 806.546 787.411 2484.88 2394.19
7736.45 797.738 788.069 2417.63 2421.01
7739.21 759.921 730.552 2360.51 2371.5
7741.97 633.995 679.906 2336.36 2312.68
7744.73 645.801 648.549 2241.17 2282.42
7747.49 665.852 667.592 2269.72 2335.55
7750.25 691.123 676.029 2495.76 2407.65
7753.01 671.114 682.558 2457.48 2538.19
7755.77 685.439 671.387 2661.32 2516.63
7758.53 657.61 680.45 2431.08 2608.67
7761.28 698.301 671.161 2733.61 2539.9
7764.04 657.572 677.785 2455.01 2580.28
7766.8 677.482 655.148 2552.24 2437.07
7769.56 630.389 681.872 2303.96 2510.02
7772.32 737.745 686.046 2673.87 2489.78
7775.07 690.005 692.295 2491.51 2540.92
7777.83 649.136 672.808 2457.38 2514.13
7780.59 679.282 658.786 2593.5 2488.21
7783.34 647.941 662.04 2413.76 2469.05
7786.1 658.897 676.771 2399.89 2494.99
7788.86 723.475 682.894 2671.32 2538.23
7791.61 666.309 702.032 2543.48 2602.55
7794.37 716.312 660.265 2592.84 2471.8
7797.12 598.175 660.971 2279.09 2442.41
7799.88 668.425 633.081 2455.3 2382.34
7802.63 632.643 651.078 2412.61 2445.86
7805.39 652.167 648.766 2469.67 2422.74
7808.14 661.488 662.753 2385.94 2445.29
7810.9 674.604 662.753 2480.26 2423.86
7813.65 652.166 668.902 2405.38 2486.33
7816.41 679.936 669.855 2573.35 2493.83
7819.16 677.463 670.903 2502.76 2545.41
7821.91 655.309 674.406 2560.11 2539.96
7824.67 690.445 666.101 2557 2570.85
7827.42 652.55 631.675 2595.42 2451.29
7830.17 552.029 623.662 2201.46 2484.98
7832.93 666.408 630.586 2658.07 2476.22
7835.68 673.32 659.709 2569.14 2529.75
7838.43 639.398 653.29 2362.04 2452.13
7841.18 647.15 646.143 2425.21 2442.1
7843.94 651.88 636.03 2539.05 2399.46
7846.69 609.061 651.204 2234.12 2435.41
7849.44 692.672 650.034 2533.06 2419.55
7852.19 648.368 662.746 2491.47 2498
7854.94 647.198 634.178 2469.46 2460.84
7857.69 606.969 644.456 2421.58 2487.42
7860.44 679.201 620.175 2571.21 2447.88
7863.19 574.355 618.669 2350.85 2434.12
7865.94 602.451 615.9 2380.29 2436.21
7868.69 670.894 624.463 2577.5 2458.49
7871.44 600.045 623.954 2417.68 2433.53
7874.19 600.924 615.325 2305.4 2417.93
7876.94 645.008 607.388 2530.72 2402.18
7879.69 576.234 621.489 2370.43 2521.12
7882.44 643.225 611.95 2662.23 2495.15
7885.19 616.39 624.506 2452.8 2517.12
7887.94 613.902 600.229 2436.35 2374.83
7890.69 570.395 572.254 2235.36 2283.92
7893.43 532.464 570.321 2180.06 2256.4
7896.18 608.104 567.959 2353.8 2288.24
7898.93 563.308 571.537 2330.86 2248.76
7901.68 543.199 573.302 2061.61 2269.62
7904.42 613.4 582.394 2416.38 2298.34
7907.17 590.582 609.509 2417.01 2386.03
7909.92 624.545 619.277 2324.7 2417.06
7912.66 642.703 622.988 2509.47 2417.77
7915.41 601.717 623.986 2419.14 2483.16
7918.16 627.539 596.667 2520.87 2442.89
7920.9 560.744 593.706 2388.65 2433.97
7923.65 592.834 563.028 2392.38 2358.88
7926.39 535.507 560.433 2295.6 2289.58
7929.14 552.959 551.345 2180.74 2252.66
7931.88 565.57 557.487 2281.63 2241.35
7934.63 553.932 567.297 2261.68 2321.5
7937.37 582.388 558.727 2421.18 2302.37
7940.12 539.862 575.344 2224.23 2353.24
7942.86 603.782 570.378 2414.3 2265.13
7945.6 567.489 583.972 2156.86 2301.77
7948.35 580.644 565.337 2334.16 2268.69
7951.09 547.878 569.264 2315.06 2373.75
7953.84 579.271 570.2 2472.03 2393.04
7956.58 583.45 588.918 2392.04 2445.98
7959.32 604.034 583.667 2473.86 2396.43
7962.06 563.517 579.475 2323.39 2360.72
7964.81 570.875 602.998 2284.92 2414.04
7967.55 674.602 610.709 2633.83 2471.71
7970.29 586.649 606.023 2496.38 2476.07
7973.03 556.818 592.008 2298.01 2434.44
7975.77 632.558 595.961 2508.93 2428.43
7978.51 598.507 613.033 2478.34 2478.63
7981.25 608.035 597.353 2448.62 2423.62
7983.99 585.518 599.343 2343.91 2422.58
7986.74 604.477 585.646 2475.22 2372.61
7989.48 566.941 576.986 2298.69 2354.6
7992.22 559.538 574.701 2289.87 2336.7
7994.96 597.624 582.342 2421.54 2390.23
7997.69 589.864 592.245 2459.29 2447.01
8000.43 589.247 566.577 2460.21 2412.56
8003.17 520.62 562.492 2318.18 2407.43
8005.91 577.61 556.637 2443.89 2397.27
8008.65 571.68 580.331 2429.75 2427.85
8011.39 591.704 500.511 2409.89 1970.47
8014.13 338.149 428.631 1071.76 1563.23
8016.87 356.041 307.071 1208.04 1026.41
8019.6 227.024 294.627 799.438 971.398
8022.34 300.818 365.694 906.712 1313.83
8025.08 569.239 468.673 2235.34 1782.88
8027.81 535.963 556.055 2206.58 2291.24
8030.55 562.962 550.87 2431.8 2297.69
8033.29 553.684 548.21 2254.7 2312.26
8036.02 527.985 553.282 2250.3 2294.39
8038.76 578.177 535.409 2378.18 2258.82
8041.5 500.065 535.142 2147.99 2241.57
8044.23 527.184 534.47 2198.54 2222.66
8046.97 576.161 547.357 2321.45 2256.77
8049.7 538.726 567.121 2250.31 2334.29
8052.44 586.476 578.381 2431.12 2384.96
8055.17 609.942 583.281 2473.44 2373.06
8057.91 553.425 583.081 2214.62 2370.2
8060.64 585.876 573.33 2422.54 2346.92
8063.38 580.69 579.314 2403.61 2428.63
8066.11 571.376 559.172 2459.74 2375.05
8068.84 525.45 539.318 2261.81 2300.63
8071.58 521.127 533.781 2180.36 2225.28
8074.31 554.765 548.067 2233.67 2285.88
8077.04 568.309 548.805 2443.6 2299.51
8079.78 523.341 543.877 2221.26 2315.89
8082.51 539.982 511.347 2282.81 2172.74
8085.24 470.718 511.608 2014.17 2154.62
8087.97 524.124 498.814 2166.89 2128.18
8090.7 501.599 516.951 2203.5 2161.86
8093.44 525.13 472.787 2115.18 2201.26
8096.17 391.632 418.358 2285.11 2152.66
8098.9 338.312 364.463 2057.69 2145.49
8101.63 363.444 352.463 2093.67 2117.2
8104.36 355.632 378.464 2200.25 2231.31
8107.09 416.317 380.956 2400 2255
8109.82 370.92 390.691 2164.75 2267.28
8112.55 384.836 383.745 2237.08 2225.94
8115.28 395.478 394.216 2275.98 2254.82
8118.01 402.335 403.194 2251.39 2276.79
8120.74 411.768 405.435 2303.01 2247.87
8123.47 402.202 400.96 2189.22 2237.81
8126.2 388.908 390.989 2221.2 2254.49
8128.92 381.857 387.169 2353.05 2260.78
8131.65 390.741 386.731 2208.1 2246.52
8134.38 387.594 376.503 2178.42 2134.86
8137.11 351.175 363.996 2018.05 2118.57
8139.84 353.218 351.513 2159.24 2076.71
8142.56 350.145 358.012 2052.84 2107.99
8145.29 370.673 358.393 2111.91 2100.16
8148.02 354.36 367.933 2135.75 2112.01
8150.74 378.767 369.374 2088.36 2100.17
8153.47 374.994 385.157 2076.4 2105.08
8156.2 401.711 371.116 2150.49 2057.56
8158.92 336.644 362.723 1945.8 2036.5
8161.65 349.814 351.759 2013.22 1999.21
8164.37 368.819 359.157 2038.61 1970.9
8167.1 358.837 366.737 1860.88 1981.77
8169.82 372.556 374.384 2045.82 1990.1
8172.55 391.759 387.931 2063.59 2108.8
8175.27 399.48 390.284 2216.99 2097.85
8178 379.613 377.186 2012.96 2082.83
8180.72 352.466 369.756 2018.55 2011.27
8183.45 377.19 372.989 2002.29 2038.07
8186.17 389.313 385.7 2093.37 2060.73
8188.89 390.597 378.478 2086.53 2063.02
8191.62 355.523 371.491 2009.16 2013.38
8194.34 368.353 371.911 1944.46 2048.56
8197.06 391.858 377.426 2192.06 2038.67
8199.78 372.066 381.091 1979.49 2101.97
8202.51 379.35 387.501 2134.36 2103.15
8205.23 411.085 398.392 2195.61 2181.5
8207.95 404.741 389.363 2214.55 2133.26
8210.67 352.264 379.321 1989.62 2100.28
8213.39 380.957 375.493 2096.66 2057.12
8216.11 393.259 370.87 2085.09 2052.13
8218.83 338.394 365.823 1974.62 2051.27
8221.55 365.817 354.342 2094.1 2010.53
8224.27 358.814 351.154 1962.86 1971.93
8226.99 328.83 345.205 1858.84 1930.31
8229.71 347.97 348.491 1969.22 1935.99
8232.43 368.674 367.512 1979.93 2021.05
8235.15 385.892 372.717 2114.02 2043.78
8237.87 363.587 375.65 2037.39 2055.24
8240.59 377.47 362.806 2014.32 1990.22
8243.31 347.362 360.95 1918.94 1969.97
8246.03 358.018 364.5 1976.64 2000.75
8248.75 388.12 379.669 2106.68 2080.44
8251.46 392.869 380.444 2158.02 2085.97
8254.18 360.342 362.88 1993.23 2002.28
8256.9 335.429 369.753 1855.61 2002.11
8259.62 413.489 378.346 2157.51 2021.46
8262.33 386.12 396.096 2051.27 2105.41
8265.05 388.681 378.283 2107.45 2064.13
8267.77 360.048 376.653 2033.68 2069.01
8270.48 381.23 366.29 2065.9 2017.5
8273.2 357.592 370.018 1952.92 2028.89
8275.91 371.231 363.506 2067.85 1987.7
8278.63 361.695 367.989 1942.35 2023.02
8281.34 371.043 371.769 2058.88 1945.52
8284.06 382.569 360.986 1835.34 1908.81
8286.77 329.346 359.904 1832.21 1878.8
8289.49 367.798 350.513 1968.84 1959.22
8292.2 354.395 355.06 2076.61 1982.27
8294.92 342.988 370.879 1901.38 1964.38
8297.63 415.253 386.092 1915.14 1957.39
8300.34 400.035 404.955 2055.65 2020.79
8303.06 399.578 372.01 2091.59 2016.39
8305.77 316.417 366.054 1901.94 2007.77
8308.48 382.166 346.689 2029.79 1937.39
8311.2 341.483 358.575 1880.43 1978.62
8313.91 352.074 357.992 2025.65 1980.17
8316.62 380.418 376.088 2034.42 2056.39
8319.33 395.773 390.75 2109.08 2085.51
8322.04 396.059 387.482 2113.03 2091.6
8324.75 370.613 367.402 2052.68 2007.27
8327.47 335.535 293.032 1856.1 1617.66
8330.18 172.947 229.387 944.199 1250.15
8332.89 179.68 168.258 950.141 927.368
8335.6 152.147 244.166 887.763 1325.19
8338.31 400.67 337.277 2137.67 1671.51
8341.02 459.016 407.152 1989.11 2003.68
8343.73 361.771 395.638 1884.26 1924.92
8346.44 366.129 363.919 1901.38 1900.35
8349.15 363.859 352.78 1915.42 1914.84
8351.85 328.352 354.702 1927.73 1957.51
8354.56 371.895 346.462 2029.39 1928.28
8357.27 339.14 361.885 1827.71 1917.89
8359.98 374.621 377.477 1896.57 1973.92
8362.69 418.672 387.847 2197.47 2056.54
8365.39 370.248 387.076 2075.57 2068.52
8368.1 372.308 375.613 1932.52 2028
8370.81 384.282 370.058 2075.92 1985.42
8373.52 353.585 366.131 1947.82 2019.72
8376.22 360.526 367.448 2035.43 1991.5
8378.93 388.233 363.564 1991.24 1947.69
8381.64 341.933 379.429 1816.4 1934.47
8384.34 408.122 372.842 1995.77 1897.45
8387.05 368.471 300.233 1880.19 1969.73
8389.75 124.106 198.779 2033.23 1972.98
8392.46 103.76 119.715 2005.51 2047.01
8395.16 131.28 123.823 2102.3 2012.39
8397.87 136.429 124.191 1929.35 2033.96
8400.57 104.865 117.768 2070.23 1942.8
8403.28 112.01 101.363 1828.83 1611.23
8405.98 87.214 90.2135 934.633 1272.12
8408.68 71.4168 98.6094 1052.9 1313.99
8411.39 137.197 104.415 1954.44 1625.93
8414.09 104.632 123.457 1870.45 1994.28
8416.79 128.542 107.29 2157.94 2041.88
8419.5 88.6946 119.867 2097.24 2091.54
8422.2 142.365 119.143 2019.45 2024.91
8424.9 126.369 118.715 1958.03 1934.17
8427.6 87.4093 121.823 1825.03 1974.34
8430.3 151.689 120.172 2139.96 1927.14
8433 121.418 117.426 1816.41 1918.76
8435.71 79.1697 102.001 1799.9 1886.24
8438.41 105.414 104.287 2042.41 1939.11
8441.11 128.277 121.68 1975 2006.43
8443.81 131.35 127.347 2001.87 2020.16
8446.51 122.415 136.27 2083.61 1967.08
8449.21 155.045 142.791 1815.77 1950.97
8451.91 150.914 146.735 1953.53 1895.46
8454.61 134.247 125.811 1917.06 1983.8
8457.31 92.2739 120.833 2080.79 1966.48
8460.01 135.979 136.677 1901.57 1953.99
8462.7 181.78 161.405 1879.61 1848.21
8465.4 166.456 171.654 1763.46 1844.11
8468.1 166.726 148.857 1889.27 1854.24
8470.8 113.388 136.343 1909.98 1910.35
8473.5 128.913 122.552 1931.8 1966.44
8476.19 125.354 132.033 2057.52 2012.03
8478.89 141.831 138.365 2046.77 2062.21
8481.59 147.911 154.889 2082.34 2078.58
8484.28 174.924 163.839 2106.64 2016.01
8486.98 168.682 169.501 1859.04 1962.25
8489.68 164.897 168.315 1921.06 1846.02
8492.37 171.365 162.068 1757.96 1819.79
8495.07 149.941 143.209 1780.35 1755.29
8497.76 108.32 126.877 1727.57 1757.42
8500.46 122.371 124.268 1764.35 1763.38
8503.15 142.114 138.122 1798.22 1805.84
8505.85 149.882 151.207 1854.95 1831.57
8508.54 161.624 145.192 1841.55 1866.59
8511.24 124.069 144.559 1903.26 1861.57
8513.93 147.985 140.363 1839.9 1918.34
8516.62 149.033 152.845 2011.87 1885.17
8519.32 161.518 159.443 1803.74 1908.55
8522.01 167.777 167.402 1910.04 1821.31
8524.7 172.911 160.35 1750.17 1894.73
8527.4 140.363 153.293 2023.97 1874.6
8530.09 146.604 145.615 1849.66 1880.24
8532.78 149.879 147.288 1767.1 1736.54
8535.47 145.38 143.983 1592.87 1588.69
8538.16 136.69 122.465 1406.08 1476.38
8540.85 85.3258 134.484 1430.19 1470.04
8543.54 181.436 142.951 1573.86 1582.41
8546.24 162.093 171.588 1743.2 1753.74
8548.93 171.237 162.833 1944.17 1886.42
8551.62 155.168 164.481 1971.89 1954.39
8554.31 167.039 162.065 1947.1 2028.98
8557 163.987 167.651 2167.95 2011.9
8559.69 171.926 172.113 1920.66 2042.82
8562.37 180.427 170.059 2039.87 1980.54
8565.06 157.824 175.543 1981.11 1981.12
8567.75 188.379 179.861 1922.38 1944.58
8570.44 193.379 194.561 1930.27 1996.18
8573.13 201.925 203.739 2135.91 2022.94
8575.82 215.913 197.183 2002.65 1972.13
8578.5 173.71 192.82 1777.82 1928.61
8581.19 188.837 192.15 2005.35 1897.45
8583.88 213.903 208.97 1909.17 1980.63
8586.57 224.169 214.268 2027.38 1995.3
8589.25 204.731 206.898 2049.34 2017.65
8591.94 191.794 185.504 1976.24 1954.87
8594.63 159.986 181.12 1839.02 1965.46
8597.31 191.579 196.616 2081.13 1951.99
8600 238.284 213.394 1935.82 1987.36
8602.68 210.32 212.807 1945.11 1963.3
8605.37 189.816 197.702 2008.97 2006.68
8608.05 192.971 183.708 2065.96 1975.39
8610.74 168.336 187.327 1851.23 1909.78
8613.42 200.673 182.677 1812.14 1860.94
8616.1 179.021 192.307 1919.45 1898.59
8618.79 197.227 203.067 1964.17 1943.79
8621.47 232.952 215.468 1947.74 1975.36
8624.16 216.226 209.294 2014.16 1941.58
8626.84 178.703 196.303 1862.84 1961.44
8629.52 193.98 194.953 2007.32 1908.5
8632.2 212.177 206.491 1855.35 1875.48
8634.89 213.318 214.032 1763.76 1883.09
8637.57 216.6 146.415 2030.15 1940.96
8640.25 9.32591 78.8666 2028.96 1958.89
8642.93 10.6735 24.8794 1817.56 1864.58
8645.61 54.6389 36.6739 1747.21 1801.56
8648.29 44.7095 27.1338 1839.93 1878.83
8650.97 -17.947 11.828 2049.37 1915.18
8653.65 8.72133 9.03824 1856.26 1881.47
8656.33 36.3403 18.9862 1738.77 1643.68
8659.01 11.897 10.8956 1336.01 1498.49
8661.69 -15.5504 0.220044 1420.69 1437.8
8664.37 4.31356 5.53979 1556.71 1580
8667.05 27.8562 21.4629 1762.61 1673.67
8669.73 32.2189 29.0887 1701.68 1768.99
8672.41 27.1909 22.5667 1842.68 1822.96
8675.09 8.29032 14.0772 1924.51 1845.61
8677.76 6.75045 11.4288 1769.65 1844.65
8680.44 19.2458 14.9114 1839.78 1864.51
8683.12 18.738 19.6871 1984.11 1908.13
8685.8 21.0776 20.4549 1900.51 1930.27
8688.47 21.549 17.919 1906.2 1888.85
8691.15 11.1303 15.2233 1859.85 1947.4
8693.83 12.9907 11.591 2076.13 1935.54
8696.5 10.6519 23.0922 1870.63 1961.03
8699.18 45.6339 17.1554 1936.32 1884.99
8701.85 -4.81962 18.5769 1848.02 1882.31
8704.53 14.9163 18.0303 1862.59 1890.81
8707.2 43.9943 34.1174 1961.81 1946.23
8709.88 43.4417 35.155 2014.28 1952.61
8712.55 18.0289 19.1891 1881.73 1959.87
8715.23 -3.90338 8.48861 1983.59 1948.4
8717.9 11.3403 17.4643 1979.89 1967.42
8720.58 44.9561 29.7727 1938.77 1897.07
8723.25 33.0218 41.8923 1772.54 1854.42
8725.92 47.6991 40.3147 1851.94 1787.95
8728.6 40.2231 36.1727 1739.36 1835.67
8731.27 20.5959 27.476 1915.71 1849.8
8733.94 21.6091 27.7676 1894.32 1840.46
8736.61 41.0978 27.8804 1711.36 1835.12
8739.28 20.9343 28.1557 1899.69 1824.24
8741.96 22.435 19.8698 1861.68 1937.07
8744.63 16.2402 20.9174 2049.83 1935.65
8747.3 24.077 25.7761 1895.44 1910.91
8749.97 37.0111 28.512 1787.46 1827.22
8752.64 24.448 32.7906 1798.74 1788.49
8755.31 36.9128 26.7726 1779.25 1779.18
8757.98 18.957 26.416 1759.53 1800.1
8760.65 23.3783 10.4365 1861.5 1876.91
8763.32 -11.0259 35.218 2009.69 1820.82
8765.99 93.3016 21.6635 1591.28 1812.34
8768.66 -17.285 34.7965 1836.06 1746.12
8771.33 28.373 3.56146 1811.01 1776.59
8773.99 -0.403551 11.4778 1682.69 1827.1
8776.66 6.46397 2.32914 1987.59 1831.92
8779.33 0.927 4.06943 1825.47 1904.81
8782 4.81731 -17.4594 1901.37 1814.45
8784.66 -58.1225 -13.4254 1716.5 1794.69
8787.33 13.0291 -13.5291 1766.19 1752.3
8790 4.50592 8.78982 1774.21 1776.97
8792.66 8.83439 18.9363 1790.52 1734.47
8795.33 43.4687 24.8226 1638.68 1743.5
8798 22.1646 34.6707 1801.29 1819.29
8800.66 38.3787 24.7766 2017.9 1830.97
8803.33 13.7863 29.6096 1673.72 1744.4
8805.99 36.6636 30.8457 1541.59 1601.33
8808.66 42.0872 31.0462 1588.69 1646.8
8811.32 14.3877 33.2659 1810.11 1718.6
8813.99 43.3227 37.0822 1757.01 1776.02
8816.65 53.5362 47.4798 1760.94 1821.12
8819.31 45.5803 44.4082 1945.43 1824.15
8821.98 34.1081 30.8723 1766.07 1804.76
8824.64 12.9286 36.162 1702.77 1657.21
8827.3 61.4493 28.4888 1502.8 1580.99
8829.97 11.0885 -6.18614 1537.41 1591.04
8832.63 -91.0962 -33.932 1732.92 1772.98
8835.29 -21.7883 -13.9905 2048.59 1763.7
8837.95 70.9131 43.3694 1509.58 1787.17
8840.61 80.9833 55.1915 1803.34 1711.14
8843.28 13.6782 45.5298 1820.52 1841.82
8845.94 41.9278 25.779 1901.59 1835.34
8848.6 21.7309 21.407 1783.9 1826.47
8851.26 0.562103 25.1779 1793.93 1723.67
8853.92 53.2406 40.4155 1593.18 1730.64
8856.58 67.4439 54.1009 1804.82 1675.89
8859.24 41.6182 36.9278 1629.67 1719.23
8861.9 1.72146 3.73068 1723.2 1676.94
8864.56 -32.1476 1.99809 1677.95 1661.67
8867.21 36.4204 -6.29356 1583.87 1642.52
8869.87 -23.1535 10.3656 1665.74 1645.56
8872.53 17.83 0.093626 1687.05 1665.86
8875.19 5.60438 3.54246 1644.79 1657.91
8877.85 -12.807 -0.0753453 1641.89 1617.28
8880.5 6.9766 -0.547341 1565.16 1649.36
8883.16 4.18839 10.6321 1741.04 1715.97
8885.82 20.7312 15.7819 1841.7 1772.87
8888.47 22.4262 10.1264 1735.86 1828.97
8891.13 -12.7781 -4.14895 1909.35 1727.11
8893.79 -22.0949 -9.68219 1536.12 1627.8
8896.44 5.8265 1.32668 1437.93 1551.16
8899.1 20.2485 14.8275 1679.45 1603.19
8901.75 18.4076 11.0098 1692.2 1717.14
8904.41 -5.62675 18.757 1779.77 1689.41
8907.06 43.4903 14.7066 1596.25 1577.97
8909.72 6.25626 2.3184 1357.9 1474.42
8912.37 -42.7913 -9.88502 1469.1 1380.53
8915.03 6.88001 10.6424 1314.6 1453.05
8917.68 67.8384 36.3689 1575.46 1510.45
8920.33 34.3884 41.4767 1641.28 1623.41
8922.98 22.2034 16.3337 1653.49 1505.75
8925.64 -7.59063 7.65556 1222.47 1179.44
8928.29 8.35389 0.524594 662.338 959.157
8930.94 0.810519 9.44511 992.659 985.205
8933.59 19.1709 14.8841 1300.62 1307.94
8936.25 24.6708 25.9954 1630.54 1490.81
8938.9 34.1446 24.9766 1541.27 1606.12
8941.55 16.1144 14.8607 1646.55 1576.66
8944.2 -5.67693 10.4658 1542.17 1595.95
8946.85 20.9599 7.68569 1599.13 1469.37
8949.5 7.77413 10.4552 1266.79 1448.28
8952.15 2.63147 -9.4112 1478.92 1365.7
8954.8 -38.6392 3.1233 1351.4 1511.12
8957.45 45.3776 0.230446 1703.05 1535.31
8960.1 -6.0471 39.4716 1551.49 1493.16
8962.75 79.0841 17.1463 1224.93 1336.46
8965.39 -21.5981 26.7282 1232.96 1113.41
8968.04 22.6986 3.55693 882.342 1179.61
8970.69 9.57035 10.6578 1423.51 1242.77
8973.34 -0.295501 2.74138 1422.46 1433.96
8975.99 -1.05071 3.07312 1455.91 1449.29
8978.63 10.5656 6.90564 1469.5 1462.07
8981.28 11.2021 4.59944 1460.81 1429.76
8983.93 -7.96931 5.03472 1358.97 1426.69
8986.57 11.8714 4.23961 1460.3 1461.58
8989.22 8.81676 11.9806 1565.47 1426.29
8991.86 15.2538 11.4839 1253.1 1383.82
8994.51 10.381 6.59065 1332.89 1292.04
8997.15 -5.8629 8.7908 1290.15 1331.01
8999.8 21.8543 15.028 1370 1502.79
9002.44 29.0926 1.92561 1848.23 1535.71
9005.09 -45.17 1.14149 1388.91 1490.36
9007.73 19.5019 -8.48032 1233.94 1259.61
9010.38 0.227165 5.94245 1155.99 1184.65
9013.02 -1.90172 -1.26418 1164.02 1209.89
9015.66 -2.118 -7.00184 1309.65 1286.37
9018.3 -16.9858 -6.69506 1385.44 1367.72
9020.95 -0.98139 0.619435 1408.07 1407.81
9023.59 19.8255 4.52792 1429.93 1396.72
9026.23 -5.26035 2.32639 1352.16 1426.86
9028.87 -7.58598 0.767208 1498.47 1447.38
9031.51 15.148 4.0728 1491.5 1499.54
9034.16 4.65642 8.23634 1508.63 1520.27
9036.8 4.90465 9.41383 1560.66 1521.98
9039.44 18.6804 3.74078 1496.65 1505.7
9042.08 -12.3627 8.30386 1459.79 1439.35
9044.72 18.5939 8.00932 1361.63 1468.35
9047.36 17.7968 15.9513 1583.65 1484.08
9050 11.4633 16.0954 1506.96 1503.59
9052.64 19.0261 6.59394 1420.18 1431.34
9055.27 -10.7077 3.9611 1366.87 1323.82
9057.91 3.56482 0.859 1184.41 1234.75
9060.55 9.71983 5.42013 1152.98 1222.35
9063.19 2.97573 2.9926 1329.66 1254.94
9065.83 -3.71777 -0.46239 1282.17 1323.18
9068.46 -0.645135 -1.98139 1357.71 1342.6
9071.1 -1.58125 2.02232 1387.93 1360.62
9073.74 8.29336 9.29194 1336.21 1244.63
9076.37 21.1637 13.8179 1009.75 1009.93
9079.01 11.9967 11.0535 683.815 564.523
