wavelength spec_sum
3529.22 23.1015
3532.14 34.1849
3535.05 25.1429
3537.96 31.3571
3540.88 35.2936
3543.79 26.8041
3546.7 33.4876
3549.62 41.7961
3552.53 32.1169
3555.45 30.9036
3558.36 33.3849
3561.27 38.7157
3564.19 32.91
3567.1 22.6517
3570.02 27.5147
3572.93 26.1898
3575.84 28.3583
3578.76 30.2744
3581.67 26.7246
3584.58 23.4561
3587.5 27.2811
3590.41 25.4062
3593.33 36.7832
3596.24 35.5061
3599.15 37.1056
3602.07 31.077
3604.98 27.4285
3607.9 25.1011
3610.81 34.1094
3613.72 34.0416
3616.64 30.202
3619.55 33.3006
3622.46 40.4293
3625.38 37.0049
3628.29 47.2977
3631.2 35.5263
3634.12 36.8037
3637.03 42.889
3639.95 34.2222
3642.86 31.8515
3645.77 34.8809
3648.69 35.9381
3651.6 36.9105
3654.51 36.0976
3657.43 35.4877
3660.34 37.948
3663.25 35.6473
3666.17 36.8059
3669.08 38.4159
3672 30.7675
3674.91 36.5952
3677.82 39.4774
3680.74 31.5829
3683.65 31.3049
3686.56 37.7498
3689.48 32.0394
3692.39 36.0817
3695.3 36.3352
3698.22 38.6046
3701.13 30.8182
3704.04 37.4675
3706.96 39.5339
3709.87 43.5204
3712.78 41.2332
3715.7 35.263
3718.61 37.1726
3721.52 39.2587
3724.44 30.8704
3727.35 30.5574
3730.26 41.1703
3733.18 32.0949
3736.09 39.9616
3739 29.3635
3741.92 36.3881
3744.83 36.1673
3747.74 35.1997
3750.66 39.3783
3753.57 37.9659
3756.48 33.7195
3759.4 38.9145
3762.31 41.1858
3765.22 34.4081
3768.14 34.7785
3771.05 44.3891
3773.96 39.3166
3776.88 41.8542
3779.79 41.9694
3782.7 44.5327
3785.61 49.9745
3788.53 37.4594
3791.44 40.1316
3794.35 37.6011
3797.27 40.9973
3800.18 41.3951
3803.09 47.7258
3806.01 40.7494
3808.92 41.3919
3811.83 48.7304
3814.74 47.4361
3817.66 43.8219
3820.57 42.1413
3823.48 38.637
3826.4 39.8533
3829.31 34.0777
3832.22 33.9632
3835.13 35.7555
3838.05 37.6396
3840.96 38.933
3843.87 43.3838
3846.78 44.7098
3849.7 40.5936
3852.61 41.981
3855.52 34.9625
3858.44 42.1724
3861.35 36.876
3864.26 41.5744
3867.17 38.1202
3870.09 39.8904
3873 38.1826
3875.91 35.4203
3878.82 41.0777
3881.74 36.2309
3884.65 31.3691
3887.56 41.0353
3890.47 38.2188
3893.39 39.7307
3896.3 39.2458
3899.21 40.7691
3902.12 39.6277
3905.03 44.4239
3907.95 39.6024
3910.86 44.0407
3913.77 43.656
3916.68 38.616
3919.6 37.7303
3922.51 34.6559
3925.42 35.9558
3928.33 33.7238
3931.24 31.0298
3934.16 29.348
3937.07 36.0549
3939.98 33.0956
3942.89 40.2405
3945.8 37.4011
3948.72 39.0049
3951.63 40.9276
3954.54 39.7733
3957.45 35.8214
3960.36 35.4322
3963.28 29.494
3966.19 31.2325
3969.1 33.463
3972.01 37.3574
3974.92 43.4272
3977.84 42.4496
3980.75 42.9427
3983.66 44.6589
3986.57 51.3396
3989.48 48.6696
3992.39 55.0676
3995.31 60.2778
3998.22 54.2162
4001.13 51.2352
4004.04 50.8707
4006.95 56.2875
4009.86 57.3494
4012.77 56.2371
4015.69 56.7312
4018.6 58.1412
4021.51 58.7178
4024.42 57.1447
4027.33 59.1889
4030.24 61.8058
4033.15 58.5962
4036.07 53.728
4038.98 64.1361
4041.89 47.8335
4044.8 55.906
4047.71 62.7618
4050.62 54.6065
4053.53 60.638
4056.44 54.3303
4059.35 61.9699
4062.27 51.498
4065.18 59.3717
4068.09 56.4791
4071 55.2328
4073.91 55.1954
4076.82 52.5216
4079.73 52.5395
4082.64 56.0553
4085.55 50.5523
4088.46 63.1491
4091.37 62.8337
4094.29 58.048
4097.2 60.3821
4100.11 58.6841
4103.02 58.7251
4105.93 53.4586
4108.84 60.1412
4111.75 59.5978
4114.66 53.309
4117.57 54.5814
4120.48 62.4766
4123.39 62.4805
4126.3 62.0596
4129.21 56.0159
4132.12 61.193
4135.03 63.1562
4137.94 63.2052
4140.85 58.0606
4143.76 64.6505
4146.67 62.6953
4149.58 58.3237
4152.49 64.3348
4155.4 61.557
4158.31 63.2962
4161.22 63.7708
4164.13 60.1082
4167.04 56.4198
4169.95 62.7108
4172.86 62.5502
4175.77 65.0964
4178.68 57.4488
4181.59 58.132
4184.5 55.2123
4187.41 56.9776
4190.32 65.5593
4193.23 59.9933
4196.14 58.12
4199.05 57.6943
4201.96 58.0864
4204.87 55.4856
4207.78 62.2375
4210.69 53.7884
4213.6 60.4126
4216.51 53.1007
4219.42 61.1195
4222.33 55.4885
4225.24 52.1589
4228.15 56.5668
4231.05 56.111
4233.96 61.3986
4236.87 54.3738
4239.78 59.3242
4242.69 51.5992
4245.6 50.6767
4248.51 61.6638
4251.42 62.1079
4254.33 53.4045
4257.24 57.8995
4260.15 57.4046
4263.05 57.8597
4265.96 56.2727
4268.87 55.9573
4271.78 56.5436
4274.69 54.294
4277.6 60.6471
4280.51 57.5037
4283.42 54.2015
4286.32 52.0773
4289.23 55.3176
4292.14 54.1564
4295.05 50.2983
4297.96 48.2028
4300.87 50.2808
4303.77 44.1198
4306.68 47.9813
4309.59 49.5346
4312.5 53.8113
4315.41 56.3811
4318.32 56.0221
4321.22 52.6932
4324.13 55.6573
4327.04 59.6192
4329.95 58.3604
4332.86 55.1855
4335.76 55.0242
4338.67 62.6904
4341.58 60.3473
4344.49 59.8272
4347.39 60.2419
4350.3 59.7101
4353.21 59.7593
4356.12 59.9894
4359.03 55.5674
4361.93 59.4111
4364.84 56.2836
4367.75 60.5657
4370.66 57.9648
4373.56 57.4086
4376.47 55.508
4379.38 56.2833
4382.28 52.701
4385.19 58.998
4388.1 59.5008
4391.01 56.9105
4393.91 59.9356
4396.82 62.1814
4399.73 59.4407
4402.63 56.2137
4405.54 59.4888
4408.45 65.5146
4411.36 64.2224
4414.26 61.4302
4417.17 63.6152
4420.08 62.7717
4422.98 60.4226
4425.89 64.8
4428.8 65.2939
4431.7 58.4216
4434.61 66.1654
4437.51 63.1746
4440.42 63.4265
4443.33 66.4706
4446.23 66.6856
4449.14 69.3361
4452.05 66.4429
4454.95 67.1067
4457.86 63.4798
4460.76 64.4167
4463.67 63.3326
4466.58 65.9607
4469.48 64.6591
4472.39 65.6569
4475.29 66.4182
4478.2 68.6296
4481.11 65.0239
4484.01 62.8877
4486.92 70.3782
4489.82 68.157
4492.73 65.8881
4495.63 67.0182
4498.54 70.2529
4501.45 72.9034
4504.35 72.535
4507.26 69.5444
4510.16 66.3564
4513.07 68.2088
4515.97 68.8807
4518.88 70.5185
4521.78 61.5278
4524.69 66.5854
4527.59 63.7246
4530.5 64.7071
4533.4 63.9915
4536.31 64.5574
4539.21 65.4531
4542.12 63.4616
4545.02 67.1921
4547.93 66.486
4550.83 67.8309
4553.74 69.3594
4556.64 69.4717
4559.55 66.9924
4562.45 66.298
4565.35 70.0064
4568.26 69.1677
4571.16 72.2455
4574.07 67.4625
4576.97 65.6761
4579.88 71.2486
4582.78 67.8215
4585.68 68.5793
4588.59 66.8037
4591.49 64.5021
4594.4 69.7976
4597.3 64.4939
4600.2 66.9322
4603.11 72.6773
4606.01 72.7729
4608.91 71.1043
4611.82 73.0794
4614.72 72.5084
4617.62 64.9968
4620.53 68.3492
4623.43 68.6576
4626.33 75.2055
4629.24 68.7556
4632.14 67.8364
4635.04 64.5382
4637.95 65.3835
4640.85 63.8499
4643.75 68.0914
4646.66 70.0147
4649.56 66.5143
4652.46 68.3011
4655.37 67.6577
4658.27 71.2708
4661.17 70.91
4664.07 65.8809
4666.98 66.961
4669.88 69.0311
4672.78 65.569
4675.68 68.2638
4678.59 57.1321
4681.49 61.7356
4684.39 64.3174
4687.29 60.9543
4690.2 61.5538
4693.1 59.8129
4696 57.4562
4698.9 56.073
4701.8 60.2912
4704.7 59.0822
4707.61 62.7266
4710.51 62.7574
4713.41 60.5932
4716.31 60.9946
4719.21 64.9452
4722.12 60.8099
4725.02 63.2777
4727.92 60.3046
4730.82 60.1165
4733.72 61.6948
4736.62 61.5147
4739.52 60.8174
4742.42 63.2866
4745.33 63.4754
4748.23 63.8239
4751.13 62.144
4754.03 60.401
4756.93 62.6836
4759.83 59.613
4762.73 64.5095
4765.63 61.7504
4768.53 58.6352
4771.43 60.8986
4774.33 62.6434
4777.23 63.6886
4780.13 62.8581
4783.03 60.2007
4785.93 62.2418
4788.83 57.6262
4791.73 61.5828
4794.63 60.543
4797.53 59.9695
4800.43 57.4537
4803.33 58.4403
4806.23 59.9361
4809.13 59.9752
4812.03 58.4196
4814.93 59.9033
4817.83 60.6793
4820.73 59.1277
4823.63 63.842
4826.53 62.6251
4829.43 58.1818
4832.33 61.3152
4835.23 59.2178
4838.13 61.6776
4841.03 61.2449
4843.93 61.0362
4846.83 64.0607
4849.72 59.7834
4852.62 63.6329
4855.52 57.4128
4858.42 57.878
4861.32 54.1119
4864.22 60.1974
4867.12 63.1025
4870.02 59.6156
4872.91 57.5361
4875.81 62.6715
4878.71 64.7455
4881.61 63.9805
4884.51 62.5884
4887.4 64.2772
4890.3 66.5068
4893.2 68.6553
4896.1 64.0603
4899 66.6578
4901.89 60.4798
4904.79 65.7269
4907.69 64.5653
4910.59 65.4094
4913.48 66.0217
4916.38 64.5477
4919.28 64.0142
4922.18 65.2709
4925.07 61.5675
4927.97 64.6403
4930.87 61.6179
4933.77 62.244
4936.66 64.5244
4939.56 60.8803
4942.46 64.5911
4945.35 59.975
4948.25 65.1776
4951.15 62.502
4954.04 57.2851
4956.94 62.114
4959.84 66.1868
4962.73 64.1234
4965.63 62.6791
4968.52 61.1
4971.42 61.8192
4974.32 60.7226
4977.21 61.4052
4980.11 58.7697
4983 63.3223
4985.9 59.2753
4988.8 58.6632
4991.69 61.1196
4994.59 59.2392
4997.48 62.6858
5000.38 61.6702
5003.27 61.1247
5006.17 58.9413
5009.06 60.0476
5011.96 60.5433
5014.86 62.7144
5017.75 60.8367
5020.65 61.1859
5023.54 59.4779
5026.43 64.5426
5029.33 62.4641
5032.22 58.6721
5035.12 62.2653
5038.01 63.1245
5040.91 63.2538
5043.8 60.7616
5046.7 63.7853
5049.59 61.3519
5052.49 63.7615
5055.38 61.8974
5058.27 64.7602
5061.17 63.3836
5064.06 65.7832
5066.96 63.7691
5069.85 62.5963
5072.74 61.403
5075.64 62.9486
5078.53 63.7618
5081.42 61.7444
5084.32 64.4156
5087.21 59.4846
5090.1 59.8088
5093 62.5396
5095.89 61.7793
5098.78 60.3346
5101.68 60.6089
5104.57 62.0063
5107.46 59.7273
5110.35 63.4203
5113.25 62.902
5116.14 61.2049
5119.03 63.6716
5121.92 62.4895
5124.82 60.0173
5127.71 61.4505
5130.6 59.488
5133.49 61.6346
5136.39 60.7565
5139.28 60.0074
5142.17 59.019
5145.06 62.1746
5147.95 63.7223
5150.84 65.8388
5153.74 65.7796
5156.63 70.0652
5159.52 64.6262
5162.41 60.0504
5165.3 59.3032
5168.19 60.6532
5171.08 62.2476
5173.97 63.0413
5176.87 58.8019
5179.76 62.994
5182.65 61.6479
5185.54 58.7863
5188.43 62.8714
5191.32 64.319
5194.21 69.0019
5197.1 66.3236
5199.99 66.5506
5202.88 65.1106
5205.77 66.3013
5208.66 65.6298
5211.55 70.2109
5214.44 65.9933
5217.33 75.9499
5220.22 69.6081
5223.11 67.9435
5226 69.5636
5228.89 70.0722
5231.78 69.9273
5234.67 71.5578
5237.56 70.5651
5240.45 72.0769
5243.34 68.3309
5246.22 71.4724
5249.11 74.093
5252 72.6381
5254.89 72.4321
5257.78 71.2477
5260.67 68.9612
5263.56 70.3362
5266.45 67.533
5269.33 67.646
5272.22 67.6475
5275.11 73.2607
5278 68.7782
5280.89 72.4455
5283.77 66.5032
5286.66 74.5069
5289.55 70.7844
5292.44 69.4101
5295.33 70.6137
5298.21 68.8373
5301.1 71.0371
5303.99 69.9578
5306.88 74.2826
5309.76 69.8372
5312.65 70.1039
5315.54 73.7711
5318.42 72.2692
5321.31 71.6887
5324.2 69.2405
5327.08 68.76
5329.97 70.812
5332.86 72.3621
5335.74 69.6673
5338.63 69.1324
5341.52 69.9212
5344.4 71.8871
5347.29 71.6009
5350.17 73.2474
5353.06 74.0106
5355.95 74.8599
5358.83 72.7414
5361.72 69.8717
5364.6 69.6702
5367.49 70.8199
5370.37 71.6137
5373.26 71.4403
5376.15 73.3106
5379.03 76.1384
5381.92 72.2094
5384.8 73.0803
5387.69 72.2291
5390.57 71.846
5393.45 71.7945
5396.34 72.7984
5399.22 69.9638
5402.11 68.9125
5404.99 69.9953
5407.88 72.0269
5410.76 70.7783
5413.65 74.2207
5416.53 72.0524
5419.41 70.3338
5422.3 71.5796
5425.18 72.6705
5428.06 69.4621
5430.95 66.3384
5433.83 73.2183
5436.71 69.8743
5439.6 72.6058
5442.48 66.837
5445.36 72.5327
5448.25 70.4523
5451.13 70.4276
5454.01 70.4039
5456.9 70.5377
5459.78 68.4664
5462.66 71.7778
5465.54 70.3065
5468.43 71.436
5471.31 71.8267
5474.19 70.8528
5477.07 69.2164
5479.95 68.139
5482.84 67.0942
5485.72 70.8383
5488.6 71.068
5491.48 71.5017
5494.36 70.2753
5497.24 74.9855
5500.12 73.2064
5503.01 71.1015
5505.89 69.5502
5508.77 71.1513
5511.65 70.4158
5514.53 69.7857
5517.41 72.0392
5520.29 71.0653
5523.17 67.1386
5526.05 67.9589
5528.93 71.1537
5531.81 69.527
5534.69 67.4878
5537.57 72.7428
5540.45 72.067
5543.33 70.568
5546.21 67.8459
5549.09 69.4261
5551.97 73.0422
5554.85 72.3981
5557.73 69.7661
5560.61 71.8171
5563.49 69.5777
5566.37 70.929
5569.25 70.2915
5572.13 72.4118
5575.01 70.1663
5577.88 73.1991
5580.76 68.6645
5583.64 67.1476
5586.52 68.9153
5589.4 67.8565
5592.28 73.4288
5595.15 71.9254
5598.03 69.1565
5600.91 72.5782
5603.79 74.8173
5606.67 72.0829
5609.54 69.1241
5612.42 69.2067
5615.3 68.5513
5618.18 67.9882
5621.05 72.2418
5623.93 69.1033
5626.81 67.2796
5629.68 72.3021
5632.56 72.4188
5635.44 70.8186
5638.31 68.7342
5641.19 67.6646
5644.07 71.7177
5646.94 69.0814
5649.82 69.6092
5652.7 69.5657
5655.57 70.5177
5658.45 67.109
5661.32 70.307
5664.2 69.237
5667.08 67.5922
5669.95 69.8646
5672.83 71.9339
5675.7 71.7953
5678.58 67.9767
5681.45 67.8614
5684.33 66.6401
5687.2 67.2264
5690.08 72.5622
5692.95 69.3927
5695.83 69.0784
5698.7 73.9689
5701.57 65.0421
5704.45 73.464
5707.32 66.3617
5710.2 68.3221
5713.07 68.5876
5715.95 68.8369
5718.82 70.8447
5721.69 64.9695
5724.57 70.6009
5727.44 74.7656
5730.31 69.9072
5733.19 70.7939
5736.06 73.3154
5738.93 70.1183
5741.81 68.6743
5744.68 71.2787
5747.55 72.0437
5750.42 69.8844
5753.3 67.2158
5756.17 72.4046
5759.04 68.1779
5761.91 71.1226
5764.78 67.1845
5767.66 69.4355
5770.53 70.3868
5773.4 72.7821
5776.27 70.721
5779.14 69.9674
5782.01 67.7497
5784.89 69.6133
5787.76 69.837
5790.63 69.6612
5793.5 66.449
5796.37 71.5044
5799.24 66.0094
5802.11 70.6314
5804.98 69.4449
5807.85 68.9849
5810.72 70.7397
5813.59 70.9867
5816.46 69.614
5819.33 71.8261
5822.2 67.3252
5825.07 73.9994
5827.94 73.6956
5830.81 68.6718
5833.68 64.6738
5836.55 59.6793
5839.42 65.4587
5842.29 64.2502
5845.16 62.2386
5848.03 62.88
5850.9 62.9107
5853.76 64.2873
5856.63 63.1672
5859.5 62.3273
5862.37 65.1617
5865.24 63.4321
5868.11 61.965
5870.97 62.0337
5873.84 60.8164
5876.71 63.3347
5879.58 57.4501
5882.44 57.8517
5885.31 58.161
5888.18 53.933
5891.05 60.7407
5893.91 59.3178
5896.78 57.3024
5899.65 60.0612
5902.51 61.7641
5905.38 61.3724
5908.25 57.2857
5911.11 59.8202
5913.98 65.3441
5916.85 62.0096
5919.71 58.9457
5922.58 62.2968
5925.44 61.1633
5928.31 61.364
5931.17 58.3472
5934.04 65.0149
5936.91 59.9682
5939.77 61.3176
5942.64 63.2356
5945.5 61.0935
5948.37 60.8683
5951.23 62.8187
5954.1 63.1827
5956.96 63.0362
5959.82 61.2206
5962.69 59.8383
5965.55 61.6591
5968.42 64.5427
5971.28 62.6133
5974.14 63.7331
5977.01 64.8934
5979.87 62.7772
5982.74 63.472
5985.6 61.7865
5988.46 61.7873
5991.32 60.285
5994.19 60.336
5997.05 61.3735
5999.91 61.0432
6002.78 59.3374
6005.64 61.1097
6008.5 63.1398
6011.36 59.4295
6014.23 60.1486
6017.09 59.8846
6019.95 57.6407
6022.81 58.4713
6025.67 59.2979
6028.53 62.8082
6031.4 62.5982
6034.26 62.2999
6037.12 62.8425
6039.98 57.0725
6042.84 63.7976
6045.7 61.648
6048.56 59.973
6051.42 61.6737
6054.28 61.7492
6057.14 62.4519
6060 61.738
6062.86 59.2379
6065.72 61.9313
6068.58 61.5625
6071.44 57.2414
6074.3 62.3748
6077.16 63.2129
6080.02 60.7034
6082.88 60.5625
6085.74 63.0248
6088.6 61.8304
6091.46 60.3017
6094.32 61.5756
6097.17 58.3097
6100.03 59.8897
6102.89 61.4764
6105.75 61.3393
6108.61 60.884
6111.47 60.9885
6114.32 66.3944
6117.18 59.6915
6120.04 61.6606
6122.9 61.5942
6125.75 58.5133
6128.61 59.283
6131.47 59.1671
6134.32 61.3146
6137.18 58.1737
6140.04 59.6887
6142.9 56.3771
6145.75 58.6566
6148.61 61.9119
6151.46 60.5908
6154.32 58.4273
6157.18 59.508
6160.03 56.8192
6162.89 57.0709
6165.74 57.4199
6168.6 57.0111
6171.45 57.2337
6174.31 62.1308
6177.16 58.6317
6180.02 58.22
6182.87 60.2661
6185.73 58.046
6188.58 56.7909
6191.44 62.7189
6194.29 57.8017
6197.15 64.163
6200 61.0207
6202.85 62.3033
6205.71 63.9048
6208.56 62.5707
6211.41 63.1282
6214.27 63.5632
6217.12 61.3807
6219.97 63.0906
6222.83 62.2425
6225.68 64.1365
6228.53 65.2202
6231.39 64.0311
6234.24 65.8712
6237.09 62.2832
6239.94 61.1832
6242.79 64.0878
6245.65 61.7822
6248.5 62.2795
6251.35 67.4041
6254.2 66.996
6257.05 67.3804
6259.9 65.5662
6262.75 66.0133
6265.61 61.3706
6268.46 68.4242
6271.31 66.0731
6274.16 66.0358
6277.01 61.4705
6279.86 65.1989
6282.71 61.8342
6285.56 68.4075
6288.41 63.859
6291.26 65.6759
6294.11 66.1031
6296.96 69.9207
6299.81 66.1269
6302.66 66.1798
6305.51 69.9661
6308.35 64.6993
6311.2 65.5201
6314.05 62.6531
6316.9 65.1721
6319.75 64.7574
6322.6 66.5217
6325.44 67.9087
6328.29 64.974
6331.14 65.0109
6333.99 62.8279
6336.84 64.8758
6339.68 64.2058
6342.53 62.4693
6345.38 68.617
6348.23 65.5143
6351.07 67.1051
6353.92 61.2488
6356.77 65.629
6359.61 64.4733
6362.46 64.7562
6365.3 65.2362
6368.15 65.6938
6371 65.4632
6373.84 66.3098
6376.69 66.4538
6379.53 64.4099
6382.38 66.6249
6385.22 66.0724
6388.07 66.3086
6390.91 64.473
6393.76 64.6895
6396.6 66.0177
6399.45 68.993
6402.29 66.1337
6405.14 68.8786
6407.98 67.4415
6410.82 68.0334
6413.67 66.2887
6416.51 64.2946
6419.36 66.492
6422.2 69.86
6425.04 64.7484
6427.89 64.84
6430.73 68.3815
6433.57 63.5301
6436.41 66.3479
6439.26 69.1261
6442.1 65.4441
6444.94 65.963
6447.78 66.2024
6450.63 66.36
6453.47 68.0841
6456.31 63.7174
6459.15 66.8083
6461.99 69.3872
6464.83 67.0129
6467.67 64.7516
6470.51 65.6989
6473.36 66.5404
6476.2 67.1231
6479.04 63.3712
6481.88 66.2593
6484.72 62.4594
6487.56 64.7907
6490.4 64.2981
6493.24 63.3199
6496.08 59.2791
6498.92 66.0911
6501.76 63.1167
6504.59 65.1925
6507.43 65.0249
6510.27 66.1335
6513.11 62.9193
6515.95 65.2875
6518.79 66.1152
6521.63 63.7557
6524.47 64.5179
6527.3 69.799
6530.14 63.1653
6532.98 68.1013
6535.82 66.1345
6538.65 64.1633
6541.49 62.2966
6544.33 62.7824
6547.17 64.8093
6550 62.9042
6552.84 61.9162
6555.68 65.5393
6558.51 57.2811
6561.35 57.5986
6564.18 58.3003
6567.02 62.0261
6569.86 63.2693
6572.69 66.9159
6575.53 62.7196
6578.36 67.836
6581.2 62.8453
6584.03 64.0552
6586.87 65.7793
6589.7 63.438
6592.54 65.247
6595.37 60.5475
6598.21 66.1529
6601.04 62.9548
6603.87 61.9751
6606.71 66.1037
6609.54 63.6223
6612.37 64.542
6615.21 63.5141
6618.04 61.1554
6620.87 61.8793
6623.71 65.692
6626.54 63.5093
6629.37 64.7394
6632.2 64.2277
6635.04 60.2993
6637.87 63.3794
6640.7 62.8367
6643.53 62.5125
6646.36 64.8409
6649.2 62.9282
6652.03 65.6334
6654.86 64.5655
6657.69 64.1891
6660.52 63.0494
6663.35 64.435
6666.18 67.1087
6669.01 65.3375
6671.84 66.603
6674.67 61.8138
6677.5 62.6274
6680.33 63.321
6683.16 63.7185
6685.99 63.8358
6688.82 61.0138
6691.65 64.0982
6694.48 62.7217
6697.31 62.3928
6700.14 64.4522
6702.97 67.3349
6705.79 64.3336
6708.62 67.2976
6711.45 63.8584
6714.28 65.1157
6717.11 67.0831
6719.93 62.6917
6722.76 64.3008
6725.59 64.9714
6728.42 63.8161
6731.24 68.0332
6734.07 66.0522
6736.9 65.9288
6739.72 62.2383
6742.55 64.8363
6745.38 62.9902
6748.2 62.3431
6751.03 65.6012
6753.85 66.7094
6756.68 64.3449
6759.5 61.5796
6762.33 65.5391
6765.15 64.7411
6767.98 62.6499
6770.8 60.3776
6773.63 67.51
6776.45 63.2112
6779.28 61.8387
6782.1 61.7189
6784.92 63.3725
6787.75 61.8931
6790.57 65.9897
6793.4 61.1075
6796.22 62.5515
6799.04 64.3339
6801.87 65.6861
6804.69 64.2298
6807.51 63.5184
6810.33 59.7824
6813.16 63.6402
6815.98 63.223
6818.8 61.4695
6821.62 63.2512
6824.44 59.4583
6827.26 61.4654
6830.09 61.3686
6832.91 57.062
6835.73 61.5915
6838.55 62.4172
6841.37 53.1327
6844.19 51.7163
6847.01 55.0328
6849.83 53.3784
6852.65 51.0308
6855.47 52.1216
6858.29 54.9939
6861.11 51.6757
6863.93 46.4048
6866.75 43.9437
6869.57 43.043
6872.39 41.9449
6875.2 46.3109
6878.02 48.2277
6880.84 47.9696
6883.66 48.3206
6886.48 46.9726
6889.29 47.6246
6892.11 45.551
6894.93 47.597
6897.75 48.7712
6900.56 46.5282
6903.38 50.1652
6906.2 48.0274
6909.01 50.8241
6911.83 54.8714
6914.65 50.0722
6917.46 50.4005
6920.28 52.1297
6923.1 53.8879
6925.91 53.4716
6928.73 51.1913
6931.54 52.9828
6934.36 51.2196
6937.17 54.5104
6939.99 53.0408
6942.8 51.2941
6945.62 54.184
6948.43 51.714
6951.24 51.8924
6954.06 52.4535
6956.87 53.9732
6959.68 54.7801
6962.5 54.5441
6965.31 114.062
6968.12 152.436
6970.94 54.9992
6973.75 53.7517
6976.56 56.0078
6979.37 50.2887
6982.19 56.8803
6985 58.2456
6987.81 53.9081
6990.62 55.7165
6993.43 53.4056
6996.25 56.5134
6999.06 53.4315
7001.87 49.0931
7004.68 54.8261
7007.49 52.4324
7010.3 55.8434
7013.11 54.6855
7015.92 57.0079
7018.73 55.9488
7021.54 57.877
7024.35 55.8835
7027.16 52.7656
7029.97 52.9063
7032.78 55.5229
7035.59 54.8693
7038.39 55.0142
7041.2 54.7585
7044.01 51.0017
7046.82 54.7723
7049.63 53.6813
7052.43 54.9526
7055.24 53.6356
7058.05 55.1683
7060.86 54.8416
7063.66 53.6305
7066.47 51.5673
7069.28 55.1811
7072.08 54.3904
7074.89 56.0194
7077.7 52.9795
7080.5 53.2076
7083.31 50.4258
7086.11 53.6195
7088.92 53.4182
7091.73 56.1395
7094.53 51.7499
7097.34 51.5753
7100.14 54.4753
7102.94 51.6618
7105.75 54.9025
7108.55 51.3436
7111.36 51.9408
7114.16 53.2794
7116.96 52.75
7119.77 55.1397
7122.57 55.6671
7125.37 53.438
7128.18 52.1633
7130.98 51.496
7133.78 52.6406
7136.59 53.1416
7139.39 53.499
7142.19 51.7194
7144.99 51.9685
7147.79 52.7345
7150.59 53.138
7153.4 52.2321
7156.2 52.5856
7159 53.2262
7161.8 54.9029
7164.6 54.0705
7167.4 52.5933
7170.2 51.9651
7173 51.1157
7175.8 50.8321
7178.6 53.0667
7181.4 48.8812
7184.2 50.4655
7187 49.9657
7189.8 50.3717
7192.59 54.9482
7195.39 51.1834
7198.19 52.9677
7200.99 48.8281
7203.79 54.6339
7206.59 57.812
7209.38 55.1205
7212.18 54.2652
7214.98 55.1607
7217.77 55.8667
7220.57 56.1939
7223.37 57.94
7226.16 57.6013
7228.96 55.7791
7231.76 54.0307
7234.55 54.3257
7237.35 55.561
7240.14 56.9188
7242.94 50.0605
7245.73 55.7321
7248.53 52.3202
7251.32 52.6079
7254.12 58.6912
7256.91 54.1158
7259.71 55.9771
7262.5 53.9728
7265.3 53.441
7268.09 48.5462
7270.88 55.6479
7273.68 50.5153
7276.47 55.4709
7279.26 57.055
7282.05 54.8785
7284.85 51.9472
7287.64 50.4159
7290.43 53.7783
7293.22 53.5317
7296.02 56.0458
7298.81 55.0666
7301.6 58.9556
7304.39 56.8311
7307.18 54.5964
7309.97 55.1945
7312.76 54.0564
7315.55 59.4456
7318.34 51.2194
7321.13 57.0128
7323.92 54.5267
7326.71 57.8164
7329.5 60.5351
7332.29 58.0421
7335.08 57.8586
7337.87 56.2759
7340.66 53.8977
7343.45 52.1853
7346.23 54.7401
7349.02 58.2546
7351.81 58.4623
7354.6 61.1394
7357.38 53.103
7360.17 53.0275
7362.96 60.9081
7365.75 55.9357
7368.53 63.3482
7371.32 52.6682
7374.11 58.815
7376.89 51.2424
7379.68 59.1526
7382.46 56.2534
7385.25 58.8346
7388.03 59.8642
7390.82 56.8714
7393.6 61.1419
7396.39 57.1671
7399.17 57.6921
7401.96 61.6763
7404.74 53.1836
7407.53 58.8843
7410.31 54.7514
7413.09 56.6787
7415.88 52.9172
7418.66 53.4017
7421.44 60.3777
7424.22 53.6266
7427.01 57.2316
7429.79 53.3145
7432.57 52.4974
7435.35 57.0547
7438.14 57.6312
7440.92 60.238
7443.7 57.4558
7446.48 59.4138
7449.26 57.4007
7452.04 63.1682
7454.82 57.6816
7457.6 54.0962
7460.38 60.3487
7463.16 61.6576
7465.94 57.585
7468.72 56.8152
7471.5 61.4527
7474.28 58.8509
7477.06 60.1511
7479.84 55.6827
7482.62 59.5723
7485.39 60.4754
7488.17 56.1622
7490.95 57.2241
7493.73 62.0012
7496.51 60.8417
7499.28 58.069
7502.06 57.4483
7504.84 53.6196
7507.61 60.0073
7510.39 53.409
7513.17 59.9383
7515.94 55.4471
7518.72 54.7681
7521.49 53.7026
7524.27 58.9076
7527.04 62.6318
7529.82 54.758
7532.59 55.2771
7535.37 53.8695
7538.14 54.7996
7540.92 52.6817
7543.69 53.0084
7546.47 50.4997
7549.24 54.489
7552.01 54.1261
7554.79 54.5675
7557.56 55.0586
7560.33 53.0647
7563.1 52.3517
7565.88 54.0075
7568.65 50.1736
7571.42 54.3675
7574.19 52.526
7576.96 56.0614
7579.73 52.9779
7582.51 51.2883
7585.28 52.7877
7588.05 49.8069
7590.82 39.8725
7593.59 32.24
7596.36 27.1091
7599.13 19.933
7601.9 19.106
7604.67 17.3281
7607.44 19.8629
7610.21 24.1171
7612.97 29.5576
7615.74 35.0172
7618.51 33.2133
7621.28 30.3182
7624.05 33.2707
7626.81 30.2557
7629.58 33.4149
7632.35 27.7517
7635.12 31.4391
7637.88 29.4598
7640.65 34.0996
7643.42 35.7717
7646.18 35.8291
7648.95 38.1498
7651.71 41.1955
7654.48 39.7998
7657.25 40.2727
7660.01 43.3925
7662.78 41.9795
7665.54 43.7442
7668.31 47.6018
7671.07 45.989
7673.83 48.8043
7676.6 49.5243
7679.36 52.8374
7682.12 49.6252
7684.89 52.0661
7687.65 52.8713
7690.41 48.0481
7693.18 50.6218
7695.94 52.6309
7698.7 50.3612
7701.46 52.1213
7704.22 55.0777
7706.99 53.5395
7709.75 52.9881
7712.51 55.5169
7715.27 53.8776
7718.03 53.4944
7720.79 55.9529
7723.55 54.3664
7726.31 53.2883
7729.07 50.0605
7731.83 53.5133
7734.59 53.2271
7737.35 54.8297
7740.11 43.174
7742.87 46.6649
7745.62 45.7422
7748.38 44.8243
7751.14 37.042
7753.9 45.8615
7756.66 50.1879
7759.41 47.3339
7762.17 46.4508
7764.93 45.8807
7767.68 43.7454
7770.44 49.1503
7773.2 45.1291
7775.95 43.0198
7778.71 41.8826
7781.47 47.3108
7784.22 46.7114
7786.98 47.1748
7789.73 46.2177
7792.49 44.5337
7795.24 47.088
7797.99 49.7962
7800.75 50.0882
7803.5 45.4413
7806.26 50.0738
7809.01 50.152
7811.76 46.6079
7814.52 47.2712
7817.27 50.3717
7820.02 50.0334
7822.77 49.0786
7825.52 43.024
7828.28 47.105
7831.03 51.6584
7833.78 55.8495
7836.53 56.1984
7839.28 56.7327
7842.03 54.9456
7844.78 47.1475
7847.53 51.4448
7850.28 43.5772
7853.03 50.9385
7855.78 45.057
7858.53 45.5914
7861.28 46.9708
7864.03 49.7473
7866.78 44.2029
7869.53 48.2574
7872.28 43.7077
7875.02 43.2513
7877.77 46.5791
7880.52 44.7039
7883.27 42.7491
7886.01 51.829
7888.76 48.0715
7891.51 48.7272
7894.25 47.433
7897 45.2284
7899.74 42.9852
7902.49 44.1741
7905.24 48.8614
7907.98 45.9895
7910.73 44.985
7913.47 49.16
7916.22 41.1836
7918.96 43.5807
7921.7 43.5181
7924.45 49.431
7927.19 48.8513
7929.93 45.0634
7932.68 46.2398
7935.42 46.4212
7938.16 41.2518
7940.91 46.7894
7943.65 45.3181
7946.39 40.3537
7949.13 49.3007
7951.87 51.107
7954.62 45.1489
7957.36 47.6245
7960.1 48.0899
7962.84 43.6668
7965.58 42.3318
7968.32 41.697
7971.06 47.8523
7973.8 47.1916
7976.54 48.923
7979.28 46.7172
7982.02 47.0359
7984.75 45.1812
7987.49 49.3311
7990.23 42.1296
7992.97 47.4569
7995.71 53.1189
7998.44 44.0261
8001.18 44.8806
8003.92 46.9867
8006.66 47.4349
8009.39 47.0174
8012.13 44.9747
8014.87 50.3129
8017.6 50.5132
8020.34 50.3922
8023.07 50.1643
8025.81 51.1654
8028.54 48.9682
8031.28 48.6463
8034.01 53.7679
8036.75 46.4925
8039.48 51.6726
8042.21 50.41
8044.95 51.5727
8047.68 50.5507
8050.41 46.4782
8053.15 51.8232
8055.88 51.2141
8058.61 49.9638
8061.34 52.4357
8064.08 51.1992
8066.81 52.529
8069.54 53.3148
8072.27 52.7616
8075 50.1927
8077.73 51.1613
8080.46 51.151
8083.19 51.8147
8085.92 47.0726
8088.65 46.7678
8091.38 50.137
8094.11 54.1176
8096.84 51.0689
8099.57 49.1755
8102.3 52.1757
8105.03 50.9602
8107.75 51.6202
8110.48 50.1532
8113.21 49.8968
8115.94 52.6001
8118.66 50.4472
8121.39 48.9089
8124.12 52.3234
8126.84 53.5628
8129.57 51.5582
8132.3 42.4002
8135.02 49.2965
8137.75 47.8048
8140.47 47.8374
8143.2 47.1289
8145.92 46.5774
8148.65 45.7255
8151.37 47.0125
8154.09 47.8999
8156.82 45.9054
8159.54 44.2784
8162.26 46.2702
8164.99 44.7352
8167.71 48.7668
8170.43 48.5566
8173.15 45.1379
8175.88 45.5409
8178.6 47.2295
8181.32 44.8641
8184.04 44.7943
8186.76 45.4754
8189.48 50.0614
8192.2 50.8284
8194.92 44.8167
8197.64 44.121
8200.36 44.7007
8203.08 52.7653
8205.8 48.3394
8208.52 44.6782
8211.24 47.718
8213.96 51.0966
8216.68 47.7609
8219.39 44.0483
8222.11 49.2054
8224.83 45.9974
8227.55 37.7781
8230.26 47.5124
8232.98 42.1293
8235.7 48.8856
8238.41 50.3254
8241.13 48.8739
8243.84 49.7245
8246.56 51.4524
8249.28 52.2513
8251.99 51.4147
8254.71 45.1334
8257.42 49.3342
8260.13 46.8247
8262.85 51.609
8265.56 45.9368
8268.28 48.3088
8270.99 49.0373
8273.7 47.141
8276.41 46.8702
8279.13 47.7625
8281.84 40.3517
8284.55 37.8944
8287.26 44.5867
8289.97 48.0161
8292.69 46.0623
8295.4 43.6876
8298.11 45.3443
8300.82 35.5367
8303.53 48.5831
8306.24 42.5717
8308.95 47.762
8311.66 47.2023
8314.37 51.0802
8317.07 43.2367
8319.78 47.571
8322.49 48.4337
8325.2 44.3244
8327.91 46.2588
8330.62 49.0758
8333.32 47.5956
8336.03 48.0651
8338.74 50.2227
8341.44 53.6333
8344.15 49.502
8346.86 42.0508
8349.56 48.2975
8352.27 43.9669
8354.97 38.1539
8357.68 48.9895
8360.38 52.3674
8363.09 45.8153
8365.79 49.35
8368.5 51.8035
8371.2 45.1578
8373.9 47.2722
8376.61 45.4388
8379.31 48.4168
8382.01 49.3509
8384.71 47.4545
8387.42 43.8492
8390.12 54.542
8392.82 51.6111
8395.52 56.6287
8398.22 397.082
8400.92 307.807
8403.62 49.2873
8406.32 49.3936
8409.02 50.1118
8411.72 44.7903
8414.42 47.2428
8417.12 46.6105
8419.82 49.441
8422.52 43.1315
8425.22 46.619
8427.92 46.379
8430.62 50.1033
8433.31 34.6595
8436.01 40.555
8438.71 24.512
8441.41 32.4839
8444.1 35.3205
8446.8 43.3149
8449.49 52.0776
8452.19 46.1209
8454.89 49.6234
8457.58 45.2861
8460.28 44.4309
8462.97 45.7919
8465.67 49.9023
8468.36 38.6503
8471.05 46.8185
8473.75 49.4001
8476.44 45.32
8479.13 46.4744
8481.83 49.756
8484.52 41.9456
8487.21 48.4482
8489.91 46.4813
8492.6 45.4552
8495.29 41.2125
8497.98 43.9115
8500.67 44.5097
8503.36 46.476
8506.05 48.493
8508.74 45.3302
8511.43 43.1139
8514.12 48.9123
8516.81 46.6103
8519.5 46.7333
8522.19 47.6167
8524.88 47.1664
8527.57 43.5996
8530.26 43.0903
8532.94 44.7458
8535.63 45.8933
8538.32 42.2113
8541.01 41.8987
8543.69 34.7217
8546.38 37.7165
8549.07 36.9113
8551.75 41.4697
8554.44 42.75
8557.12 41.4773
8559.81 43.0016
8562.49 42.8215
8565.18 39.3024
8567.86 40.5831
8570.55 37.9784
8573.23 44.7938
8575.91 41.1038
8578.6 41.8688
8581.28 42.3654
8583.96 41.1948
8586.64 42.0402
8589.33 44.7429
8592.01 42.0249
8594.69 40.518
8597.37 40.8575
8600.05 42.7961
8602.73 40.6553
8605.41 39.6177
8608.09 42.5182
8610.77 35.9254
8613.45 44.788
8616.13 40.8604
8618.81 37.8577
8621.49 42.5685
8624.17 42.0573
8626.85 43.1521
8629.53 43.4485
8632.2 48.2521
8634.88 35.3271
8637.56 40.1493
8640.24 42.8049
8642.91 40.0173
8645.59 40.8562
8648.26 37.1706
8650.94 41.8605
8653.62 35.334
8656.29 44.3933
8658.97 38.0584
8661.64 36.3562
8664.32 37.3803
8666.99 39.0043
8669.66 48.3702
8672.34 39.0373
8675.01 37.8036
8677.68 38.8705
8680.36 39.7012
8683.03 45.1556
8685.7 38.5542
8688.37 43.0275
8691.04 40.0299
8693.72 39.6726
8696.39 43.7806
8699.06 45.2813
8701.73 37.2787
8704.4 41.6783
8707.07 41.8925
8709.74 41.0218
8712.41 42.2491
8715.08 39.7172
8717.75 45.2528
8720.41 41.3381
8723.08 40.2063
8725.75 46.8336
8728.42 40.533
8731.09 41.3744
8733.75 42.1307
8736.42 44.5243
8739.09 39.8168
8741.75 41.5744
8744.42 40.0906
8747.08 46.8538
8749.75 39.448
8752.41 39.3642
8755.08 45.8024
8757.74 44.2321
8760.41 38.5152
8763.07 38.0411
8765.74 36.377
8768.4 38.9843
8771.06 40.4481
8773.73 33.51
8776.39 47.7523
8779.05 39.4647
8781.71 41.7296
8784.37 39.5335
8787.04 39.4295
8789.7 37.8323
8792.36 38.5926
8795.02 37.6504
8797.68 35.0101
8800.34 39.5208
8803 44.2614
8805.66 40.825
8808.32 39.5429
8810.98 37.0122
8813.63 43.4358
8816.29 42.1955
8818.95 42.311
8821.61 41.252
8824.27 46.988
8826.92 57.3537
8829.58 38.3921
8832.24 36.937
8834.89 46.2665
8837.55 37.0322
8840.2 42.8519
8842.86 40.5073
8845.51 39.9967
8848.17 47.2278
8850.82 40.0694
8853.48 41.4115
8856.13 48.0101
8858.78 46.2525
8861.44 39.2537
8864.09 44.3388
8866.74 43.1233
8869.4 47.408
8872.05 48.9352
8874.7 41.5838
8877.35 50.3278
8880 47.1537
8882.65 48.5349
8885.3 43.8435
8887.96 47.0247
8890.61 46.9128
8893.25 39.203
8895.9 42.7481
8898.55 43.5349
8901.2 44.4146
8903.85 47.9123
8906.5 36.6056
8909.15 44.5038
8911.8 46.8755
8914.44 46.3799
8917.09 44.8056
8919.74 44.9705
8922.38 46.3386
8925.03 36.1743
8927.68 34.6077
8930.32 38.8743
8932.97 41.5647
8935.61 42.1039
8938.26 45.3842
8940.9 40.6208
8943.54 44.5246
8946.19 40.6426
8948.83 40.9527
8951.48 33.4172
8954.12 41.6936
8956.76 47.3401
8959.4 44.4449
8962.05 35.3583
8964.69 38.9934
8967.33 36.3951
8969.97 33.8708
8972.61 37.1437
8975.25 36.7777
8977.89 45.1643
8980.53 39.0079
8983.17 36.4491
8985.81 40.1188
8988.45 35.5554
8991.09 35.0828
8993.73 30.4736
8996.36 37.528
8999 42.3629
9001.64 38.8086
9004.28 41.3962
9006.91 38.0598
9009.55 36.1325
9012.19 45.7724
9014.82 37.782
9017.46 41.0147
9020.09 41.581
9022.73 42.9892
9025.36 42.457
9028 41.8339
9030.63 41.7653
9033.27 44.6945
9035.9 43.7343
9038.53 44.4904
9041.17 44.3481
9043.8 39.2362
9046.43 44.8218
9049.06 41.4266
9051.7 35.3216
9054.33 37.3322
9056.96 39.4837
9059.59 35.5391
9062.22 42.4374
9064.85 43.2691
