wavelength spec_sum spec_optimal
3527.9 26.027 18.2343
3530.82 37.993 24.6968
3533.74 25.3939 14.5793
3536.66 34.7667 25.4286
3539.58 39.7673 26.5361
3542.5 31.5998 24.5202
3545.42 34.9769 28.9515
3548.34 46.3312 33.6308
3551.26 36.4964 23.1486
3554.18 32.2072 27.9148
3557.1 35.802 32.456
3560.02 40.5224 22.4773
3562.94 37.2483 23.3304
3565.86 28.063 21.6261
3568.78 29.7035 20.2874
3571.7 29.2051 23.6165
3574.62 28.4249 23.4347
3577.54 34.1547 22.4451
3580.46 27.0321 14.1422
3583.38 21.8682 21.0155
3586.3 29.6754 19.436
3589.22 26.895 25.9785
3592.14 36.5139 31.5479
3595.06 39.9869 33.4205
3597.98 37.9732 29.7075
3600.9 33.2358 23.0194
3603.82 31.1264 25.9206
3606.74 26.4695 18.9356
3609.66 34.7913 24.6192
3612.58 38.6182 30.6114
3615.49 32.2532 26.393
3618.41 34.392 24.1194
3621.33 42.7088 36.7893
3624.25 40.7062 33.7738
3627.17 46.8566 44.0685
3630.09 40.1246 32.0527
3633.01 39.594 31.4703
3635.93 50.3951 43.2872
3638.85 35.7925 28.2395
3641.77 34.8523 24.7743
3644.69 35.8026 29.3756
3647.61 38.5862 30.2807
3650.53 42.1389 31.2832
3653.45 38.8611 30.6393
3656.36 37.1378 33.8656
3659.28 38.6261 35.8364
3662.2 38.5964 33.3341
3665.12 38.8725 30.6808
3668.04 41.2673 29.1257
3670.96 29.2258 28.9499
3673.88 38.7321 35.648
3676.8 41.2532 33.199
3679.72 31.2545 30.2265
3682.64 35.7218 24.0044
3685.55 40.7026 28.8767
3688.47 36.2201 30.4803
3691.39 35.9615 30.8344
3694.31 35.4341 33.4777
3697.23 36.5674 29.4494
3700.15 33.099 27.0336
3703.07 37.4854 28.3525
3705.99 43.2296 34.1605
3708.9 45.7758 36.3423
3711.82 44.0524 36.8349
3714.74 34.5471 25.8821
3717.66 40.4392 31.0392
3720.58 41.4777 31.3226
3723.5 30.1893 31.2099
3726.42 32.4787 26.2527
3729.33 43.5481 33.5923
3732.25 31.4909 31.7131
3735.17 40.0952 31.9675
3738.09 30.8407 26.6505
3741.01 40.7307 33.0578
3743.93 39.7029 30.5715
3746.84 35.7108 30.3907
3749.76 40.6958 36.5128
3752.68 41.7453 34.3324
3755.6 33.5325 31.0065
3758.52 42.6308 33.4302
3761.44 44.7453 35.8043
3764.35 39.4083 28.6932
3767.27 38.6384 32.7677
3770.19 45.2106 39.0042
3773.11 41.0461 35.7343
3776.03 44.4761 39.3241
3778.94 45.8167 35.0421
3781.86 45.895 41.0617
3784.78 52.588 45.2446
3787.7 41.5269 34.7623
3790.62 41.4038 34.9332
3793.53 40.1576 36.6367
3796.45 43.6428 35.6571
3799.37 42.6895 40.8375
3802.29 48.7301 43.1276
3805.2 45.0766 35.3163
3808.12 43.5104 38.331
3811.04 49.4417 43.9382
3813.96 49.0063 41.6264
3816.87 46.8462 41.9897
3819.79 44.2449 34.626
3822.71 41.9948 33.7464
3825.63 41.1201 33.8673
3828.54 35.6222 30.2999
3831.46 35.1462 28.388
3834.38 37.0591 31.8081
3837.3 38.3983 34.7125
3840.21 42.8289 34.9252
3843.13 45.9776 38.5439
3846.05 45.9513 39.114
3848.97 41.9429 39.0962
3851.88 44.7603 37.5291
3854.8 37.4289 28.6948
3857.72 43.0374 36.8905
3860.63 40.3628 32.6152
3863.55 43.0774 37.0911
3866.47 40.7059 34.2201
3869.39 43.4232 36.0653
3872.3 39.525 32.3251
3875.22 38.052 32.8157
3878.14 44.2467 34.2014
3881.05 38.0909 31.7391
3883.97 31.9102 27.4484
3886.89 45.1405 35.6535
3889.8 38.8506 33.5425
3892.72 41.5395 34.976
3895.64 42.5312 32.7053
3898.55 44.1525 37.0577
3901.47 40.7921 34.8313
3904.39 46.1455 42.521
3907.3 42.3518 39.563
3910.22 47.0551 40.4875
3913.14 47.2862 39.0565
3916.05 42.2452 35.2599
3918.97 38.5385 35.3982
3921.89 36.967 32.9951
3924.8 39.3481 34.0035
3927.72 36.5532 29.8501
3930.64 34.9745 27.6651
3933.55 31.5037 24.6043
3936.47 37.8035 32.2276
3939.38 35.4858 27.8161
3942.3 40.5975 38.2353
3945.22 38.9877 32.3686
3948.13 40.5695 34.9143
3951.05 42.6502 36.559
3953.97 41.6977 39.6316
3956.88 38.1052 31.2883
3959.8 37.3703 31.1668
3962.71 31.5778 25.8465
3965.63 33.0929 25.7342
3968.54 34.7551 30.689
3971.46 37.7389 31.6134
3974.38 44.3626 38.6765
3977.29 43.125 36.1838
3980.21 43.4702 36.6892
3983.12 44.9836 41.5958
3986.04 52.654 48.126
3988.95 51.1922 42.2675
3991.87 55.35 48.3924
3994.79 61.6586 54.0774
3997.7 57.0695 43.2423
4000.62 52.9861 41.9231
4003.53 50.6045 44.9871
4006.45 55.7953 48.1185
4009.36 56.1444 44.9786
4012.28 53.5989 48.3451
4015.19 55.0479 49.5742
4018.11 56.4079 48.8085
4021.02 57.3115 49.1325
4023.94 56.8418 48.2933
4026.85 58.8838 48.4998
4029.77 60.6637 52.9502
4032.68 56.3326 53.065
4035.6 52.719 46.1148
4038.51 60.5663 53.1514
4041.43 45.4496 41.6543
4044.34 54.5497 47.5174
4047.26 62.7166 51.3926
4050.17 52.4275 50.2227
4053.09 59.2857 52.6755
4056 55.292 45.7371
4058.92 61.2761 51.4787
4061.83 50.235 46.451
4064.75 57.103 50.9419
4067.66 53.7779 49.8549
4070.58 53.1166 46.7634
4073.49 53.0552 47.939
4076.41 49.8127 45.567
4079.32 52.1893 44.8713
4082.23 54.855 47.7363
4085.15 50.2711 45.8484
4088.06 62.1017 50.7523
4090.98 62.8818 55.4678
4093.89 56.1446 50.784
4096.81 60.0867 49.912
4099.72 54.1277 51.1629
4102.63 58.3358 50.8987
4105.55 53.6262 45.1496
4108.46 58.7588 51.0103
4111.38 59.8442 50.8317
4114.29 52.7413 44.1406
4117.2 53.4698 46.225
4120.12 60.7062 56.0112
4123.03 60.6255 54.991
4125.95 60.635 53.8976
4128.86 54.7668 46.307
4131.77 59.4038 54.7653
4134.69 61.6872 56.4921
4137.6 61.54 55.5086
4140.51 58.0688 51.1647
4143.43 63.0483 55.0804
4146.34 60.216 55.574
4149.25 57.2297 48.6807
4152.17 62.0453 57.0888
4155.08 60.6725 52.7136
4157.99 59.5165 52.407
4160.91 64.2628 54.9265
4163.82 58.1142 54.1866
4166.73 54.9891 49.5218
4169.65 63.1407 54.2049
4172.56 61.6229 52.8419
4175.47 64.9884 52.1366
4178.39 55.8089 48.4617
4181.3 55.1023 49.6479
4184.21 55.0953 47.8394
4187.12 55.0858 48.7829
4190.04 64.1392 54.8205
4192.95 59.6058 50.0769
4195.86 57.0935 47.6018
4198.78 55.9103 51.8247
4201.69 57.2913 50.3651
4204.6 55.8012 46.7507
4207.51 60.0644 54.2149
4210.43 52.7726 45.421
4213.34 60.477 52.9094
4216.25 50.7581 47.9057
4219.16 62.3721 55.1948
4222.08 54.1884 45.2154
4224.99 51.4203 46.2837
4227.9 56.4344 48.4388
4230.81 55.4832 47.5573
4233.72 60.9559 54.0412
4236.64 52.4144 46.7254
4239.55 59.0902 53.918
4242.46 49.7014 43.321
4245.37 49.4858 44.7024
4248.29 59.4732 52.1456
4251.2 62.8989 52.8073
4254.11 53.427 48.2503
4257.02 56.1226 49.5091
4259.93 55.4705 50.9397
4262.84 58.3779 51.4632
4265.76 54.4448 48.2887
4268.67 55.5851 47.3441
4271.58 54.6298 48.8274
4274.49 53.5857 46.3224
4277.4 61.4782 52.2949
4280.31 56.2786 51.41
4283.22 51.0618 47.5978
4286.14 51.1119 46.2961
4289.05 54.8444 46.0602
4291.96 52.6621 45.931
4294.87 49.0392 43.5522
4297.78 49.2862 41.5894
4300.69 50.4709 44.5511
4303.6 44.5768 37.6349
4306.51 47.7843 41.9572
4309.42 48.1918 41.6462
4312.34 51.5948 48.7504
4315.25 57.4396 48.4841
4318.16 54.4766 48.416
4321.07 51.4167 45.0712
4323.98 55.3676 48.4234
4326.89 57.9245 53.3163
4329.8 57.973 49.2189
4332.71 56.161 48.88
4335.62 53.8357 48.8656
4338.53 60.5501 54.592
4341.44 60.6704 55.276
4344.35 59.586 52.4725
4347.26 59.9664 54.4089
4350.17 57.7692 54.388
4353.08 59.4164 54.5842
4355.99 59.1726 51.803
4358.9 54.2765 48.6913
4361.81 58.2767 53.503
4364.72 53.7326 51.0434
4367.63 58.6013 55.7614
4370.54 56.3522 53.3809
4373.45 56.2763 51.3318
4376.36 55.1437 48.5648
4379.27 55.035 52.3891
4382.18 52.7959 43.1626
4385.09 57.1126 52.6544
4388 59.0548 53.4657
4390.91 56.1412 49.8363
4393.82 58.2988 54.83
4396.73 61.9926 55.869
4399.64 60.0833 50.416
4402.55 54.9942 50.6141
4405.46 58.9217 54.9404
4408.37 63.495 62.2665
4411.28 63.2352 56.9017
4414.19 60.2576 56.7103
4417.09 62.695 55.5478
4420 60.4379 58.8015
4422.91 59.85 52.7928
4425.82 62.441 58.6272
4428.73 64.4993 60.3697
4431.64 58.4344 54.1911
4434.55 64.6712 59.3866
4437.46 63.5545 58.7447
4440.37 60.9131 58.791
4443.27 64.2146 60.8667
4446.18 65.2166 60.6907
4449.09 68.2247 62.203
4452 66.1526 60.0682
4454.91 66.0071 61.319
4457.82 62.6414 57.9512
4460.72 64.8621 59.3104
4463.63 63.1036 56.9069
4466.54 63.8925 59.6819
4469.45 63.3898 57.9939
4472.36 66.3818 57.8507
4475.27 64.9575 59.0997
4478.17 66.7143 60.1368
4481.08 64.1853 55.5395
4483.99 61.5583 56.7721
4486.9 69.4497 61.2445
4489.8 66.9211 59.6075
4492.71 62.6889 56.3119
4495.62 65.8127 55.8157
4498.53 68.6607 62.1903
4501.43 72.5686 64.251
4504.34 70.3324 63.7101
4507.25 67.534 61.2321
4510.16 64.3457 56.3715
4513.06 66.9486 59.5384
4515.97 68.8451 58.7067
4518.88 68.4417 57.2825
4521.79 61.066 48.842
4524.69 64.1454 57.1444
4527.6 64.8183 51.9892
4530.51 63.1041 55.8757
4533.41 62.945 54.2016
4536.32 63.6063 57.104
4539.23 64.5855 58.2999
4542.13 63.8649 51.3434
4545.04 66.1966 57.2302
4547.95 64.7647 57.3042
4550.85 66.1969 60.9284
4553.76 67.4428 61.6427
4556.67 68.4539 62.7868
4559.57 64.6601 59.4857
4562.48 64.9367 59.5249
4565.39 67.8181 60.6125
4568.29 68.5538 60.0316
4571.2 71.9041 67.3543
4574.1 66.3392 61.4768
4577.01 64.3589 59.2945
4579.92 71.1717 63.5621
4582.82 66.9598 60.7107
4585.73 68.6678 61.8558
4588.63 65.1674 58.3266
4591.54 63.384 58.5167
4594.45 68.6661 65.169
4597.35 63.6482 55.1482
4600.26 63.9779 60.5175
4603.16 72.128 68.806
4606.07 71.8001 66.6399
4608.97 71.9474 62.8431
4611.88 71.9893 67.9344
4614.78 71.7669 67.8374
4617.69 62.1133 60.7017
4620.59 68.63 61.4499
4623.5 69.0591 62.1439
4626.4 71.8791 67.8801
4629.31 68.4629 60.4061
4632.21 68.5352 60.4265
4635.12 63.9581 59.6769
4638.02 63.7291 60.4291
4640.93 61.4341 59.8137
4643.83 67.252 61.5295
4646.74 67.4723 64.1919
4649.64 65.1724 60.916
4652.55 66.8553 63.3862
4655.45 66.2664 64.2898
4658.35 68.8052 65.0565
4661.26 69.435 64.8201
4664.16 65.7246 62.8759
4667.07 65.9439 62.353
4669.97 68.4908 65.0427
4672.88 64.4811 58.0204
4675.78 67.178 65.1211
4678.68 63.0056 60.7772
4681.59 69.7203 66.143
4684.49 71.3689 66.9053
4687.39 67.663 64.9058
4690.3 68.8451 65.4896
4693.2 69.7786 63.0458
4696.11 64.0487 61.4386
4699.01 54.3575 60.8198
4701.91 63.2581 63.7459
4704.82 61.4551 61.9766
4707.72 66.7241 67.4479
4710.62 66.8169 66.6799
4713.53 61.3156 62.7334
4716.43 63.5455 64.5657
4719.33 68.6603 70.28
4722.23 64.7778 61.5036
4725.14 61.7218 68.3971
4728.04 59.0008 66.3006
4730.94 59.0172 64.1079
4733.85 64.6687 65.6261
4736.75 61.721 67.1168
4739.65 63.7921 66.5572
4742.55 65.4937 66.7137
4745.46 66.0358 66.0881
4748.36 62.4393 70.268
4751.26 65.3014 67.9859
4754.16 62.5482 66.5669
4757.06 66.1628 68.8052
4759.97 63.5796 66.5569
4762.87 67.3842 67.04
4765.77 64.2519 68.0605
4768.67 60.6741 60.6771
4771.57 64.1193 66.8224
4774.48 61.0073 66.5563
4777.38 65.1334 66.5859
4780.28 64.5354 68.2835
4783.18 63.5797 65.5232
4786.08 63.8612 64.78
4788.98 60.1697 63.3118
4791.89 64.8311 65.8754
4794.79 63.1567 62.8372
4797.69 63.0225 64.7914
4800.59 60.1613 59.3486
4803.49 61.6378 63.1671
4806.39 59.0956 65.1597
4809.29 60.6819 62.3173
4812.19 57.434 63.809
4815.09 59.3647 64.7068
4817.99 62.3279 64.3044
4820.9 61.4548 63.9154
4823.8 67.5689 68.9483
4826.7 60.4307 65.5706
4829.6 62.2075 63.6774
4832.5 64.4268 65.0003
4835.4 58.1007 64.6121
4838.3 65.3512 67.7669
4841.2 65.4926 67.6517
4844.1 63.3383 67.1164
4847 63.3953 69.827
4849.9 63.063 64.9701
4852.8 66.29 69.603
4855.7 59.7872 60.5478
4858.6 60.5378 62.7396
4861.5 53.5164 58.7827
4864.4 62.6092 62.6707
4867.3 64.4088 66.2326
4870.2 63.3529 65.0653
4873.1 57.5639 61.9175
4876 65.4184 69.4114
4878.89 63.079 70.6331
4881.79 67.1093 70.3064
4884.69 65.3949 68.264
4887.59 67.128 70.3286
4890.49 68.5624 71.428
4893.39 71.7709 75.0431
4896.29 63.3607 69.5988
4899.19 69.8485 71.6866
4902.09 58.7947 66.1434
4904.99 69.0466 72.5195
4907.88 67.1254 68.3761
4910.78 64.2365 71.7366
4913.68 69.5185 73.1111
4916.58 66.7698 71.6929
4919.48 66.2523 70.68
4922.38 65.251 72.1601
4925.27 65.4669 67.3498
4928.17 61.9092 68.7984
4931.07 66.5131 68.7243
4933.97 66.3685 68.7667
4936.87 67.8447 71.4246
4939.76 65.1943 67.5781
4942.66 68.3802 71.7291
4945.56 63.1385 62.4794
4948.46 69.2496 72.8782
4951.35 65.1956 66.9537
4954.25 55.5844 61.1526
4957.15 64.5846 68.8094
4960.05 71.2276 74.8542
4962.94 68.541 71.2911
4965.84 64.9637 70.4822
4968.74 63.9032 65.9019
4971.63 59.2209 65.3934
4974.53 63.3673 64.1444
4977.43 64.3915 64.818
4980.32 59.3208 66.24
4983.22 65.9292 70.7126
4986.12 58.7921 66.355
4989.01 60.1386 67.3114
4991.91 60.8991 67.3625
4994.81 62.1075 65.3392
4997.7 65.2332 69.9336
5000.6 64.9049 69.063
5003.5 65.1083 67.5798
5006.39 62.8307 66.0435
5009.29 63.8878 67.6789
5012.18 63.2353 67.866
5015.08 65.0183 69.2472
5017.98 63.0826 67.7814
5020.87 63.529 66.3862
5023.77 62.2425 67.9412
5026.66 67.3657 71.3744
5029.56 65.8876 69.372
5032.45 61.0601 65.1698
5035.35 63.6629 67.3801
5038.24 65.8988 71.1106
5041.14 66.1607 70.6242
5044.03 59.7527 67.0762
5046.93 66.7409 70.1937
5049.82 59.5953 69.0159
5052.72 67.1864 71.2999
5055.61 60.6615 69.7149
5058.51 67.325 70.2062
5061.4 66.8548 69.1476
5064.3 70.0566 74.4348
5067.19 66.8959 72.446
5070.09 66.2497 71.3055
5072.98 63.4717 67.0438
5075.87 66.6481 71.9443
5078.77 69.2765 73.7987
5081.66 65.2471 67.9995
5084.56 64.282 71.8414
5087.45 59.4619 66.6821
5090.34 64.2326 65.7635
5093.24 67.0851 68.3237
5096.13 65.8247 70.1342
5099.03 61.3872 67.0091
5101.92 60.1654 67.1858
5104.81 65.6353 70.0275
5107.71 61.1285 65.044
5110.6 62.5426 72.1401
5113.49 62.9563 71.1105
5116.38 65.336 69.2691
5119.28 66.0795 69.6416
5122.17 65.9173 70.9361
5125.06 62.6104 67.1458
5127.96 64.4006 67.9435
5130.85 58.5412 67.945
5133.74 63.8722 68.5556
5136.63 62.1497 68.3307
5139.53 57.7955 62.6018
5142.42 59.9401 65.0326
5145.31 64.149 68.4613
5148.2 64.9489 69.7637
5151.1 66.2003 72.8152
5153.99 66.3623 71.973
5156.88 70.4185 75.7325
5159.77 61.1679 67.3012
5162.66 61.0142 63.6846
5165.55 56.1151 62.175
5168.45 60.5975 64.7191
5171.34 61.1523 63.8969
5174.23 61.7782 65.6142
5177.12 58.0095 59.4458
5180.01 61.9325 65.9238
5182.9 55.5677 62.2475
5185.79 54.8229 63.2262
5188.69 60.4647 62.9678
5191.58 62.281 67.5609
5194.47 66.9421 72.0342
5197.36 60.6429 69.099
5200.25 59.2645 66.8881
5203.14 62.8405 64.8153
5206.03 65.2686 66.1535
5208.92 63.6432 68.9052
5211.81 69.3489 74.3123
5214.7 64.6012 69.0475
5217.59 74.5618 77.9214
5220.48 67.1763 70.8134
5223.37 67.2247 72.2967
5226.26 67.9211 71.6325
5229.15 69.1737 73.8789
5232.04 68.547 74.6287
5234.93 66.4327 75.0375
5237.82 68.4466 70.8153
5240.71 69.3547 73.4265
5243.6 67.4036 72.5564
5246.49 68.9955 72.6577
5249.38 72.5515 76.8493
5252.27 72.0072 76.89
5255.16 70.5117 73.8932
5258.04 65.5643 71.0481
5260.93 67.5015 68.6454
5263.82 68.3822 70.4795
5266.71 65.2953 68.2162
5269.6 61.9871 70.2843
5272.49 66.8039 68.3987
5275.38 71.3493 74.2485
5278.27 68.1592 72.2523
5281.15 71.35 76.5235
5284.04 66.1551 70.6621
5286.93 74.3968 78.1512
5289.82 69.6708 74.0574
5292.71 68.1439 70.1788
5295.59 70.1414 70.8375
5298.48 68.7963 72.1272
5301.37 70.5275 75.8206
5304.26 63.292 71.607
5307.14 72.4418 78.1773
5310.03 69.8294 71.0544
5312.92 70.276 70.615
5315.81 73.0198 75.955
5318.69 67.7674 74.1488
5321.58 69.8559 72.5377
5324.47 67.7731 72.765
5327.35 67.3692 73.2005
5330.24 65.0424 72.6956
5333.13 67.548 75.602
5336.01 68.9465 72.8368
5338.9 67.8388 72.0842
5341.79 68.0837 72.415
5344.67 71.0618 76.6178
5347.56 71.4846 74.6973
5350.45 71.5183 73.5773
5353.33 71.7283 74.4442
5356.22 73.883 78.6139
5359.1 71.2073 76.5472
5361.99 68.7267 71.564
5364.87 68.8981 74.29
5367.76 69.741 73.7463
5370.65 65.1429 73.6087
5373.53 70.1056 74.6615
5376.42 72.5428 79.2668
5379.3 74.9226 79.4959
5382.19 70.2374 74.0674
5385.07 68.2183 77.3151
5387.96 69.9123 75.801
5390.84 70.5957 74.1886
5393.73 67.9466 75.7906
5396.61 70.1274 73.5417
5399.5 68.9602 74.3279
5402.38 67.446 71.4775
5405.26 68.9232 75.0062
5408.15 66.6431 76.2266
5411.03 69.5915 73.9902
5413.92 73.5169 78.7716
5416.8 66.5121 75.8913
5419.69 69.2185 73.9081
5422.57 71.6864 77.0332
5425.45 71.2214 77.9601
5428.34 68.5951 73.8661
5431.22 65.1709 70.7256
5434.1 72.2368 76.3635
5436.99 68.8955 74.5157
5439.87 70.5601 75.4073
5442.75 61.8099 70.3359
5445.64 71.6083 77.5094
5448.52 69.3333 74.6368
5451.4 70.9835 74.5588
5454.28 67.8603 73.9144
5457.17 69.7238 74.0668
5460.05 68.7295 73.3591
5462.93 70.8797 77.4005
5465.82 64.7987 75.4986
5468.7 65.8083 77.2606
5471.58 70.8259 77.0506
5474.46 71.438 77.0787
5477.34 68.2272 73.1046
5480.23 68.1659 71.6384
5483.11 65.2598 71.9282
5485.99 67.3227 76.2951
5488.87 70.4351 75.2704
5491.75 65.9639 75.4447
5494.63 68.8384 73.9547
5497.52 73.6639 80.8955
5500.4 66.5609 76.6666
5503.28 70.2317 75.5992
5506.16 68.3014 72.7829
5509.04 70.6381 77.4623
5511.92 69.5143 75.5337
5514.8 69.0042 73.4423
5517.68 71.5677 79.2998
5520.56 69.7194 76.8641
5523.44 66.8642 71.5005
5526.32 62.5523 72.9165
5529.2 70.6699 75.9287
5532.08 68.1928 74.1574
5534.96 66.4046 72.8285
5537.84 71.3543 77.114
5540.72 71.5268 79.2115
5543.6 69.2796 75.8038
5546.48 67.8613 74.0831
5549.36 68.2634 74.9771
5552.24 71.7918 77.2727
5555.12 71.4175 77.5451
5558 68.9491 74.7733
5560.88 72.5903 79.1675
5563.76 68.0109 74.1713
5566.64 69.711 76.5036
5569.52 69.6602 75.2952
5572.4 69.7471 77.7648
5575.27 69.1628 72.4423
5578.15 51.42 76.5938
5581.03 65.2675 74.1823
5583.91 55.0225 73.6122
5586.79 67.5573 75.1095
5589.67 67.5223 72.9211
5592.54 65.6946 79.1787
5595.42 70.2918 75.1492
5598.3 69.0179 73.3095
5601.18 67.3005 77.6199
5604.05 73.9138 81.262
5606.93 67.1495 77.1164
5609.81 68.6408 77.3787
5612.69 68.6744 76.8944
5615.56 67.3878 72.6895
5618.44 66.4307 72.7015
5621.32 72.8661 78.2432
5624.2 68.1839 74.8745
5627.07 67.3994 74.069
5629.95 66.39 77.3735
5632.83 72.1202 78.0816
5635.7 69.7071 76.3298
5638.58 66.9902 74.7042
5641.45 67.2902 73.7333
5644.33 70.1773 77.3886
5647.21 63.3475 75.5208
5650.08 70.0116 74.6688
5652.96 70.7208 74.9747
5655.83 64.0777 77.4138
5658.71 61.0037 73.4615
5661.59 69.4915 76.3413
5664.46 69.1027 75.7056
5667.34 62.7086 71.8214
5670.21 68.1621 73.2381
5673.09 66.4189 77.2851
5675.96 73.2292 78.083
5678.84 67.4771 75.6895
5681.71 67.8073 75.596
5684.59 66.5592 72.2516
5687.46 66.368 73.4671
5690.34 70.8996 77.2091
5693.21 67.8726 73.6736
5696.08 69.0912 73.9134
5698.96 74.6544 80.8903
5701.83 63.8315 71.5858
5704.71 72.7565 80.1885
5707.58 61.6354 72.1264
5710.45 67.397 74.7083
5713.33 67.3058 73.8304
5716.2 68.957 76.6507
5719.07 70.4543 76.9717
5721.95 63.5099 72.2452
5724.82 69.4799 75.0302
5727.69 74.3266 82.4866
5730.57 68.6772 75.7987
5733.44 65.8871 77.5656
5736.31 73.8523 81.351
5739.19 68.6548 76.7642
5742.06 63.5943 74.7852
5744.93 69.6338 77.3486
5747.8 70.8019 77.8878
5750.68 67.6223 76.691
5753.55 66.7618 73.7623
5756.42 67.5282 78.9403
5759.29 67.9932 74.0292
5762.16 70.1788 78.2145
5765.03 66.5406 74.375
5767.91 64.5184 76.0193
5770.78 69.8476 76.5524
5773.65 71.0508 80.6865
5776.52 69.6121 77.3112
5779.39 70.1819 74.5902
5782.26 67.5695 75.0886
5785.13 65.4934 76.3116
5788 69.183 76.0856
5790.88 69.0671 76.7093
5793.75 64.9733 73.3638
5796.62 71.8538 78.2705
5799.49 65.2261 72.5339
5802.36 68.626 77.4347
5805.23 68.935 75.6308
5808.1 69.116 75.1521
5810.97 68.9484 77.3233
5813.84 70.6131 77.0632
5816.71 63.4146 76.6034
5819.58 65.6811 77.6809
5822.45 66.4943 73.9068
5825.31 67.2003 81.1999
5828.18 69.4728 79.0884
5831.05 67.7247 76.4621
5833.92 67.4909 79.7317
5836.79 68.0858 76.6361
5839.66 73.8132 83.0981
5842.53 71.1984 79.0478
5845.4 70.0297 77.8835
5848.27 70.2591 76.9452
5851.13 60.9061 76.2582
5854 68.897 79.5837
5856.87 67.3235 77.9945
5859.74 66.0909 77.3816
5862.61 68.6774 80.3274
5865.47 67.7829 79.5819
5868.34 65.8889 76.0556
5871.21 66.5933 79.6555
5874.08 64.6604 75.9688
5876.94 66.4963 77.1916
5879.81 56.0917 72.162
5882.68 62.0013 73.8437
5885.55 62.2265 72.1478
5888.41 55.7786 66.0917
5891.28 65.415 74.7632
5894.15 61.8969 73.8897
5897.01 61.3008 70.9041
5899.88 62.8953 74.4461
5902.74 58.9528 76.345
5905.61 63.8853 74.7359
5908.48 61.2433 74.3462
5911.34 57.9778 74.0138
5914.21 68.5283 77.3106
5917.07 65.7741 77.2721
5919.94 63.9881 73.2429
5922.81 65.1886 74.8532
5925.67 66.4252 76.1628
5928.54 64.6203 73.1334
5931.4 62.2375 71.6512
5934.27 68.4641 77.7725
5937.13 59.0978 72.6072
5940 65.7961 74.7361
5942.86 63.3502 78.6567
5945.72 63.6391 73.7626
5948.59 62.7602 72.8457
5951.45 65.8001 76.6184
5954.32 66.2126 78.2996
5957.18 66.0131 75.5584
5960.05 63.8144 73.7496
5962.91 58.2244 74.2901
5965.77 65.2427 76.8925
5968.64 62.668 78.2492
5971.5 65.8349 76.7948
5974.36 61.2303 76.1941
5977.23 68.0179 79.271
5980.09 66.0084 77.2391
5982.95 66.6837 77.6084
5985.82 61.1915 75.8514
5988.68 65.3102 75.5837
5991.54 64.2282 75.4694
5994.4 65.6536 74.482
5997.27 64.9525 74.2066
6000.13 64.0753 74.4405
6002.99 63.564 73.8775
6005.85 61.0492 74.8803
6008.71 66.1535 75.5437
6011.58 63.9969 74.1016
6014.44 59.5782 74.5158
6017.3 63.5958 74.3203
6020.16 60.884 70.8067
6023.02 62.3236 73.3781
6025.88 62.3875 73.654
6028.74 61.7138 76.6859
6031.6 62.5968 75.885
6034.46 65.9771 76.2463
6037.33 62.6498 76.6513
6040.19 60.7387 71.4961
6043.05 67.0534 78.28
6045.91 66.0046 75.4889
6048.77 63.5907 72.8537
6051.63 66.8056 76.7306
6054.49 61.3538 76.0165
6057.35 66.6447 76.009
6060.21 66.3602 74.9632
6063.07 63.5621 72.7069
6065.93 65.659 75.545
6068.78 65.843 74.7349
6071.64 56.2138 69.9692
6074.5 60.844 75.8537
6077.36 61.4805 76.3936
6080.22 62.6831 72.8818
6083.08 63.0303 73.6947
6085.94 66.0302 77.3917
6088.8 65.4434 74.2885
6091.65 64.0298 73.7649
6094.51 63.6926 76.5613
6097.37 58.8535 72.2651
6100.23 63.7313 73.7543
6103.09 61.0089 76.4362
6105.94 65.0166 73.7995
6108.8 64.4293 73.2113
6111.66 64.6777 73.565
6114.52 69.9473 80.1279
6117.37 62.8358 73.0632
6120.23 64.2068 74.3223
6123.09 65.3954 75.0868
6125.94 59.4211 71.6832
6128.8 62.6762 71.9166
6131.66 62.9414 73.9989
6134.51 60.6912 74.6587
6137.37 60.7871 69.5578
6140.23 58.5467 73.2805
6143.08 59.3041 69.2715
6145.94 58.7117 73.0281
6148.79 61.9134 76.2152
6151.65 65.7563 73.4628
6154.5 61.6345 72.4368
6157.36 63.401 73.6594
6160.22 60.6249 70.3711
6163.07 60.6214 70.8232
6165.93 61.2412 71.5926
6168.78 56.0694 69.9105
6171.64 60.724 70.0742
6174.49 61.7526 75.2128
6177.34 58.0788 70.7092
6180.2 61.9117 71.369
6183.05 64.0453 73.5109
6185.91 61.0082 70.0563
6188.76 56.4446 69.4391
6191.61 65.8436 74.3981
6194.47 59.2803 68.3468
6197.32 63.0202 76.4119
6200.18 63.9993 73.4788
6203.03 64.107 74.0617
6205.88 65.0259 75.183
6208.73 65.6299 73.8529
6211.59 65.2688 75.2464
6214.44 65.8684 74.1007
6217.29 61.8279 71.585
6220.15 63.9898 74.2823
6223 62.3504 72.6234
6225.85 59.7637 75.9006
6228.7 65.6599 74.9471
6231.55 65.6147 74.3313
6234.41 65.3748 75.1212
6237.26 62.1425 71.9256
6240.11 60.9717 72.8582
6242.96 58.7794 72.4446
6245.81 62.588 70.6227
6248.66 61.1489 70.1744
6251.51 61.8668 74.2532
6254.37 65.9764 75.5019
6257.22 65.1213 75.8013
6260.07 64.2889 73.8259
6262.92 65.7229 74.5275
6265.77 59.4463 70.1605
6268.62 67.4287 77.2485
6271.47 59.3141 74.5126
6274.32 63.4235 72.4697
6277.17 55.6674 70.0823
6280.02 59.3217 72.7103
6282.87 60.031 70.1007
6285.72 66.512 76.3036
6288.57 61.0959 71.1471
6291.41 64.7713 75.6327
6294.26 67.3317 74.0687
6297.11 67.3673 76.9353
6299.96 63.6983 73.5193
6302.81 64.5077 74.4382
6305.66 67.9905 76.5241
6308.51 64.6813 73.7267
6311.36 64.1497 73.6924
6314.2 60.9973 69.2065
6317.05 65.3827 73.613
6319.9 64.9623 72.8828
6322.75 65.7791 74.8319
6325.59 66.9693 75.658
6328.44 59.3927 75.5475
6331.29 59.9707 72.6699
6334.14 62.4492 71.1712
6336.98 61.5039 72.9537
6339.83 60.2274 72.858
6342.68 62.7083 72.3704
6345.52 68.7714 76.3577
6348.37 66.1837 74.1588
6351.22 66.947 74.9551
6354.06 61.3224 69.3857
6356.91 64.7099 72.7882
6359.75 65.0289 72.885
6362.6 64.6885 71.4723
6365.44 57.3777 72.9083
6368.29 57.7454 73.8057
6371.14 64.1422 74.3745
6373.98 60.695 74.3889
6376.83 61.3995 74.5573
6379.67 63.6818 72.2033
6382.52 66.4831 74.186
6385.36 65.462 73.659
6388.2 65.8634 73.4179
6391.05 63.2679 70.485
6393.89 64.7815 72.5208
6396.74 65.9853 73.4057
6399.58 68.2804 75.5861
6402.42 66.5735 74.4851
6405.27 68.6818 77.2044
6408.11 66.6766 74.4311
6410.96 65.4196 75.0916
6413.8 62.8816 74.3583
6416.64 63.2304 70.4934
6419.48 65.6849 73.0899
6422.33 68.9125 77.1005
6425.17 59.3397 72.3075
6428.01 60.3263 72.8435
6430.85 63.5911 74.1281
6433.7 62.0277 69.3435
6436.54 65.461 73.512
6439.38 69.5896 75.8211
6442.22 64.9236 72.1396
6445.06 64.974 73.0234
6447.91 63.9761 70.8473
6450.75 64.9253 73.8426
6453.59 67.374 74.5439
6456.43 62.6 72.0446
6459.27 65.9928 74.0966
6462.11 63.8123 77.8645
6464.95 66.3599 72.8662
6467.79 62.2305 70.4899
6470.63 59.416 72.8231
6473.47 66.0176 73.6524
6476.31 66.1832 73.672
6479.15 58.5087 70.2274
6481.99 65.788 72.8251
6484.83 58.2995 68.5066
6487.67 64.4746 71.3307
6490.51 60.3904 71.2131
6493.35 63.0967 69.5622
6496.19 59.3324 66.115
6499.03 65.9127 74.0676
6501.87 63.162 70.2055
6504.71 65.1403 72.3673
6507.54 65.8191 72.6777
6510.38 62.7995 73.9699
6513.22 63.848 69.5904
6516.06 65.9816 73.7201
6518.9 66.1052 72.9456
6521.73 63.7615 71.4736
6524.57 62.6486 71.6711
6527.41 70.1559 78.8848
6530.25 62.9612 70.4035
6533.08 65.4788 74.2581
6535.92 66.3008 74.1408
6538.76 63.8654 71.3487
6541.59 61.3864 68.9516
6544.43 62.1469 69.7918
6547.27 64.4737 71.7922
6550.1 64.2983 69.053
6552.94 60.0161 68.1756
6555.77 63.893 71.391
6558.61 55.9959 63.378
6561.45 58.4599 64.4622
6564.28 58.0939 63.9977
6567.12 61.5203 69.11
6569.95 63.7125 69.3048
6572.79 59.497 71.5438
6575.62 56.1357 67.9734
6578.46 66.6257 74.4033
6581.29 58.0155 68.0442
6584.13 63.2228 68.8531
6586.96 65.6926 71.7822
6589.79 64.4808 70.321
6592.63 65.3808 71.3601
6595.46 60.8394 67.8213
6598.3 65.9164 71.6774
6601.13 62.939 69.9462
6603.96 62.2314 69.074
6606.8 65.6111 71.4047
6609.63 63.4774 70.4684
6612.46 63.3095 71.9618
6615.29 64.4076 70.9275
6618.13 60.9432 67.9806
6620.96 61.7643 68.7839
6623.79 61.9302 71.7001
6626.62 62.9609 69.9904
6629.46 63.5328 69.7901
6632.29 63.4734 70.4582
6635.12 56.5501 64.7657
6637.95 62.1595 69.1724
6640.78 61.9036 68.7719
6643.61 61.5613 67.7233
6646.45 60.5763 70.0023
6649.28 61.9766 69.5126
6652.11 65.4713 70.4819
6654.94 65.04 71.0639
6657.77 64.2477 70.1415
6660.6 62.0896 68.1748
6663.43 63.4176 70.6946
6666.26 66.811 72.5457
6669.09 65.0639 70.8219
6671.92 65.4794 71.1324
6674.75 61.7075 67.4899
6677.58 57.7325 68.7996
6680.41 60.5534 69.7839
6683.24 62.9146 68.8969
6686.06 60.0306 69.0114
6688.89 59.4728 65.3406
6691.72 63.0996 69.1848
6694.55 61.5364 68.1385
6697.38 62.0925 68.7903
6700.21 63.409 69.7775
6703.03 62.3228 72.6749
6705.86 63.6179 70.7176
6708.69 67.8926 74.1835
6711.52 64.2952 69.7975
6714.35 64.9937 69.6106
6717.17 67.1617 73.6892
6720 62.6039 67.6604
6722.83 61.9012 70.4046
6725.65 65.1321 70.7952
6728.48 60.1804 69.8541
6731.31 69.4134 73.3507
6734.13 61.9566 70.1645
6736.96 67.2099 72.9728
6739.78 58.2868 66.7932
6742.61 64.8792 69.0524
6745.44 63.0032 68.4777
6748.26 61.6816 68.1179
6751.09 66.9174 71.2474
6753.91 65.3879 70.4212
6756.74 66.0698 71.267
6759.56 59.1319 66.7492
6762.39 65.2766 69.5637
6765.21 61.4426 69.9708
6768.03 62.4714 67.3621
6770.86 59.5788 64.5902
6773.68 66.4795 73.1958
6776.51 62.9552 68.0629
6779.33 61.3889 66.5052
6782.15 58.4975 67.0684
6784.98 62.3462 67.7944
6787.8 61.9613 66.1935
6790.62 64.5046 70.175
6793.45 62.0047 67.0965
6796.27 58.93 68.1288
6799.09 63.0916 67.9293
6801.91 66.1645 70.6151
6804.74 63.5759 68.251
6807.56 59.2784 67.7757
6810.38 60.1381 63.7783
6813.2 63.6488 68.2755
6816.02 63.4499 68.2765
6818.85 56.7062 67.1102
6821.67 63.0908 67.1764
6824.49 58.6173 64.4537
6827.31 61.2179 65.9295
6830.13 58.7469 66.6449
6832.95 44.1314 62.5093
6835.77 59.5504 65.1028
6838.59 58.3236 67.5357
6841.41 55.4089 65.0414
6844.23 49.4914 61.3444
6847.05 58.3911 65.2507
6849.87 55.9632 63.5616
6852.69 50.895 62.5967
6855.51 55.0031 61.9345
6858.33 59.1777 63.8768
6861.15 55.548 61.9384
6863.97 48.6381 55.6343
6866.78 46.9601 52.9675
6869.6 46.5967 51.5966
6872.42 43.6936 50.1393
6875.24 48.7254 55.3174
6878.06 50.9524 56.9468
6880.88 51.1435 55.9454
6883.69 52.3494 58.4138
6886.51 50.5807 54.9466
6889.33 46.441 56.8255
6892.14 48.3544 55.2625
6894.96 51.0868 56.9726
6897.78 51.7155 57.549
6900.6 50.1265 58.3733
6903.41 53.3069 59.714
6906.23 51.5389 57.428
6909.04 55.1208 60.6788
6911.86 58.7375 63.4542
6914.68 54.6476 60.8871
6917.49 53.8839 61.36
6920.31 52.2792 60.8534
6923.12 57.4783 63.9776
6925.94 51.7958 62.2395
6928.75 54.1153 61.8614
6931.57 57.0197 63.9349
6934.38 54.7138 60.6462
6937.2 53.0258 63.023
6940.01 52.9877 62.5673
6942.82 54.5589 59.1779
6945.64 58.5866 62.297
6948.45 55.2489 59.1036
6951.27 55.2799 62.1962
6954.08 51.1519 63.1317
6956.89 57.4829 64.7736
6959.71 59.2848 64.2597
6962.52 57.6921 62.7258
6965.33 115.917 130.097
6968.14 151.91 175.644
6970.96 54.4177 62.3086
6973.77 57.2661 63.4378
6976.58 60.9119 66.2263
6979.39 48.6134 59.3239
6982.2 60.4118 66.2794
6985.02 62.3774 68.3112
6987.83 57.822 62.6419
6990.64 60.315 65.8304
6993.45 57.6165 62.0093
6996.26 60.0111 64.8159
6999.07 57.765 64.5292
7001.88 47.9542 58.5607
7004.69 59.89 67.4994
7007.5 53.1283 61.7005
7010.31 55.043 64.3127
7013.12 57.2081 62.1797
7015.93 60.1024 64.0023
7018.74 60.6328 64.7591
7021.55 61.424 65.1868
7024.36 56.4549 66.2033
7027.17 56.2331 61.6503
7029.98 52.79 61.9472
7032.79 59.5716 65.6405
7035.59 57.6258 62.7567
7038.4 54.4175 62.1016
7041.21 57.9032 60.9376
7044.02 53.6785 58.8231
7046.83 58.5054 62.449
7049.63 52.3444 62.9118
7052.44 57.4271 61.514
7055.25 55.1252 62.4443
7058.05 59.114 63.3492
7060.86 58.2812 63.972
7063.67 53.3333 62.1159
7066.47 54.6276 57.8857
7069.28 59.2346 62.5334
7072.09 58.3602 62.517
7074.89 59.8234 63.3156
7077.7 53.1459 61.5928
7080.5 57.6219 60.8875
7083.31 50.9853 58.0835
7086.12 52.5192 60.9573
7088.92 57.6101 61.122
7091.73 60.1565 62.7795
7094.53 55.3546 62.038
7097.33 53.6252 61.2772
7100.14 59.3132 63.8757
7102.94 55.4075 59.0204
7105.75 58.3077 62.8596
7108.55 55.6932 59.604
7111.35 56.1807 60.1252
7114.16 58.3912 62.1283
7116.96 56.3114 59.7949
7119.76 59.0301 64.1902
7122.57 59.9578 62.5809
7125.37 56.9993 61.0387
7128.17 56.706 59.0772
7130.97 56.4079 59.8381
7133.78 54.6034 59.537
7136.58 57.9418 61.5228
7139.38 56.2624 59.4873
7142.18 55.6697 59.434
7144.98 55.0571 59.3494
7147.79 56.5015 57.6359
7150.59 57.3029 60.0413
7153.39 54.6172 58.7051
7156.19 54.5446 59.7549
7158.99 57.1666 59.5989
7161.79 57.3173 59.7312
7164.59 54.6679 57.3004
7167.39 55.1461 58.3371
7170.19 50.5027 55.9369
7172.99 51.7208 57.7114
7175.79 50.2234 53.698
7178.59 53.8233 57.5972
7181.39 50.6279 52.3631
7184.19 50.9452 54.7304
7186.98 47.8528 51.7395
7189.78 51.6651 53.4449
7192.58 54.9369 57.2419
7195.38 51.8448 52.4688
7198.18 51.1932 55.9069
7200.98 49.0318 51.4994
7203.77 53.4889 56.4052
7206.57 58.1285 58.4451
7209.37 54.1379 56.6011
7212.16 53.2682 56.527
7214.96 54.3557 55.9058
7217.76 55.039 60.1073
7220.55 56.0738 58.5473
7223.35 53.7862 59.6453
7226.15 57.7362 59.9227
7228.94 55.1084 58.2822
7231.74 53.5996 58.5254
7234.53 55.4386 58.3986
7237.33 55.8648 56.2552
7240.13 54.8152 54.3631
7242.92 45.8927 52.8425
7245.71 56.3611 58.4858
7248.51 51.3541 53
7251.3 49.7987 52.9449
7254.1 56.5772 57.6454
7256.89 52.88 52.4673
7259.69 54.934 56.0881
7262.48 53.2534 55.544
7265.27 52.81 56.1751
7268.07 48.1174 50.8487
7270.86 55.4077 55.1036
7273.65 50.923 50.9391
7276.45 54.9134 52.1096
7279.24 55.7721 55.5953
7282.03 54.5464 55.8125
7284.82 50.2571 53.2003
7287.62 44.627 52.0322
7290.41 53.3927 56.7883
7293.2 52.2085 53.6197
7295.99 55.8774 53.3784
7298.78 48.9758 52.6216
7301.57 58.5737 56.7985
7304.36 51.511 57.5494
7307.15 54.3242 54.6462
7309.94 55.3251 56.4328
7312.73 53.8028 53.4698
7315.52 57.0387 59.4444
7318.31 41.4325 53.2846
7321.1 58.2656 58.7482
7323.89 53.8931 56.6891
7326.68 57.1958 58.9765
7329.47 60.1038 60.7793
7332.26 50.2818 61.3647
7335.05 56.5469 55.7494
7337.84 57.4064 59.6015
7340.63 54.4558 55.1452
7343.42 51.3646 55.9352
7346.2 52.7135 54.6223
7348.99 57.8148 57.7287
7351.78 60.3811 59.012
7354.57 60.5455 60.2202
7357.35 52.8145 53.4344
7360.14 52.3503 52.2158
7362.93 59.7592 60.9092
7365.71 54.6878 54.0306
7368.5 63.2312 59.2319
7371.29 52.9065 54.4009
7374.07 51.2986 58.0442
7376.86 51.0625 55.1348
7379.64 58.7014 60.1683
7382.43 52.1383 55.3036
7385.22 57.8899 57.1945
7388 57.7182 58.8846
7390.79 56.2352 55.4957
7393.57 59.8921 58.2927
7396.35 56.6233 55.149
7399.14 47.17 54.8971
7401.92 61.4887 58.8071
7404.71 46.0633 51.3337
7407.49 58.4547 57.9215
7410.27 53.8831 52.8293
7413.06 57.8 56.636
7415.84 50.8758 51.6263
7418.62 53.7094 54.8488
7421.41 60.0069 61.64
7424.19 53.8516 53.8442
7426.97 57.2271 55.4867
7429.75 52.566 52.7383
7432.54 46.3007 51.7811
7435.32 56.2656 55.1543
7438.1 57.02 56.2295
7440.88 55.9191 57.4514
7443.66 57.5091 56.2366
7446.44 59.9638 59.742
7449.22 58.085 57.48
7452 63.0446 61.6022
7454.78 57.9844 58.0908
7457.56 54.1808 55.1003
7460.34 54.8991 56.8962
7463.12 61.5627 60.0504
7465.9 56.6436 56.4568
7468.68 55.7622 56.8183
7471.46 60.5737 59.7727
7474.24 58.3283 55.9871
7477.02 52.7778 59.0345
7479.8 48.9139 55.8334
7482.58 60.0586 58.5397
7485.36 59.7443 58.3814
7488.13 56.0781 55.5531
7490.91 52.3775 55.9957
7493.69 61.7559 59.6231
7496.47 59.6592 57.4189
7499.24 57.3237 55.4411
7502.02 56.7627 57.4649
7504.8 52.4228 52.7506
7507.57 59.6182 57.3713
7510.35 53.4937 53.7016
7513.13 57.6756 58.1703
7515.9 56.7675 52.8673
7518.68 54.0272 50.4279
7521.45 45.0121 53.479
7524.23 56.9093 58.2818
7527 62.7232 58.4201
7529.78 54.3423 51.8227
7532.55 54.4685 53.5302
7535.33 53.6203 50.3068
7538.1 53.9363 51.3989
7540.88 51.8246 49.9087
7543.65 53.9151 51.824
7546.42 47.1025 50.0079
7549.2 53.5556 52.5133
7551.97 51.0655 50.7875
7554.74 54.8817 52.762
7557.52 55.6874 51.9008
7560.29 53.3958 51.7096
7563.06 51.1049 50.4696
7565.83 53.5034 51.1386
7568.61 50.5711 48.7757
7571.38 54.1724 55.5884
7574.15 45.8364 48.9076
7576.92 55.7289 52.1258
7579.69 53.7729 52.4194
7582.46 45.4397 47.9577
7585.23 48.4142 47.9775
7588 48.8846 44.988
7590.78 37.4184 40.3265
7593.55 30.1888 33.9266
7596.32 28.02 26.0369
7599.09 20.6305 19.5985
7601.85 19.8437 17.9126
7604.62 16.2939 16.8233
7607.39 19.9954 17.9646
7610.16 24.7751 23.2818
7612.93 30.1238 28.2402
7615.7 34.7859 32.2271
7618.47 32.3205 28.8564
7621.24 29.6699 29.1787
7624 34.036 31.7673
7626.77 30.0172 27.9465
7629.54 34.104 29.2183
7632.31 28.3221 27.2905
7635.07 31.3994 30.7425
7637.84 30.0677 28.4369
7640.61 33.9336 31.7489
7643.37 34.8529 32.896
7646.14 35.1529 33.6617
7648.91 36.9928 34.2946
7651.67 42.2189 38.414
7654.44 39.9495 36.9689
7657.2 41.2774 38.7868
7659.97 43.776 41.2115
7662.73 40.6628 38.6154
7665.5 42.1594 40.9673
7668.26 47.6109 42.5814
7671.03 46.0061 41.7805
7673.79 48.5794 45.4318
7676.55 49.4017 46.1891
7679.32 52.4134 48.3249
7682.08 49.4671 44.6664
7684.85 50.5607 49.6198
7687.61 52.0565 47.5749
7690.37 43.9172 43.6798
7693.13 51.0011 46.3555
7695.9 51.4885 49.4511
7698.66 47.7911 48.1174
7701.42 51.3581 46.0996
7704.18 54.7781 49.365
7706.94 54.2593 45.4866
7709.7 53.7957 46.2828
7712.47 53.2781 49.6181
7715.23 54.9432 50.7218
7717.99 29.6614 48.1048
7720.75 52.0684 49.5694
7723.51 52.063 47.0521
7726.27 50.4319 47.2881
7729.03 47.9337 47.6181
7731.79 51.353 48.8493
7734.55 49.9582 48.0915
7737.31 52.8715 50.0689
7740.07 46.7366 45.1267
7742.82 51.6554 48.8649
7745.58 49.0048 46.9568
7748.34 49.3735 46.1376
7751.1 42.72 46.8965
7753.86 48.1288 47.9434
7756.62 40.5665 49.5493
7759.37 51.0646 46.4397
7762.13 48.7926 44.5006
7764.89 50.3282 49.4515
7767.64 44.1228 47.5139
7770.4 52.8735 50.1593
7773.16 41.5733 44.5423
7775.91 45.4615 42.6403
7778.67 45.0346 44.2487
7781.42 44.8258 46.8347
7784.18 51.6365 48.893
7786.94 51.7707 49.256
7789.69 50.2906 46.9431
7792.45 49.8042 44.4545
7795.2 48.5376 45.6781
7797.95 52.7306 46.9098
7800.71 55.3636 49.0507
7803.46 48.5323 47.6323
7806.22 52.876 47.0545
7808.97 54.0754 46.1322
7811.72 43.2206 50.6588
7814.48 44.3973 45.922
7817.23 49.8914 45.4253
7819.98 36.778 45.9741
7822.73 52.7022 46.1437
7825.49 43.9605 46.8736
7828.24 51.3771 49.9567
7830.99 53.2667 52.0553
7833.74 57.3667 57.3783
7836.49 61.1789 57.0859
7839.24 60.5879 56.771
7841.99 58.616 51.5286
7844.75 43.3442 48.2789
7847.5 55.7693 47.6237
7850.25 48.6087 40.3364
7853 54.6237 44.6577
7855.75 47.0294 41.8919
7858.5 51.6717 44.8443
7861.24 38.4132 48.917
7863.99 54.4074 48.9534
7866.74 45.9833 42.3322
7869.49 51.5253 46.6099
7872.24 46.4343 41.8526
7874.99 45.7653 44.5979
7877.74 48.3231 40.3987
7880.48 47.7482 43.1189
7883.23 46.001 38.0231
7885.98 56.304 43.9778
7888.73 50.8741 44.6479
7891.47 41.8974 45.1408
7894.22 49.4164 46.284
7896.96 47.3272 42.0936
7899.71 43.8113 43.1861
7902.46 46.9515 43.4863
7905.2 46.6007 44.473
7907.95 48.94 37.9045
7910.69 49.7326 43.9712
7913.44 49.8102 36.6847
7916.18 43.637 42.5001
7918.93 43.8668 41.8504
7921.67 29.852 40.0324
7924.42 39.0468 44.8745
7927.16 52.3606 43.7949
7929.9 47.126 41.9123
7932.65 51.1673 46.333
7935.39 47.8897 43.282
7938.13 38.471 36.5701
7940.88 50.7543 44.0606
7943.62 42.7093 39.1981
7946.36 44.852 38.5733
7949.1 51.4244 45.4833
7951.84 56.0259 48.669
7954.59 49.3877 41.2614
7957.33 45.9571 40.6605
7960.07 52.4392 40.9382
7962.81 47.6963 42.5918
7965.55 41.0015 38.6953
7968.29 43.8748 37.7429
7971.03 52.319 41.3676
7973.77 51.3873 41.527
7976.51 53.6353 41.472
7979.25 50.5455 42.1153
7981.99 50.1295 40.2722
7984.73 48.1504 40.8874
7987.47 42.1546 42.7019
7990.21 44.7471 39.9389
7992.94 50.7251 41.0448
7995.68 56.6023 51.7769
7998.42 46.5383 38.7485
8001.16 46.4348 38.9937
8003.9 50.1937 42.7197
8006.63 49.3172 41.2946
8009.37 51.3916 42.1685
8012.11 39.7092 37.6221
8014.84 54.3418 42.818
8017.58 52.3947 41.9383
8020.32 51.483 44.8201
8023.05 54.5045 44.2094
8025.79 39.8422 40.5584
8028.52 49.8411 36.5935
8031.26 41.1934 42.7006
8033.99 56.765 44.5039
8036.73 47.6212 39.1358
8039.46 53.9284 43.0016
8042.2 50.5556 42.6308
8044.93 53.6032 44.0517
8047.66 48.7781 39.8935
8050.4 47.2743 36.2968
8053.13 54.3646 42.1706
8055.86 51.1938 39.6555
8058.6 44.1245 41.9029
8061.33 51.2348 41.3607
8064.06 51.7466 41.2243
8066.79 47.7848 42.1717
8069.52 53.3176 44.7176
8072.26 49.809 38.4511
8074.99 49.5556 40.1587
8077.72 50.8991 42.7765
8080.45 51.4584 41.5571
8083.18 51.6222 41.2919
8085.91 46.9497 38.3596
8088.64 42.9048 37.8744
8091.37 49.7501 39.5834
8094.1 51.7253 39.3854
8096.83 49.6366 37.7343
8099.56 47.1587 38.1586
8102.29 51.949 39.6853
8105.02 45.4293 38.2462
8107.74 49.4696 35.042
8110.47 50.24 40.9804
8113.2 46.5441 39.0225
8115.93 51.5952 39.2639
8118.66 50.0203 38.4158
8121.38 48.9655 38.1278
8124.11 50.6778 40.2727
8126.84 52.6039 41.841
8129.56 49.2159 39.2524
8132.29 41.0988 32.7161
8135.02 47.1942 34.4748
8137.74 44.0599 37.9895
8140.47 46.2227 33.6197
8143.19 45.8882 35.0209
8145.92 44.5441 39.969
8148.64 44.3288 34.6989
8151.37 46.7282 35.1607
8154.09 47.5497 37.4551
8156.81 45.611 36.6402
8159.54 42.4599 34.845
8162.26 44.6767 34.1072
8164.99 44.6087 35.0066
8167.71 48.5361 36.6909
8170.43 45.8471 33.1604
8173.15 47.0817 35.7359
8175.88 43.4815 33.191
8178.6 47.7563 37.1757
8181.32 44.3964 33.7118
8184.04 45.9172 33.7611
8186.76 46.1278 34.8351
8189.49 51.3837 36.7933
8192.21 50.4422 39.2059
8194.93 45.2955 32.0521
8197.65 44.4056 33.6652
8200.37 44.6978 33.9576
8203.09 52.4957 37.9463
8205.81 47.8562 34.6433
8208.53 45.4289 35.521
8211.25 47.4271 35.5029
8213.97 45.9457 35.7822
8216.68 48.3866 37.3848
8219.4 45.3516 33.2079
8222.12 49.4639 35.6619
8224.84 45.8182 32.597
8227.56 37.3031 26.9563
8230.27 47.8913 35.4045
8232.99 41.4067 30.287
8235.71 47.8253 34.395
8238.42 49.9169 34.268
8241.14 44.5034 33.7713
8243.86 48.8923 33.9212
8246.57 51.983 35.998
8249.29 51.1464 38.8172
8252 51.7233 37.6511
8254.72 43.3126 28.3393
8257.44 49.2977 34.3109
8260.15 46.4552 33.5588
8262.86 48.2161 36.1785
8265.58 46.2043 33.5862
8268.29 45.8902 34.2328
8271.01 48.851 35.3083
8273.72 45.3496 35.0856
8276.43 46.7089 35.0864
8279.15 48.816 29.7495
8281.86 42.3179 30.8028
8284.57 37.2364 19.7698
8287.28 45.0886 28.1241
8290 28.9629 28.282
8292.71 29.8971 26.0056
8295.42 46.888 30.6612
8298.13 46.3744 36.6543
8300.84 31.4222 16.9431
8303.55 47.5957 31.017
8306.26 36.0658 31.7368
8308.97 46.6338 33.6443
8311.68 38.3426 28.453
8314.39 49.8875 35.916
8317.1 44.3958 31.9471
8319.81 44.3307 31.9414
8322.52 48.3255 32.5808
8325.23 44.9176 30.9898
8327.94 45.8696 30.9779
8330.65 48.8443 35.1428
8333.35 47.9465 32.1608
8336.06 46.819 30.0922
8338.77 50.7038 29.5262
8341.48 56.4259 28.9899
8344.18 51.8726 31.1646
8346.89 39.3549 25.7986
8349.6 17.4083 26.28
8352.3 41.463 34.5074
8355.01 36.5465 27.1252
8357.71 40.2785 34.1787
8360.42 42.3477 38.092
8363.12 43.775 27.4979
8365.83 48.6087 30.3946
8368.53 51.6097 31.7643
8371.24 44.5308 33.262
8373.94 46.2152 31.3819
8376.65 42.1715 31.142
8379.35 48.5267 37.9383
8382.05 48.0899 29.3614
8384.76 47.104 31.0022
8387.46 42.8076 28.9479
8390.16 55.8905 36.3653
8392.86 52.6291 36.8035
8395.57 60.0691 33.8573
8398.27 350.431 243.823
8400.97 292.458 193.351
8403.67 30.9543 24.7225
8406.37 39.2339 30.1197
8409.07 49.2429 33.3642
8411.77 37.9923 28.6452
8414.47 45.0369 28.2378
8417.17 35.3026 30.5346
8419.87 38.2169 30.4908
8422.57 41.1214 28.5453
8425.27 46.1919 28.3291
8427.97 26.7278 25.2746
8430.67 54.1594 26.7477
8433.37 10.6221 24.1226
8436.07 25.506 23.9537
8438.76 24.0025 16.4954
8441.46 35.642 21.4703
8444.16 36.9016 25.2996
8446.86 43.771 26.5108
8449.55 44.546 28.4801
8452.25 45.6723 30.6533
8454.95 38.5685 28.163
8457.64 45.6699 27.543
8460.34 45.4369 30.2438
8463.03 42.6553 29.0942
8465.73 52.7888 29.9618
8468.42 19.3572 23.5071
8471.12 34.9308 27.7453
8473.81 48.904 30.2193
8476.51 44.3007 26.345
8479.2 45.9102 28.6361
8481.9 48.8373 31.9852
8484.59 40.9218 23.4449
8487.28 49.2137 29.7633
8489.98 45.5289 28.7268
8492.67 39.6072 29.4441
8495.36 34.2291 24.9665
8498.05 44.7692 23.1525
8500.74 42.9792 21.3174
8503.44 44.7175 28.1112
8506.13 47.1461 20.2383
8508.82 42.4973 22.8091
8511.51 43.7199 27.7846
8514.2 49.1616 26.9222
8516.89 44.2261 26.0758
8519.58 47.0038 28.3409
8522.27 45.0282 27.166
8524.96 45.8521 26.0488
8527.65 44.4402 27.9937
8530.34 41.9347 25.2222
8533.03 44.8556 28.4646
8535.71 42.6842 29.6082
8538.4 38.6151 25.2965
8541.09 39.328 25.4142
8543.78 39.7768 20.3663
8546.46 42.3549 22.7368
8549.15 39.0441 26.1561
8551.84 43.7237 28.981
8554.53 47.3358 30.4887
8557.21 43.879 31.286
8559.9 47.7589 31.7576
8562.58 46.0107 27.6567
8565.27 44.0397 25.3931
8567.95 44.0633 28.18
8570.64 38.6784 22.4315
8573.32 48.2525 28.4115
8576.01 45.5724 27.668
8578.69 45.5483 26.52
8581.38 45.056 27.6887
8584.06 43.7964 22.4853
8586.74 47.4342 25.9186
8589.43 48.3853 27.906
8592.11 43.9844 27.0444
8594.79 44.9517 26.5552
8597.47 44.4009 25.7067
8600.15 47.4298 30.5936
8602.84 44.2939 24.9524
8605.52 43.0185 27.2303
8608.2 45.5646 24.7866
8610.88 39.0367 24.1599
8613.56 48.9797 28.5584
8616.24 44.0324 24.4015
8618.92 39.7637 20.6072
8621.6 44.8311 25.3324
8624.28 45.8289 21.9756
8626.96 47.2271 27.8084
8629.64 44.1509 26.6822
8632.32 52.2553 25.9376
8634.99 38.7985 27.6945
8637.67 42.6086 19.3739
8640.35 45.0771 24.2229
8643.03 43.5012 26.079
8645.71 44.3265 25.3644
8648.38 40.6697 27.338
8651.06 44.9114 27.7269
8653.74 40.2418 27.7666
8656.41 48.1555 20.9101
8659.09 39.2371 20.684
8661.76 40.2719 27.1502
8664.44 40.9033 21.5925
8667.11 40.519 21.0105
8669.79 53.5805 24.2947
8672.46 40.8009 25.925
8675.14 41.2594 26.0643
8677.81 39.7358 24.6369
8680.48 42.9037 23.7539
8683.16 48.1936 24.4148
8685.83 40.6645 24.9532
8688.5 46.2046 24.8037
8691.18 43.0304 22.0957
8693.85 44.0093 23.7769
8696.52 46.5245 24.4075
8699.19 49.7247 24.2302
8701.86 40.4227 24.7349
8704.53 45.3048 22.0431
8707.21 46.0107 23.8538
8709.88 44.747 25.1544
8712.55 44.9374 25.292
8715.22 43.3596 23.226
8717.89 48.2024 24.3024
8720.56 45.3681 23.1856
8723.22 44.3152 22.9745
8725.89 49.2451 25.8907
8728.56 43.673 24.2371
8731.23 43.4974 22.6143
8733.9 45.0251 22.5417
8736.57 50.1179 27.4856
8739.23 43.8701 24.9327
8741.9 44.8368 22.4119
8744.57 43.4777 21.4748
8747.23 50.5577 26.4465
8749.9 43.1769 21.8959
8752.57 43.6831 23.315
8755.23 50.9735 27.5932
8757.9 51.2724 28.7318
8760.56 40.8025 18.0922
8763.23 41.6897 24.0681
8765.89 36.7139 17.8145
8768.56 40.2382 11.2394
8771.22 44.6439 26.7072
8773.89 38.9446 20.1539
8776.55 52.1334 23.9928
8779.21 44.7618 20.4841
8781.88 42.0085 16.0001
8784.54 40.8543 20.4002
8787.2 43.3977 18.0931
8789.86 41.5733 24.0423
8792.52 40.0047 22.1125
8795.19 39.2663 18.9557
8797.85 37.3383 15.7916
8800.51 42.3941 21.1229
8803.17 48.163 21.9391
8805.83 41.7132 16.782
8808.49 40.8262 21.699
8811.15 38.4516 18.778
8813.81 45.3554 22.2594
8816.47 43.1499 22.3375
8819.13 43.1036 22.2054
8821.79 43.8804 30.6856
8824.44 47.2663 22.636
8827.1 65.9723 30.5968
8829.76 38.3809 12.9699
8832.42 29.5214 16.8433
8835.07 38.3913 10.6348
8837.73 37.6993 8.95336
8840.39 42.8388 15.4514
8843.04 39.965 15.7417
8845.7 37.6579 18.8075
8848.36 47.985 21.536
8851.01 42.1108 22.2901
8853.67 39.0149 18.6082
8856.32 46.3032 19.3184
8858.98 44.7286 17.7184
8861.63 41.9857 19.8135
8864.28 43.9779 23.3794
8866.94 41.5744 21.9588
8869.59 49.6992 21.7863
8872.24 43.8061 19.436
8874.9 39.7214 10.4931
8877.55 48.4505 19.4795
8880.2 46.6642 20.627
8882.85 53.1684 29.7473
8885.51 43.9009 18.4103
8888.16 44.2484 17.9242
8890.81 45.5136 19.1821
8893.46 32.0217 6.12207
8896.11 41.0846 15.4936
8898.76 40.5609 15.8762
8901.41 44.6445 27.1614
8904.06 48.5626 19.8981
8906.71 32.5454 12.0327
8909.36 44.3886 21.9172
8912.01 47.7489 16.8566
8914.66 49.1861 19.5916
8917.3 44.552 21.5326
8919.95 46.2313 24.0587
8922.6 49.2871 14.9871
8925.25 33.7388 4.56772
8927.89 32.9114 6.15106
8930.54 38.1213 8.20983
8933.19 42.8865 12.5006
8935.83 41.5091 17.7894
8938.48 44.9932 17.4902
8941.12 41.4943 20.4646
8943.77 44.6522 12.7405
8946.41 39.8874 17.5728
8949.06 41.1076 16.9009
8951.7 31.5312 13.6341
8954.35 39.8381 13.5391
8956.99 46.0428 17.1478
8959.63 46.0338 16.5372
8962.28 33.919 10.6238
8964.92 35.3311 3.81943
8967.56 34.6165 8.09643
8970.2 31.0263 9.33554
8972.85 36.3226 11.7002
8975.49 37.2662 14.4884
8978.13 45.3206 13.7622
8980.77 38.8125 16.1433
8983.41 35.3664 16.2836
8986.05 40.4855 19.7553
8988.69 36.5881 14.7708
8991.33 36.8712 19.8005
8993.97 29.2334 18.6547
8996.61 33.9451 9.11771
8999.25 41.5301 16.7978
9001.89 38.01 16.4002
9004.53 39.0473 7.62756
9007.16 37.6937 12.827
9009.8 33.937 12.8325
9012.44 43.3231 13.7
9015.08 37.744 13.6378
9017.71 42.3867 17.8154
9020.35 41.0271 16.434
9022.99 42.8927 15.2547
9025.62 41.9232 16.06
9028.26 40.7694 15.6736
9030.89 40.9306 13.1494
9033.53 46.4925 17.5296
9036.16 44.0581 17.0745
9038.8 44.6074 17.8956
9041.43 44.7578 18.6899
9044.07 38.1344 15.6318
9046.7 44.9263 17.1071
9049.33 40.4617 15.4603
9051.96 35.27 12.8039
9054.6 37.0517 17.0493
9057.23 38.1243 8.70955
9059.86 33.9266 12.0478
9062.49 43.1761 15.9273
9065.12 43.5851 18.5948
