wavelength spectrum_sum 3smoothed_sum spectrum_optimal 3smoothed_optimal
3508.82 30.8817 27.9904 16.7469 17.4517
3511.74 53.0894 54.6438 35.6082 41.1849
3514.65 79.9602 63.1184 71.1997 49.6628
3517.57 56.3057 67.0043 42.1805 53.6591
3520.48 64.747 56.7665 47.5972 44.4495
3523.39 49.2467 53.203 43.5707 38.0156
3526.31 45.6152 47.8491 22.879 35.4825
3529.22 48.6853 55.888 39.9979 39.3657
3532.14 73.3635 58.9644 55.2202 42.7732
3535.05 54.8445 65.8729 33.1016 49.0321
3537.96 69.4107 67.8084 58.7745 51.3559
3540.88 79.1699 69.8109 62.1917 59.7163
3543.79 60.8521 72.2936 58.1827 63.2787
3546.7 76.8588 78.2009 69.4617 69.7514
3549.62 96.8918 82.9632 81.6099 69.2518
3552.53 75.1388 81.65 56.6839 69.1102
3555.45 72.9194 75.8207 69.0369 68.8778
3558.36 79.4039 81.7014 80.9126 68.7776
3561.27 92.7807 83.8764 56.3834 65.4449
3564.19 79.4444 75.765 59.0387 56.8555
3567.1 55.0699 67.2934 55.1444 55.4136
3570.02 67.3659 62.3378 52.0578 56.0894
3572.93 64.5775 67.4584 61.0659 58.0373
3575.84 70.4319 70.256 60.9883 60.2929
3578.76 75.7585 71.1978 58.8245 52.3717
3581.67 67.403 67.605 37.3023 50.6947
3584.58 59.6534 65.6852 55.9573 48.4739
3587.5 69.9991 65.1509 52.1622 59.5122
3590.41 65.8 77.3352 70.4172 69.6087
3593.33 96.2064 85.2751 86.2466 82.9873
3596.24 93.819 96.3712 92.2981 87.1145
3599.15 99.0883 92.2701 82.799 79.9609
3602.07 83.903 85.9594 64.7857 73.7783
3604.98 74.8871 76.0385 73.7502 64.3268
3607.9 69.3255 79.8416 54.4445 66.5734
3610.81 95.3121 86.9652 71.5254 71.9876
3613.72 96.2581 92.669 89.9929 79.9953
3616.64 86.4369 93.0546 78.4675 80.3237
3619.55 96.4687 100.489 72.5107 87.6619
3622.46 118.56 108.297 112.008 96.1804
3625.38 109.863 123.528 104.023 117.801
3628.29 142.16 120.042 137.373 114.157
3631.2 108.102 121.213 101.074 112.953
3634.12 113.378 118.41 100.413 113.748
3637.03 133.751 118.388 139.756 110.806
3639.95 108.034 114.519 92.2486 104.623
3642.86 101.771 107.532 81.8647 90.7942
3645.77 112.791 110.719 98.2692 94.2018
3648.69 117.596 117.527 102.472 102.616
3651.6 122.195 120.226 107.106 105.239
3654.51 120.885 121.093 106.14 110.638
3657.43 120.198 123.683 118.668 117.275
3660.34 129.966 124.53 127.016 121.726
3663.25 123.426 127.403 119.493 119.221
3666.17 128.817 129.374 111.154 112.449
3669.08 135.879 124.888 106.699 108.378
3672 109.968 125.998 107.28 115.838
3674.91 132.145 128.705 133.537 122.148
3677.82 144.001 130.837 125.627 124.922
3680.74 116.364 125.616 115.602 111.319
3683.65 116.482 124.895 92.729 107.007
3686.56 141.838 126.624 112.691 108.547
3689.48 121.552 133.863 120.22 118.576
3692.39 138.2 133.415 122.818 125.917
3695.3 140.492 143.123 134.711 125.711
3698.22 150.676 137.525 119.603 121.732
3701.13 121.408 140.351 110.883 115.971
3704.04 148.97 143.005 117.427 123.733
3706.96 158.637 161.279 142.889 137.89
3709.87 176.23 167.784 153.353 151.027
3712.78 168.486 163.372 156.84 140.464
3715.7 145.399 156.179 111.2 134.219
3718.61 154.653 154.95 134.617 127.593
3721.52 164.798 150.067 136.961 136.441
3724.44 130.749 142.042 137.745 130.531
3727.35 130.578 146.274 116.888 135.158
3730.26 177.496 149.226 150.841 137.121
3733.18 139.604 164.155 143.633 146.814
3736.09 175.365 148.323 145.967 137.426
3739 130 155.966 122.679 140.687
3741.92 162.532 151.836 153.416 139.705
3744.83 162.976 161.843 143.021 146.603
3747.74 160.019 167.866 143.373 153.336
3750.66 180.604 172.096 173.615 160.502
3753.57 175.666 171.223 164.517 162.633
3756.48 157.398 172.108 149.766 159.026
3759.4 183.259 178.776 162.794 162.77
3762.31 195.671 181.283 175.75 160.179
3765.22 164.917 176.254 141.992 160.406
3768.14 168.173 183.212 163.477 167.246
3771.05 216.547 192.741 196.268 180.322
3773.96 193.502 205.958 181.221 192.836
3776.88 207.825 203.859 201.018 187.623
3779.79 210.248 214.382 180.629 198.413
3782.7 225.073 230.049 213.593 210.525
3785.61 254.825 224.205 237.352 211.629
3788.53 192.718 218.617 183.942 202.607
3791.44 208.309 199.315 186.526 189.283
3794.35 196.919 207.287 197.381 192.566
3797.27 216.634 211.417 193.791 205.087
3800.18 220.698 231.356 224.089 218.91
3803.09 256.736 232.873 238.85 220.139
3806.01 221.187 234.874 197.48 217.594
3808.92 226.699 239.061 216.452 221.507
3811.83 269.298 253.503 250.59 235.57
3814.74 264.511 260.126 239.668 244.839
3817.66 246.57 250.111 244.26 229.108
3820.57 239.253 235.719 203.395 215.968
3823.48 221.335 230.318 200.25 202.202
3826.4 230.366 216.818 202.961 195.546
3829.31 198.753 209.661 183.426 186.647
3832.22 199.864 203.638 173.552 184.47
3835.13 212.297 212.55 196.432 195.475
3838.05 225.489 224.368 216.44 210.91
3840.96 235.318 241.786 219.859 227.103
3843.87 264.552 258.308 245.009 238.601
3846.78 275.055 263.851 250.934 249.725
3849.7 251.947 263.285 253.233 249.822
3852.61 262.852 245.209 245.299 229.243
3855.52 220.828 250.794 189.199 226.64
3858.44 268.701 242.176 245.422 217.811
3861.35 236.998 258.402 218.811 238.382
3864.26 269.507 251.916 250.913 234.382
3867.17 249.244 260.604 233.423 244.119
3870.09 263.061 255.416 248.022 235.13
3873 253.945 251.526 223.945 233.676
3875.91 237.571 256.451 229.062 231.129
3878.82 277.837 254.172 240.381 231.355
3881.74 247.109 246.888 224.622 220.178
3884.65 215.718 249.107 195.532 225.273
3887.56 284.494 255.77 255.663 231.052
3890.47 267.099 277.155 241.959 250.485
3893.39 279.87 275.19 253.832 244.821
3896.3 278.6 283.361 238.672 254.843
3899.21 291.613 285.255 272.025 255.905
3902.12 285.553 299.865 257.02 281.534
3905.03 322.43 299.149 315.557 289.243
3907.95 289.463 311.997 295.153 304.758
3910.86 324.097 312.314 303.564 297.678
3913.77 323.382 311.781 294.317 288.288
3916.68 287.863 298.075 266.984 276.858
3919.6 282.98 277.426 269.274 262.778
3922.51 261.436 272.388 252.077 260.832
3925.42 272.748 263.782 261.145 247.847
3928.33 257.163 255.902 230.32 235.305
3931.24 237.794 240.304 214.449 212.069
3934.16 225.956 247.515 191.437 219.292
3937.07 278.795 253.895 251.991 220.599
3939.98 256.934 283.09 218.37 257.326
3942.89 313.543 287.618 301.617 258.792
3945.8 292.378 303.91 256.388 278.634
3948.72 305.809 306.63 277.897 275.498
3951.63 321.703 313.612 292.209 296.137
3954.54 313.324 305.92 318.305 287.64
3957.45 282.734 292.061 252.406 274.44
3960.36 280.125 265.457 252.607 238.48
3963.28 233.511 253.738 210.426 224.519
3966.19 247.577 248.875 210.523 224.403
3969.1 265.538 269.943 252.26 241.266
3972.01 296.714 302.486 261.017 278.087
3974.92 345.206 326.537 320.986 294.556
3977.84 337.689 341.583 301.666 309.99
3980.75 341.854 345.103 307.316 319.721
3983.66 355.766 368.968 350.181 354.893
3986.57 409.284 384.451 407.181 372.223
3989.48 388.303 412.44 359.308 393.307
3992.39 439.732 436.617 413.434 412.356
3995.31 481.816 451.803 464.326 416.931
3998.22 433.86 442.075 373.033 400.307
4001.13 410.548 417.554 363.563 376.261
4004.04 408.254 423.777 392.188 392.493
4006.95 452.53 440.933 421.729 403.365
4009.86 462.014 456.222 396.177 415.338
4012.77 454.121 458.494 428.109 421.868
4015.69 459.347 461.889 441.317 435.451
4018.6 472.2 470.023 436.925 440.121
4021.51 478.523 472.737 442.12 438.665
4024.42 467.488 477.418 436.95 440.087
4027.33 486.244 487.926 441.192 454.197
4030.24 510.044 494.061 484.45 471.263
4033.15 485.895 481.25 488.147 466.37
4036.07 447.81 490.374 426.514 469.668
4038.98 537.416 462.754 494.344 436.785
4041.89 403.038 471.404 389.496 443.561
4044.8 473.757 470.592 446.844 440.781
4047.71 534.982 492.333 486.002 470.126
4050.62 468.26 508.797 477.533 489.03
4053.53 523.149 487.675 503.555 473.542
4056.44 471.615 512.008 439.539 480.123
4059.35 541.261 488.49 497.275 462.629
4062.27 452.595 506.292 451.074 481.846
4065.18 525.02 493.375 497.188 479.141
4068.09 502.508 507.311 489.161 482.472
4071 494.404 497.979 461.066 475.073
4073.91 497.025 489.051 474.992 463.206
4076.82 475.723 483.786 453.561 459.129
4079.73 478.611 489.272 448.833 460.676
4082.64 513.483 485.887 479.633 463.771
4085.55 465.568 521.215 462.847 485.62
4088.46 584.594 544.906 514.38 513.97
4091.37 584.558 570.58 564.682 532.706
4094.29 542.588 564.689 519.056 531.975
4097.2 566.923 554.275 512.186 519.429
4100.11 553.314 558.723 527.045 521.822
4103.02 555.933 539.092 526.235 507.242
4105.93 508.028 545.87 468.444 508.619
4108.84 573.648 550.723 531.177 510.251
4111.75 570.494 552.068 531.133 508.366
4114.66 512.061 536.202 462.788 493.385
4117.57 526.053 547.418 486.236 513.465
4120.48 604.141 578.782 591.372 553.39
4123.39 606.154 604.774 582.561 582.281
4126.3 604.027 585.719 572.911 549.786
4129.21 546.976 583.496 493.886 550.991
4132.12 599.485 589.077 586.175 562.334
4135.03 620.769 614.535 606.942 597.217
4137.94 623.35 606.238 598.533 586.413
4140.85 574.595 613.346 553.763 583.559
4143.76 642.093 613.886 598.379 586.129
4146.67 624.971 616.895 606.244 579.216
4149.58 583.621 618.311 533.023 589.06
4152.49 646.341 616.992 627.912 581.076
4155.4 621.014 636.235 582.293 597.216
4158.31 641.349 637.161 581.445 592.021
4161.22 649.12 635.085 612.326 600.305
4164.13 614.786 614.63 607.144 592.369
4167.04 579.984 614.283 557.638 592.817
4169.95 648.08 626.021 613.669 590.938
4172.86 649.998 659.47 601.507 603.981
4175.77 680.333 644.759 596.765 585.375
4178.68 603.946 633.032 557.854 576.51
4181.59 614.817 602.097 574.911 563.364
4184.5 587.528 604.146 557.327 567.999
4187.41 610.093 634.675 571.758 591.823
4190.32 706.403 655.674 646.386 604.073
4193.23 650.525 663.713 594.076 602.875
4196.14 634.212 639.431 568.164 594.877
4199.05 633.557 636.551 622.391 599.694
4201.96 641.884 630.806 608.529 599.663
4204.87 616.975 651.728 568.069 613.12
4207.78 696.324 639.583 662.762 596.394
4210.69 605.449 661.945 558.352 625.136
4213.6 684.06 631.424 654.294 602.792
4216.51 604.763 662.95 595.731 646.735
4219.42 700.025 647.933 690.18 618.044
4222.33 639.011 647.624 568.221 614.344
4225.24 603.837 633.677 584.631 589.227
4228.15 658.182 639.346 614.829 601.959
4231.05 656.02 678.442 606.418 637.81
4233.96 721.124 672.837 692.184 633.195
4236.87 641.366 688.353 600.982 663.142
4239.78 702.569 652.432 696.261 619.542
4242.69 613.36 640.136 561.382 612.982
4245.6 604.479 651.914 581.304 607.676
4248.51 737.902 695.942 680.343 650.944
4251.42 745.446 708.71 691.184 668.287
4254.33 642.782 695.649 633.333 658.649
4257.24 698.719 678.656 651.431 652.247
4260.15 694.467 698.267 671.978 667.996
4263.05 701.615 693.33 680.58 664.183
4265.96 683.907 689.023 639.99 649.827
4268.87 681.547 685.197 628.911 639.668
4271.78 690.137 678.577 650.102 632.351
4274.69 664.046 699.149 618.04 655.791
4277.6 743.264 704.497 699.233 668.735
4280.51 706.18 705.481 688.932 675.745
4283.42 667.001 671.796 639.071 650.334
4286.32 642.207 664.285 622.997 627.764
4289.23 683.646 665.552 621.223 621.736
4292.14 670.804 659.645 620.988 610.8
4295.05 624.484 631.746 590.19 592.065
4297.96 599.95 617.296 565.018 587.358
4300.87 627.454 593.167 606.865 561.962
4303.77 552.098 593.917 514.002 565.192
4306.68 602.199 592.652 574.709 553.667
4309.59 623.66 635.218 572.289 606.373
4312.5 679.796 672.76 672.12 638.389
4315.41 714.824 702.53 670.757 671.726
4318.32 712.969 700.351 672.301 657.082
4321.22 673.259 700.098 628.188 659.403
4324.13 714.066 718.493 677.721 685.051
4327.04 768.154 745.814 749.243 707.125
4329.95 755.221 746.898 694.411 712.122
4332.86 717.32 730.33 692.712 694.221
4335.76 718.449 752.687 695.541 722.897
4338.67 822.291 778.646 780.437 756.532
4341.58 795.199 803.157 793.618 776.93
4344.49 791.979 796.1 756.733 779.48
4347.39 801.122 796.926 788.09 778.689
4350.3 797.675 800.245 791.244 792.283
4353.21 801.937 802.739 797.516 782.921
4356.12 808.605 787.603 760.003 758.29
4359.03 752.266 789.528 717.351 756.274
4361.93 807.713 776.112 791.469 755.644
4364.84 768.357 802.062 758.113 793.659
4367.75 830.116 798.664 831.396 796.087
4370.66 797.518 806.795 798.753 800.311
4373.56 792.751 786.479 770.783 767.062
4376.47 769.169 781.461 731.65 764.744
4379.38 782.462 762.172 791.799 725.827
4382.28 734.885 780.784 654.034 748.736
4385.19 825.004 798.02 800.377 756.404
4388.1 834.172 819.635 814.802 792.116
4391.01 799.728 825.978 761.169 805.094
4393.91 844.034 840.377 839.31 819.121
4396.82 877.369 853.865 856.883 823.588
4399.73 840.192 837.81 774.572 803.476
4402.63 795.868 826.518 778.973 800.232
4405.54 843.493 856.523 847.151 862.483
4408.45 930.207 895.572 961.326 896.005
4411.36 913.017 905.859 879.539 906.196
4414.26 874.352 897.943 877.722 872.657
4417.17 906.46 892.067 860.709 883.59
4420.08 895.388 888.202 912.338 864.298
4422.98 862.758 894.778 819.847 881.225
4425.89 926.189 907.708 911.491 890.362
4428.8 934.178 899.02 939.747 898.616
4431.7 836.694 906.483 844.611 903.67
4434.61 948.578 897.315 926.653 896.317
4437.51 906.674 922.192 917.686 921.267
4440.42 911.324 924.739 919.461 930.15
4443.33 956.218 942.7 953.304 941.523
4446.23 960.556 972.303 951.805 960.711
4449.14 1000.14 973.521 977.023 957.95
4452.05 959.871 977.025 945.022 962.817
4454.95 971.07 950.399 966.407 942.163
4457.86 920.256 942.333 915.059 939.976
4460.76 935.674 925.936 938.463 918.606
4463.67 921.878 939.951 902.295 929.767
4466.58 962.3 943.244 948.545 924.95
4469.48 945.552 956.799 924.01 932.236
4472.39 962.545 961.444 924.153 931.545
4475.29 976.236 983.415 946.472 945.47
4478.2 1011.47 982.902 965.786 935.541
4481.11 961.006 968.188 894.366 925.697
4484.01 932.094 979.761 916.94 934.463
4486.92 1046.18 998.155 992.082 959.128
4489.82 1016.19 1015.91 968.362 959.365
4492.73 985.355 1002.29 917.649 932.763
4495.63 1005.34 1015.95 912.278 949.898
4498.54 1057.15 1054.32 1019.77 996.254
4501.45 1100.48 1085.33 1056.72 1042.55
4504.35 1098.36 1085.08 1051.15 1040.43
4507.26 1056.4 1055.3 1013.41 1000.1
4510.16 1011.14 1036.72 935.728 980.186
4513.07 1042.63 1036.65 991.424 969.23
4515.97 1056.17 1061.14 980.54 977.168
4518.88 1084.62 1030 959.539 920.204
4521.78 949.212 1021.38 820.534 914.329
4524.69 1030.32 989.494 962.913 887.316
4527.59 988.948 1008.79 878.502 929.445
4530.5 1007.09 998.261 946.919 915.447
4533.4 998.748 1005.4 920.921 946.936
4536.31 1010.36 1012.08 972.969 963.263
4539.21 1027.14 1012.01 995.901 949.359
4542.12 998.534 1028.56 879.207 952.51
4545.02 1059.99 1036.7 982.421 949.277
4547.93 1051.56 1062.37 986.203 1006.57
4550.83 1075.56 1076.57 1051.1 1034.41
4553.74 1102.58 1095.09 1065.95 1068.45
4556.64 1107.13 1093.33 1088.29 1062.59
4559.55 1070.29 1079.75 1033.54 1052.81
4562.45 1061.83 1085.38 1036.6 1042.75
4565.35 1124.01 1099.72 1058.1 1048.35
4568.26 1113.32 1134.36 1050.35 1096.59
4571.16 1165.77 1123.47 1181.32 1104.14
4574.07 1091.34 1107.42 1080.75 1102.32
4576.97 1065.14 1104.99 1044.9 1082.84
4579.88 1158.49 1109.75 1122.85 1080.94
4582.78 1105.63 1128.35 1075.05 1098.69
4585.68 1120.93 1107.13 1098.17 1070.4
4588.59 1094.84 1091.92 1037.99 1060.13
4591.49 1060 1101.69 1044.24 1082.74
4594.4 1150.22 1092.02 1166 1066.48
4597.3 1065.83 1108.46 989.205 1081.28
4600.2 1109.33 1127.76 1088.64 1106.41
4603.11 1208.13 1176.94 1241.4 1178.58
4606.01 1213.38 1203.57 1205.71 1195.81
4608.91 1189.21 1209.56 1140.33 1194.22
4611.82 1226.07 1211.87 1236.63 1205.16
4614.72 1220.32 1181.25 1238.52 1195.6
4617.62 1097.36 1158.43 1111.66 1159.66
4620.53 1157.63 1140.5 1128.79 1128.5
4623.43 1166.53 1201.99 1145.06 1176.11
4626.33 1281.8 1207.95 1254.49 1173.1
4629.24 1175.53 1206.91 1119.74 1165.9
4632.14 1163.38 1149.69 1123.46 1118.66
4635.04 1110.16 1133.86 1112.77 1122.12
4637.95 1128.04 1114.32 1130.11 1121.52
4640.85 1104.76 1138.08 1121.68 1136.22
4643.75 1181.45 1168.11 1156.87 1162.9
4646.66 1218.12 1186.6 1210.17 1172.73
4649.56 1160.23 1190.9 1151.16 1187.39
4652.46 1194.36 1180.17 1200.86 1190.91
4655.37 1185.91 1210.76 1220.71 1219.76
4658.27 1252.02 1228.73 1237.73 1231.38
4661.17 1248.27 1220.75 1235.7 1224.73
4664.07 1161.97 1197.78 1200.78 1209.74
4666.98 1183.1 1188.89 1192.76 1213.15
4669.88 1221.6 1188.88 1245.92 1183.82
4672.78 1161.95 1198.23 1112.77 1202.99
4675.68 1211.15 1129.26 1250.28 1176.94
4678.59 1014.67 1107.72 1167.78 1229.94
4681.49 1097.34 1085.34 1271.78 1242.16
4684.39 1144.01 1108.71 1286.93 1269.21
4687.29 1084.79 1108.25 1248.91 1265.46
4690.2 1095.95 1082.03 1260.55 1241.01
4693.1 1065.34 1061.65 1213.56 1218.94
4696 1023.67 1029.43 1182.71 1189.07
4698.9 999.282 1032.56 1170.93 1193.62
4701.8 1074.71 1042.47 1227.21 1197.14
4704.7 1053.41 1082.27 1193.27 1239.67
4707.61 1118.68 1097.22 1298.54 1258.58
4710.51 1119.57 1106.54 1283.94 1263.5
4713.41 1081.36 1096.65 1208.03 1245.22
4716.31 1089.02 1110.2 1243.68 1268.64
4719.21 1160.21 1112.11 1354.2 1261.2
4722.12 1087.09 1126.49 1185.72 1286.4
4725.02 1132.16 1099.77 1319.27 1261.68
4727.92 1080.06 1096.74 1280.05 1279.35
4730.82 1077.99 1088.64 1238.73 1262.85
4733.72 1107.86 1097.43 1269.77 1269.64
4736.62 1106.45 1103.43 1300.41 1287.33
4739.52 1095.99 1115.14 1291.82 1296.55
4742.42 1142.97 1129.39 1297.42 1292.48
4745.33 1149.22 1150.31 1288.22 1319.67
4748.23 1158.74 1146.56 1373.37 1331.37
4751.13 1131.72 1131.37 1332.53 1338.3
4754.03 1103.66 1128.28 1309.01 1333.12
4756.93 1149.46 1116.79 1357.8 1328.33
4759.83 1097.26 1146.25 1318.18 1336.25
4762.73 1192.02 1144.96 1332.75 1336.44
4765.63 1145.61 1143.29 1358.38 1302.27
4768.53 1092.25 1125.64 1215.69 1306.12
4771.43 1139.07 1135.94 1344.3 1301.39
4774.33 1176.51 1172.19 1344.2 1346.2
4777.23 1200.99 1189.18 1350.09 1361.46
4780.13 1190.04 1178.39 1390.08 1359.69
4783.03 1144.13 1173.82 1338.89 1352.47
4785.93 1187.31 1144.86 1328.43 1323.4
4788.83 1103.14 1157.74 1302.87 1330.44
4791.73 1182.78 1150.76 1360.02 1321.35
4794.63 1166.36 1169.22 1301.15 1335.44
4797.53 1158.51 1145.83 1345.15 1293.79
4800.43 1112.63 1135.08 1235.08 1299.15
4803.33 1134.11 1137.29 1317.2 1304.4
4806.23 1165.13 1155.55 1360.92 1327.18
4809.13 1167.4 1156.87 1303.42 1333.25
4812.03 1138.08 1157.63 1335.41 1331.1
4814.93 1167.4 1162.61 1354.48 1345.25
4817.83 1182.33 1167 1345.86 1345.59
4820.73 1151.27 1191.69 1336.43 1374.02
4823.63 1241.48 1202.8 1439.76 1380.92
4826.53 1215.65 1194.67 1366.58 1376.74
4829.43 1126.87 1175.64 1323.89 1346.11
4832.33 1184.41 1150.57 1347.88 1335.77
4835.23 1140.45 1169.58 1335.54 1359.71
4838.13 1183.87 1165.22 1395.71 1373.14
4841.03 1171.34 1172.7 1388.16 1385.18
4843.93 1162.9 1183.3 1371.66 1393.65
4846.83 1215.67 1169.48 1421.13 1369.79
4849.72 1129.87 1181.05 1316.57 1380.72
4852.62 1197.62 1134.51 1404.44 1312.36
4855.52 1076.04 1117.98 1216.07 1291.72
4858.42 1080.27 1054.06 1254.64 1213.71
4861.32 1005.89 1066.93 1170.42 1222.57
4864.22 1114.65 1094.89 1242.64 1240.4
4867.12 1164.12 1124.93 1308.15 1276.96
4870.02 1096.01 1104.87 1280.09 1267.39
4872.91 1054.48 1098.64 1213.93 1283.61
4875.81 1145.43 1126.83 1356.82 1315.91
4878.71 1180.58 1163.5 1376.97 1367.06
4881.61 1164.48 1160.91 1367.4 1356.54
4884.51 1137.66 1156.56 1325.26 1352.2
4887.4 1167.54 1171.06 1363.93 1357.94
4890.3 1207.98 1207.78 1384.63 1401.14
4893.2 1247.83 1207.24 1454.86 1396.64
4896.1 1165.92 1209.81 1350.43 1399.47
4899 1215.68 1162.51 1393.12 1343.86
4901.89 1105.93 1175.79 1288.04 1365.76
4904.79 1205.74 1166.84 1416.14 1347.84
4907.69 1188.83 1201.32 1339.36 1388.6
4910.59 1209.38 1208.15 1410.3 1397.65
4913.48 1226.23 1213.44 1443.29 1424.97
4916.38 1204.7 1210.61 1421.33 1424.17
4919.28 1200.9 1212.22 1407.9 1424.51
4922.18 1231.06 1199.86 1444.29 1402.36
4925.07 1167.63 1210.51 1354.91 1396.8
4927.97 1232.85 1194.14 1391.22 1381.11
4930.87 1181.94 1205.2 1397.21 1398.02
4933.77 1200.81 1211.54 1405.62 1423.6
4936.66 1251.89 1213.51 1467.98 1423.25
4939.56 1187.84 1235.63 1396.14 1451.32
4942.46 1267.18 1212.63 1489.84 1396.76
4945.35 1182.87 1247.37 1304.31 1441.13
4948.25 1292.05 1239.98 1529.24 1414.99
4951.15 1245.02 1227.78 1411.42 1411.86
4954.04 1146.27 1213.13 1294.93 1389.88
4956.94 1248.11 1243.13 1463.3 1452.12
4959.84 1335.01 1293.62 1598.14 1529.61
4962.73 1297.74 1301.65 1527.4 1546.74
4965.63 1272.19 1271.02 1514.68 1487.4
4968.52 1243.13 1258.52 1420.12 1449.06
4971.42 1260.25 1247.74 1412.38 1406.86
4974.32 1239.84 1251.79 1388.06 1401.82
4977.21 1255.28 1232.52 1405.01 1410.28
4980.11 1202.45 1251.36 1437.78 1459.7
4983 1296.34 1237.56 1536.3 1472.32
4985.9 1213.87 1237.22 1442.87 1481.21
4988.8 1201.44 1222.31 1464.45 1457.79
4991.69 1251.62 1221.95 1466.06 1450.94
4994.59 1212.8 1249.1 1422.32 1470.26
4997.48 1282.88 1252.39 1522.41 1482.72
5000.38 1261.51 1264.7 1503.44 1498.91
5003.27 1249.71 1238.55 1470.88 1470.52
5006.17 1204.43 1226.85 1437.24 1460.2
5009.06 1226.41 1222.27 1472.49 1461.94
5011.96 1235.97 1247.4 1476.09 1484.76
5014.86 1279.82 1252.33 1505.7 1485.1
5017.75 1241.2 1256.42 1473.52 1474.06
5020.65 1248.22 1234.31 1442.95 1464.38
5023.54 1213.51 1259.67 1476.66 1490.27
5026.43 1317.29 1268.81 1551.18 1511.95
5029.33 1275.64 1264.07 1508.01 1492.08
5032.22 1199.28 1249.74 1417.03 1463.63
5035.12 1274.3 1255.84 1465.85 1477.01
5038.01 1293.95 1289.13 1548.14 1517.68
5040.91 1299.16 1281.32 1539.04 1516.85
5043.8 1250.84 1288.83 1463.36 1511.96
5046.7 1316.5 1279.08 1533.48 1502.28
5049.59 1269.88 1303.4 1510 1535.35
5052.49 1323.81 1294.32 1562.56 1534.41
5055.38 1289.27 1322.18 1530.68 1545.89
5058.27 1353.46 1324.02 1544.45 1533.12
5061.17 1329.32 1355.77 1524.23 1570.99
5064.06 1384.54 1353.61 1644.28 1590.76
5066.96 1346.97 1352.81 1603.77 1610.04
5069.85 1326.92 1326.7 1582.06 1558.89
5072.74 1306.22 1325.63 1490.85 1558.82
5075.64 1343.74 1338.54 1603.55 1580.97
5078.53 1365.65 1345.35 1648.53 1591.49
5081.42 1326.67 1360.19 1522.41 1594.35
5084.32 1388.26 1333.51 1612.1 1544.74
5087.21 1285.59 1323.25 1499.72 1531.31
5090.1 1295.91 1313.23 1482.09 1508.23
5093 1358.19 1332.81 1542.87 1537.33
5095.89 1344.33 1339.19 1587.04 1549.63
5098.78 1315.04 1327.35 1519 1543.91
5101.68 1322.69 1330.69 1525.69 1545.86
5104.57 1354.34 1327.38 1592.9 1533.4
5107.46 1305.1 1348.39 1481.6 1573.3
5110.35 1385.71 1354.82 1645.39 1583.58
5113.25 1373.64 1364.87 1623.75 1617.43
5116.14 1335.25 1365.33 1583.15 1599.93
5119.03 1387.1 1360.41 1592.89 1599.85
5121.92 1358.89 1349.43 1623.51 1584.64
5124.82 1302.29 1330.41 1537.53 1572.5
5127.71 1330.05 1305.43 1556.47 1550.24
5130.6 1283.96 1313.4 1556.74 1561.35
5133.49 1326.19 1304.36 1570.85 1564.41
5136.39 1302.93 1303.81 1565.64 1523.55
5139.28 1282.3 1280.57 1434.16 1496.46
5142.17 1256.47 1285.76 1489.56 1497.07
5145.06 1318.5 1306.95 1567.49 1551.25
5147.95 1345.89 1349.75 1596.7 1609.97
5150.84 1384.87 1369.53 1665.72 1635.97
5153.74 1377.82 1408.03 1645.5 1680.44
5156.63 1461.4 1393.83 1730.11 1637.33
5159.52 1342.27 1348.56 1536.37 1573.03
5162.41 1242.01 1268.59 1452.6 1468.63
5165.3 1221.5 1235.93 1416.92 1447.67
5168.19 1244.28 1245.93 1473.49 1447.94
5171.08 1272.02 1266.58 1453.4 1472.63
5173.97 1283.44 1249.45 1491 1431.24
5176.87 1192.9 1250.03 1349.3 1445.07
5179.76 1273.75 1236.47 1494.9 1418.02
5182.65 1242.78 1232.8 1409.87 1445.15
5185.54 1181.87 1228.52 1430.68 1421.2
5188.43 1260.92 1243.32 1423.04 1459.69
5191.32 1287.16 1308.78 1525.35 1524.29
5194.21 1378.25 1329.33 1624.47 1568.81
5197.1 1322.57 1342.02 1556.6 1562.09
5199.99 1325.23 1314.28 1505.19 1506.24
5202.88 1295.03 1312.57 1456.92 1482.51
5205.77 1317.45 1305.2 1485.42 1496.02
5208.66 1303.13 1337.97 1545.72 1565.49
5211.55 1393.32 1335.2 1665.31 1585.64
5214.44 1309.14 1402.94 1545.89 1651.41
5217.33 1506.36 1398.68 1743.03 1623.88
5220.22 1380.53 1411.52 1582.73 1646.71
5223.11 1347.67 1369.45 1614.37 1598.43
5226 1380.15 1372.86 1598.18 1619.94
5228.89 1390.76 1386.49 1647.27 1636.21
5231.78 1388.56 1400.36 1663.19 1660.55
5234.67 1421.77 1404.44 1671.21 1636.92
5237.56 1402.99 1419.63 1576.37 1627.16
5240.45 1434.12 1399.27 1633.92 1608.11
5243.34 1360.69 1406.43 1614.06 1621.29
5246.22 1424.47 1421.06 1615.89 1646.27
5249.11 1478.03 1450.95 1708.87 1678.14
5252 1450.35 1458.66 1709.65 1687.31
5254.89 1447.6 1441.08 1643.43 1644.47
5257.78 1425.28 1417.91 1580.34 1583.66
5260.67 1380.86 1405.3 1527.22 1558.74
5263.56 1409.75 1381.83 1568.66 1538.37
5266.45 1354.88 1374.37 1519.21 1551.26
5269.33 1358.47 1357.73 1565.91 1536.74
5272.22 1359.84 1397.48 1525.1 1582.57
5275.11 1474.14 1406.43 1656.7 1598.43
5278 1385.33 1440.05 1613.48 1660.11
5280.89 1460.67 1396.07 1710.14 1634.72
5283.77 1342.22 1436.06 1580.53 1680.2
5286.66 1505.3 1426.36 1749.91 1663.41
5289.55 1431.57 1447.37 1659.78 1661.39
5292.44 1405.24 1422.64 1574.48 1608.41
5295.33 1431.11 1410.98 1590.97 1595.72
5298.21 1396.58 1423.48 1621.72 1639.8
5301.1 1442.75 1420.56 1706.71 1647.39
5303.99 1422.36 1459.01 1613.74 1694.78
5306.88 1511.93 1452.43 1763.89 1660.89
5309.76 1423 1454.98 1605.02 1655.27
5312.65 1430.01 1453.17 1596.89 1640.55
5315.54 1506.49 1471.32 1719.72 1665.82
5318.42 1477.47 1483.74 1680.85 1682.22
5321.31 1467.26 1454.5 1646.1 1660.02
5324.2 1418.77 1432.19 1653.1 1654.69
5327.08 1410.54 1427.88 1664.88 1657.72
5329.97 1454.32 1450.92 1655.18 1681.08
5332.86 1487.89 1458.79 1723.19 1680.07
5335.74 1434.16 1448.96 1661.85 1677.08
5338.63 1424.83 1433.93 1646.22 1654.53
5341.52 1442.8 1450.92 1655.53 1685.02
5344.4 1485.13 1469.64 1753.31 1706.61
5347.29 1480.99 1494.33 1710.98 1717.06
5350.17 1516.86 1510.79 1686.89 1702.04
5353.06 1534.51 1535.12 1708.26 1733.64
5355.95 1553.99 1533.44 1805.77 1757.94
5358.83 1511.83 1506.59 1759.79 1737.34
5361.72 1453.94 1472.42 1646.47 1705.68
5364.6 1451.49 1460.88 1710.8 1685.67
5367.49 1477.22 1474.76 1699.75 1702.9
5370.37 1495.57 1488.85 1698.15 1707.23
5373.26 1493.74 1508 1723.77 1751.22
5376.15 1534.68 1541.4 1831.72 1798
5379.03 1595.77 1548.56 1838.5 1794.87
5381.92 1515.22 1548.76 1714.38 1781.27
5384.8 1535.3 1523.24 1790.93 1754.25
5387.69 1519.2 1522.47 1757.43 1756.67
5390.57 1512.9 1515.22 1721.66 1746.4
5393.45 1513.56 1520.98 1760.11 1730.37
5396.34 1536.49 1509.46 1709.33 1732.88
5399.22 1478.34 1490.87 1729.21 1700.92
5402.11 1457.77 1472.81 1664.23 1713.8
5404.99 1482.33 1489.05 1747.98 1730.07
5407.88 1527.05 1503.87 1778 1751.11
5410.76 1502.23 1535.43 1727.36 1782.01
5413.65 1577.02 1537.29 1840.68 1781.03
5416.53 1532.61 1535.77 1775.06 1781.93
5419.41 1497.67 1518.71 1730.05 1770.02
5422.3 1525.84 1524.75 1804.95 1787.77
5425.18 1550.75 1520.15 1828.31 1789.04
5428.06 1483.86 1484.42 1733.84 1741.26
5430.95 1418.64 1489.97 1661.63 1730.4
5433.83 1567.42 1494.49 1795.74 1737.09
5436.71 1497.41 1540.81 1753.9 1775.37
5439.6 1557.59 1496.78 1776.47 1729.66
5442.48 1435.34 1517.41 1658.6 1754.81
5445.36 1559.29 1503.6 1829.35 1750.47
5448.25 1516.16 1530.89 1763.47 1785.3
5451.13 1517.22 1517.23 1763.06 1758.7
5454.01 1518.3 1519.44 1749.56 1755.78
5456.9 1522.79 1506.91 1754.73 1747.96
5459.78 1479.63 1518.42 1739.61 1777.19
5462.66 1552.83 1518.35 1837.24 1790.22
5465.54 1522.61 1541.39 1793.8 1822.74
5468.43 1548.72 1543.39 1837.18 1821.62
5471.31 1558.85 1548.98 1833.87 1835.81
5474.19 1539.36 1534.54 1836.39 1804.46
5477.07 1505.42 1509.46 1743.13 1763.08
5479.95 1483.58 1483.8 1709.71 1723.71
5482.84 1462.41 1497.22 1718.28 1750.7
5485.72 1545.68 1520.15 1824.12 1781.25
5488.6 1552.36 1553.85 1801.34 1810.91
5491.48 1563.51 1551.4 1807.26 1793.9
5494.36 1538.34 1581.68 1773.1 1840.49
5497.24 1643.2 1595.82 1941.11 1851.82
5500.12 1605.92 1603.51 1841.26 1866.53
5503.01 1561.4 1565.42 1817.22 1803.15
5505.89 1528.94 1552.04 1750.97 1811.13
5508.77 1565.77 1548.64 1865.2 1812.12
5511.65 1551.19 1551.95 1820.19 1818.83
5514.53 1538.89 1560.09 1771.11 1835.02
5517.41 1590.2 1566.46 1913.76 1847.15
5520.29 1570.28 1548.49 1856.58 1832.9
5523.17 1484.99 1519.96 1728.37 1782.99
5526.05 1504.61 1522.15 1764.02 1776.87
5528.93 1576.87 1541.25 1838.21 1799.54
5531.81 1542.29 1539.2 1796.39 1800.08
5534.69 1498.46 1552.46 1765.64 1810.96
5537.57 1616.63 1572.72 1870.84 1853.2
5540.45 1603.06 1596.93 1923.12 1878.44
5543.33 1571.11 1562 1841.36 1855.1
5546.21 1511.82 1543.76 1800.81 1822
5549.09 1548.35 1563.51 1823.84 1835.04
5551.97 1630.36 1598.67 1880.48 1864.24
5554.85 1617.31 1602.48 1888.4 1863.65
5557.73 1559.77 1594.66 1822.08 1880.24
5560.61 1606.9 1574.9 1930.25 1853.95
5563.49 1558.01 1584.8 1809.51 1869.02
5566.37 1589.49 1574.63 1867.28 1838.53
5569.25 1576.4 1597.02 1838.8 1868.73
5572.13 1625.17 1592.51 1900.12 1836.56
5575.01 1575.94 1615.46 1770.76 1848.09
5577.88 1645.26 1588.55 1873.39 1819.8
5580.76 1544.46 1567.05 1815.27 1830.29
5583.64 1511.43 1536.07 1802.22 1819.15
5586.52 1552.33 1531.11 1839.95 1809.72
5589.4 1529.57 1579.42 1786.99 1856.16
5592.28 1656.35 1603.17 1941.53 1857.38
5595.15 1623.58 1614.04 1843.62 1861.52
5598.03 1562.18 1608.8 1799.41 1849.73
5600.91 1640.63 1631.75 1906.15 1900.68
5603.79 1692.44 1654.94 1996.48 1932.75
5606.67 1631.74 1630.02 1895.61 1931.73
5609.54 1565.87 1588.82 1903.11 1896.94
5612.42 1568.86 1563.28 1892.09 1861.58
5615.3 1555.12 1555.82 1789.54 1824.15
5618.18 1543.46 1579.93 1790.81 1836.24
5621.05 1641.21 1585.24 1928.38 1855.16
5623.93 1571.05 1580.99 1846.3 1867.33
5626.81 1530.7 1582.64 1827.32 1861.26
5629.68 1646.16 1608.96 1910.16 1888.7
5632.56 1650.01 1636.96 1928.62 1908.38
5635.44 1614.71 1611.01 1886.35 1887.41
5638.31 1568.3 1576 1847.26 1852.61
5641.19 1544.99 1583.99 1824.22 1862.38
5644.07 1638.68 1587.73 1915.66 1870.06
5646.94 1579.53 1603.63 1870.3 1878.68
5649.82 1592.68 1588.32 1850.08 1859.67
5652.7 1592.75 1600.34 1858.62 1876.28
5655.57 1615.6 1582.28 1920.13 1867.21
5658.45 1538.49 1588.96 1822.87 1879.41
5661.32 1612.81 1580.17 1895.22 1866.07
5664.2 1589.23 1584.81 1880.12 1853.23
5667.08 1552.39 1582.37 1784.35 1828.2
5669.95 1605.49 1603.94 1820.11 1842.02
5672.83 1653.95 1637.02 1921.58 1894.62
5675.7 1651.63 1623.38 1942.16 1915.64
5678.58 1564.57 1592.95 1883.17 1902.23
5681.45 1562.66 1554.15 1881.36 1854.37
5684.33 1535.23 1549.09 1798.58 1836.38
5687.2 1549.39 1585.88 1829.21 1850.17
5690.08 1673.03 1607.65 1922.74 1862.27
5692.95 1600.54 1622.47 1834.87 1866.24
5695.83 1593.84 1633.86 1841.12 1896.99
5698.7 1707.22 1600.89 2014.97 1879.88
5701.57 1501.63 1635.13 1783.57 1932.16
5704.45 1696.53 1577.02 1997.93 1859.45
5707.32 1532.9 1602.66 1796.85 1885.32
5710.2 1578.55 1565.49 1861.18 1832.47
5713.07 1585.02 1584.89 1839.37 1870.03
5715.95 1591.09 1604.63 1909.55 1888.77
5718.82 1637.79 1577.03 1917.39 1875.48
5721.69 1502.21 1590.89 1799.49 1861.83
5724.57 1632.66 1621.36 1868.6 1907.43
5727.44 1729.2 1659.63 2054.21 1936.73
5730.31 1617.03 1661.32 1887.38 1957.53
5733.19 1637.72 1650.32 1931.02 1947.78
5736.06 1696.22 1652.11 2024.96 1955.51
5738.93 1622.4 1635.91 1910.54 1932.22
5741.81 1589.12 1620.34 1861.15 1898.74
5744.68 1649.51 1635.32 1924.53 1907.79
5747.55 1667.33 1644.76 1937.69 1923.31
5750.42 1617.46 1613.52 1907.72 1893.3
5753.3 1555.79 1616.41 1834.5 1901.74
5756.17 1675.99 1603.34 1963 1879.35
5759.04 1578.24 1633.57 1840.55 1915.96
5761.91 1646.5 1593.39 1944.35 1877.91
5764.78 1555.42 1603.18 1848.83 1894.15
5767.66 1607.63 1597.61 1889.28 1880.13
5770.53 1629.76 1640.91 1902.27 1932.11
5773.4 1685.34 1650.95 2004.78 1942.63
5776.27 1637.74 1647.84 1920.85 1926.19
5779.14 1620.43 1609.13 1852.96 1879.67
5782.01 1569.22 1600.74 1865.21 1871.25
5784.89 1612.56 1599.9 1895.58 1883.57
5787.76 1617.94 1614.86 1889.91 1896.95
5790.63 1614.09 1590.64 1905.37 1872.46
5793.5 1539.9 1603.78 1822.09 1890.47
5796.37 1657.34 1575.84 1943.94 1855.94
5799.24 1530.27 1608.46 1801.79 1889.71
5802.11 1637.77 1592.89 1923.39 1867.98
5804.98 1610.64 1616.27 1878.77 1889.77
5807.85 1600.39 1617.53 1867.14 1889.05
5810.72 1641.57 1629.93 1921.24 1901.11
5813.59 1647.82 1635.3 1914.95 1913.37
5816.46 1616.51 1644.28 1903.91 1916.65
5819.33 1668.5 1616.53 1931.08 1890.84
5822.2 1564.58 1651.17 1837.54 1929.36
5825.07 1720.44 1666.4 2019.47 1941.47
5827.94 1714.19 1677.6 1967.39 1963.21
5830.81 1598.15 1606.09 1902.78 1951.57
5833.68 1505.93 1498.17 1984.54 1931.81
5836.55 1390.44 1474.13 1908.12 1987.49
5839.42 1526.02 1471.75 2069.82 1982.61
5842.29 1498.8 1492.55 1969.88 1993.77
5845.16 1452.83 1473.48 1941.59 1943.49
5848.03 1468.8 1464.06 1918.99 1921.13
5850.9 1470.54 1481.04 1902.8 1936.12
5853.76 1503.78 1484.32 1986.58 1945.71
5856.63 1478.64 1480.82 1947.76 1955.91
5859.5 1460.04 1488.74 1933.39 1963.04
5862.37 1527.55 1491.89 2007.97 1977.26
5865.24 1488.09 1490.13 1990.4 1967.08
5868.11 1454.73 1466.74 1902.87 1962.37
5870.97 1457.39 1447.31 1993.84 1933.09
5873.84 1429.81 1459.09 1902.57 1943.46
5876.71 1490.06 1424.13 1933.96 1881.69
5879.58 1352.54 1401.83 1808.53 1864.68
5882.44 1362.9 1362.17 1851.54 1823.3
5885.31 1371.07 1335.39 1809.83 1773.34
5888.18 1272.19 1358.96 1658.67 1781.79
5891.05 1433.62 1368.88 1876.89 1797.08
5893.91 1400.82 1396.13 1855.69 1837.89
5896.78 1353.94 1391.53 1781.11 1835.76
5899.65 1419.82 1411.49 1870.47 1856.79
5902.51 1460.73 1444.2 1918.79 1889.34
5905.38 1452.06 1422.88 1878.74 1888.87
5908.25 1355.87 1408.09 1869.06 1869.63
5911.11 1416.33 1439.92 1861.08 1891.49
5913.98 1547.58 1477.63 1944.32 1916.22
5916.85 1469 1471.11 1943.26 1909.91
5919.71 1396.75 1447.41 1842.14 1889.42
5922.58 1476.47 1441.03 1882.84 1880.19
5925.44 1449.88 1460.41 1915.58 1879.31
5928.31 1454.88 1429.44 1839.51 1852.4
5931.17 1383.56 1460.1 1802.1 1865.9
5934.04 1541.87 1449.26 1956.09 1861.42
5936.91 1422.35 1472.91 1826.06 1887.21
5939.77 1454.51 1459 1879.48 1894.48
5942.64 1500.15 1468.04 1977.9 1904.05
5945.5 1449.46 1464.62 1854.77 1888.05
5948.37 1444.24 1461.44 1831.48 1870.82
5951.23 1490.64 1478.09 1926.21 1908.64
5954.1 1499.4 1495.36 1968.23 1931.22
5956.96 1496.05 1482.85 1899.23 1906.96
5959.82 1453.09 1456.52 1853.43 1873.16
5962.69 1420.42 1445.77 1866.83 1884.11
5965.55 1463.8 1472.22 1932.06 1921.63
5968.42 1532.44 1494.35 1966.01 1942.43
5971.28 1486.83 1510.97 1929.22 1936.41
5974.14 1513.65 1513.98 1913.99 1944.78
5977.01 1541.47 1515.53 1991.13 1948.39
5979.87 1491.48 1513.75 1940.05 1960.14
5982.74 1508.29 1489.44 1949.25 1931.43
5985.6 1468.55 1481.91 1904.99 1917.46
5988.46 1468.9 1456.99 1898.13 1899.43
5991.32 1433.52 1445.83 1895.15 1887.82
5994.19 1435.08 1442.91 1870.17 1876.27
5997.05 1460.12 1449.28 1863.48 1867.64
5999.91 1452.63 1441.72 1869.28 1862.65
6002.78 1412.4 1440 1855.18 1868.24
6005.64 1454.96 1457.02 1880.25 1877.45
6008.5 1503.68 1458.11 1896.93 1879.29
6011.36 1415.68 1450.85 1860.7 1876.24
6014.23 1433.17 1425.36 1871.08 1866
6017.09 1427.23 1411.5 1866.21 1838.41
6019.95 1374.08 1398.51 1777.94 1828.87
6022.81 1394.2 1394.17 1842.46 1823.25
6025.67 1414.22 1435.56 1849.35 1872.46
6028.53 1498.25 1468.67 1925.55 1893.43
6031.4 1493.53 1492.82 1905.39 1915.13
6034.26 1486.68 1493.36 1914.45 1914.77
6037.12 1499.87 1449.63 1924.46 1877.98
6039.98 1362.35 1461.76 1795.04 1894.98
6042.84 1523.07 1452.44 1965.44 1885.25
6045.7 1471.9 1475.66 1895.28 1896.59
6048.56 1432.02 1458.88 1829.05 1883.54
6051.42 1472.72 1459.78 1926.28 1887.89
6054.28 1474.59 1479.58 1908.32 1914.24
6057.14 1491.42 1480.14 1908.1 1899.37
6060 1474.41 1460.19 1881.68 1871.54
6062.86 1414.73 1456.07 1824.86 1867.53
6065.72 1479.08 1454.7 1896.04 1865.51
6068.58 1470.3 1438.84 1875.61 1842.52
6071.44 1367.13 1442.4 1755.92 1845.05
6074.3 1489.78 1455.59 1903.63 1858.85
6077.16 1509.86 1483.21 1917 1883.16
6080.02 1450 1468.87 1828.86 1865
6082.88 1446.74 1467.48 1849.14 1873.29
6085.74 1505.7 1476.59 1941.87 1885
6088.6 1477.34 1474.69 1863.98 1885.52
6091.46 1441.02 1463.36 1850.71 1878.49
6094.32 1471.72 1435.56 1920.76 1861.52
6097.17 1393.95 1432.58 1813.08 1861.44
6100.03 1432.07 1432.15 1850.48 1860.39
6102.89 1470.43 1456.71 1917.62 1873.25
6105.75 1467.63 1465.12 1851.65 1868.74
6108.61 1457.28 1461.77 1836.95 1844.81
6111.47 1460.4 1502.76 1845.83 1897.79
6114.32 1590.6 1493.93 2010.59 1896.61
6117.18 1430.78 1500.07 1833.4 1903.07
6120.04 1478.84 1462.59 1865.23 1861.05
6122.9 1478.16 1454.04 1884.53 1849.64
6125.75 1405.12 1435.93 1799.15 1829.65
6128.61 1424.52 1417.43 1805.26 1820.63
6131.47 1422.64 1440.78 1857.49 1845.65
6134.32 1475.17 1432.74 1874.22 1825.99
6137.18 1400.4 1437.73 1746.27 1820.14
6140.04 1437.61 1398.82 1839.92 1775.06
6142.9 1358.45 1403.31 1739 1804.02
6145.75 1413.88 1421.69 1833.15 1828.4
6148.61 1492.73 1455.9 1913.06 1863.3
6151.46 1461.08 1454.24 1843.7 1858.16
6154.32 1408.92 1434.93 1817.72 1836.42
6157.18 1434.78 1404.41 1847.85 1810.18
6160.03 1369.54 1393.09 1764.97 1796.14
6162.89 1374.95 1375.64 1775.59 1778.23
6165.74 1382.43 1376.25 1794.13 1773.68
6168.6 1371.38 1376.34 1751.31 1766.55
6171.45 1375.22 1412.49 1754.22 1795.79
6174.31 1490.88 1423.59 1881.85 1801.3
6177.16 1404.67 1429.25 1767.83 1810.83
6180.02 1392.19 1411.62 1782.83 1795.1
6182.87 1438.01 1403.94 1834.66 1788.08
6185.73 1381.61 1389.2 1746.75 1770.22
6188.58 1347.97 1404.54 1729.26 1775.53
6191.44 1484.03 1398.34 1850.57 1759.24
6194.29 1363.02 1451.5 1697.89 1814.68
6197.15 1507.44 1432.82 1895.56 1804.52
6200 1427.99 1462.47 1820.09 1849.1
6202.85 1451.97 1454.26 1831.64 1836.08
6205.71 1482.82 1460.05 1856.52 1836.25
6208.56 1445.34 1459.88 1820.6 1842.96
6211.41 1451.47 1450.45 1851.77 1831
6214.27 1454.53 1434.61 1820.61 1809.31
6217.12 1397.83 1427.38 1755.53 1798.23
6219.97 1429.79 1410.43 1818.54 1783.02
6222.83 1403.67 1424.27 1775 1815.16
6225.68 1439.35 1433.21 1851.96 1817.48
6228.53 1456.62 1439.74 1825.49 1828.31
6231.39 1423.26 1445.75 1807.47 1818.92
6234.24 1457.38 1417.48 1823.79 1791.6
6237.09 1371.81 1390.32 1743.54 1776.93
6239.94 1341.77 1371.1 1763.46 1752.67
6242.79 1399.7 1361.86 1751.01 1739.68
6245.65 1344.12 1364.64 1704.56 1715.8
6248.5 1350.09 1383.54 1691.82 1728.16
6251.35 1456.41 1416.62 1788.11 1765.41
6254.2 1443.37 1449.25 1816.3 1808.83
6257.05 1447.98 1432.45 1822.08 1803.85
6259.9 1406.02 1422.41 1773.17 1794.73
6262.75 1413.23 1377.14 1788.93 1748.51
6265.61 1312.16 1395.69 1683.42 1775.11
6268.46 1461.67 1394.84 1852.99 1774.43
6271.31 1410.69 1427.32 1786.9 1792.58
6274.16 1409.6 1377.52 1737.85 1735.06
6277.01 1312.27 1371.41 1680.42 1720.65
6279.86 1392.37 1341.99 1743.68 1701.79
6282.71 1321.32 1392.23 1681.27 1751.84
6285.56 1462.99 1383.81 1830.57 1739.69
6288.41 1367.1 1412.58 1707.22 1784.35
6291.26 1407.65 1397.8 1815.27 1766.89
6294.11 1418.66 1443.01 1778.16 1813.71
6296.96 1502.71 1448.22 1847.71 1797.43
6299.81 1423.29 1450.87 1766.41 1801.04
6302.66 1426.62 1453.5 1789 1798.45
6305.51 1510.59 1445.42 1839.95 1800.66
6308.35 1399.04 1442.86 1773.04 1795.25
6311.2 1418.94 1392.27 1772.75 1736.98
6314.05 1358.83 1397.72 1665.15 1736.39
6316.9 1415.4 1394.13 1771.27 1730.13
6319.75 1408.16 1423.9 1753.98 1775.4
6322.6 1448.14 1445.35 1800.95 1791.86
6325.44 1479.73 1448.24 1820.65 1813.12
6328.29 1416.85 1438.33 1817.75 1795.51
6331.14 1418.41 1402.15 1748.15 1759.13
6333.99 1371.2 1401.88 1711.51 1737.69
6336.84 1416.02 1396.15 1753.41 1738.38
6339.68 1401.24 1393.4 1750.22 1746.91
6342.53 1362.94 1420.18 1737.09 1772.98
6345.38 1496.37 1429.04 1831.63 1781.98
6348.23 1427.82 1461.86 1777.22 1801.26
6351.07 1461.38 1407.29 1794.93 1744.03
6353.92 1332.66 1406.86 1659.94 1731.51
6356.77 1426.54 1386.36 1739.66 1713.27
6359.61 1399.89 1410.27 1740.21 1728.19
6362.46 1404.38 1405.77 1704.72 1727.31
6365.3 1413.04 1412.84 1737.01 1732.75
6368.15 1421.11 1416.13 1756.51 1753.85
6371 1414.24 1421.98 1768.03 1763.67
6373.84 1430.6 1425.53 1766.46 1767.67
6376.69 1431.76 1416.07 1768.51 1748.59
6379.53 1385.86 1416.41 1710.81 1745.12
6382.38 1431.62 1411.8 1756.05 1736.24
6385.22 1417.93 1423.6 1741.85 1744.13
6388.07 1421.25 1406.5 1734.48 1713.35
6390.91 1380.31 1395.01 1663.72 1702.8
6393.76 1383.46 1391.42 1710.19 1701.2
6396.6 1410.5 1422.26 1729.69 1739.96
6399.45 1472.81 1431.36 1779.99 1754.17
6402.29 1410.76 1450.68 1752.82 1782.91
6405.14 1468.46 1438.8 1815.92 1772.9
6407.98 1437.18 1451.66 1749.97 1776.93
6410.82 1449.33 1432.8 1764.92 1753.97
6413.67 1411.88 1410.17 1747.03 1722.69
6416.51 1369.29 1399.1 1656.11 1706.65
6419.36 1416.12 1424.48 1716.82 1727.95
6422.2 1488.03 1427.87 1810.93 1742.01
6425.04 1379.45 1416.43 1698.29 1740.02
6427.89 1381.82 1406.37 1710.85 1716.84
6430.73 1457.85 1398.24 1741.37 1693.79
6433.57 1355.04 1409.59 1629.15 1699.32
6436.41 1415.88 1415.65 1727.44 1712.85
6439.26 1476.03 1430.07 1781.96 1735.11
6442.1 1398.3 1428.22 1695.92 1731.71
6444.94 1410.35 1408.38 1717.26 1693.3
6447.78 1416.49 1415.93 1666.71 1707.2
6450.63 1420.94 1432.15 1737.62 1719.7
6453.47 1459 1415.49 1754.78 1729.69
6456.31 1366.52 1419.83 1696.66 1732.37
6459.15 1433.98 1430.35 1745.66 1759.11
6461.99 1490.56 1455.09 1835.01 1766.29
6464.83 1440.74 1441.52 1718.2 1738.66
6467.67 1393.26 1416.26 1662.78 1699.76
6470.51 1414.78 1414.02 1718.3 1706.56
6473.36 1434.03 1432.17 1738.6 1732.24
6476.2 1447.69 1416.5 1739.81 1712.46
6479.04 1367.78 1415.54 1658.97 1706.55
6481.88 1431.14 1382.97 1720.88 1666.44
6484.72 1350 1394.16 1619.47 1675.66
6487.56 1401.33 1380.97 1686.62 1663.44
6490.4 1391.58 1388.06 1684.24 1672.22
6493.24 1371.27 1349.13 1645.79 1631.55
6496.08 1284.54 1362.93 1564.62 1654.54
6498.92 1432.99 1362.27 1753.2 1660.04
6501.76 1369.27 1405.78 1662.31 1709.77
6504.59 1415.07 1398.84 1713.81 1699.23
6507.43 1412.17 1421.41 1721.57 1729.27
6510.27 1436.97 1405.64 1752.43 1707.72
6513.11 1367.79 1408.23 1649.15 1716.3
6515.95 1419.93 1408.76 1747.33 1708.55
6518.79 1438.57 1415.44 1729.18 1723.74
6521.63 1387.82 1410.46 1694.72 1707.8
6524.47 1404.98 1437.79 1699.51 1755
6527.3 1520.57 1434.04 1870.77 1746.73
6530.14 1376.56 1460.59 1669.9 1767.43
6532.98 1484.65 1434.49 1761.61 1730.12
6535.82 1442.25 1442.2 1758.83 1737.77
6538.65 1399.7 1400.44 1692.88 1695.95
6541.49 1359.38 1376.48 1636.14 1661.71
6544.33 1370.36 1381.57 1656.11 1665.27
6547.17 1414.97 1386.35 1703.57 1666.09
6550 1373.71 1380.37 1638.59 1653.31
6552.84 1352.44 1386.01 1617.78 1650.2
6555.68 1431.88 1345.34 1694.22 1605.34
6558.51 1251.7 1314.15 1504.03 1575.97
6561.35 1258.86 1261.65 1529.66 1517.42
6564.18 1274.4 1296.43 1518.57 1562.68
6567.02 1356.04 1337.95 1639.82 1600.87
6569.86 1383.4 1400.91 1644.22 1660.5
6572.69 1463.3 1406.12 1697.45 1651.4
6575.53 1371.67 1439.55 1612.53 1691.6
6578.36 1483.69 1410 1764.82 1663.73
6581.2 1374.63 1419.83 1613.84 1670.54
6584.03 1401.17 1404.91 1632.95 1649.57
6586.87 1438.94 1409.29 1701.93 1667.28
6589.7 1387.76 1418.02 1666.95 1686.76
6592.54 1427.35 1379.88 1691.39 1655.19
6595.37 1324.54 1399.68 1607.23 1665.65
6598.21 1447.14 1382.94 1698.34 1654.17
6601.04 1377.14 1393.31 1656.94 1663.76
6603.87 1355.65 1392.89 1636.02 1661.25
6606.71 1445.88 1397.68 1690.79 1665.02
6609.54 1391.51 1416.3 1668.24 1687.37
6612.37 1411.51 1397.31 1703.09 1683.14
6615.21 1388.9 1379.2 1678.09 1663.05
6618.04 1337.18 1359.64 1607.96 1637.47
6620.87 1352.85 1375.35 1626.38 1643.08
6623.71 1436.02 1392.33 1694.91 1658.42
6626.54 1388.11 1412.97 1653.98 1665.87
6629.37 1414.78 1402.09 1648.74 1655.55
6632.2 1403.37 1378.49 1663.93 1613.88
6635.04 1317.31 1368.34 1528.96 1608.4
6637.87 1384.35 1357.97 1632.31 1594.51
6640.7 1372.24 1373.83 1622.27 1617.17
6643.53 1364.9 1384.2 1596.94 1623.06
6646.36 1415.46 1384.59 1649.98 1628.22
6649.2 1373.43 1407.02 1637.73 1649.24
6652.03 1432.18 1404.73 1660.01 1656.91
6654.86 1408.59 1413.62 1673.01 1661.18
6657.69 1400.09 1394.54 1650.54 1642.43
6660.52 1374.95 1393.3 1603.75 1638.83
6663.35 1404.88 1414.23 1662.21 1656.98
6666.18 1462.88 1430.58 1704.98 1677.01
6669.01 1423.99 1446.05 1663.85 1679.78
6671.84 1451.29 1407.32 1670.5 1639.5
6674.67 1346.68 1387.38 1584.15 1622.98
6677.5 1364.16 1363.29 1614.29 1611.68
6680.33 1379.03 1376.88 1636.59 1622.04
6683.16 1387.46 1385.43 1615.24 1622.99
6685.99 1389.8 1368.47 1617.14 1587.69
6688.82 1328.17 1371.03 1530.68 1589.31
6691.65 1395.13 1362.77 1620.11 1581.93
6694.48 1365.01 1372.61 1594.99 1608.24
6697.31 1357.71 1375.04 1609.62 1612.24
6700.14 1402.4 1408.38 1632.1 1646.97
6702.97 1465.02 1422.36 1699.19 1661.43
6705.79 1399.65 1442.92 1653.01 1695.2
6708.62 1464.09 1417.66 1733.41 1672.33
6711.45 1389.26 1423.33 1630.58 1663.22
6714.28 1416.64 1421.8 1625.68 1658.92
6717.11 1459.51 1413.4 1720.51 1641.87
6719.93 1364.07 1407.6 1579.42 1647.7
6722.76 1399.23 1392.44 1643.18 1624.85
6725.59 1414.02 1400.79 1651.94 1641.66
6728.42 1389.12 1428.12 1629.85 1664.41
6731.24 1481.23 1436.27 1711.43 1659.42
6734.07 1438.46 1451.96 1636.98 1683.61
6736.9 1436.19 1410.3 1702.42 1632.65
6739.72 1356.25 1401.94 1558.54 1624.14
6742.55 1413.4 1381.13 1611.46 1589.4
6745.38 1373.74 1382.47 1598.2 1599.95
6748.2 1360.27 1388.71 1590.19 1617.33
6751.03 1432.11 1416.51 1663.61 1632.9
6753.85 1457.14 1431.88 1644.92 1657.95
6756.68 1406.38 1403.46 1665.32 1623.55
6759.5 1346.86 1395.92 1560.4 1617.61
6762.33 1434.53 1399.86 1627.11 1608.36
6765.15 1418.2 1408.77 1637.55 1614.05
6767.98 1373.58 1372.25 1577.48 1576.25
6770.8 1324.98 1393.84 1513.73 1602.68
6773.63 1482.95 1399.29 1716.84 1609.47
6776.45 1389.94 1411.37 1597.85 1625.79
6779.28 1361.21 1370.4 1562.67 1579.28
6782.1 1360.06 1373.12 1577.33 1578.67
6784.92 1398.07 1375.05 1596 1577.67
6787.75 1367 1408.08 1559.67 1603.65
6790.57 1459.17 1392.99 1655.28 1599.72
6793.4 1352.8 1399.45 1584.2 1616.55
6796.22 1386.39 1388.92 1610.17 1600.54
6799.04 1427.56 1424.41 1607.27 1629.99
6801.87 1459.26 1438.45 1672.54 1632.63
6804.69 1428.54 1434.03 1618.08 1632.99
6807.51 1414.3 1391.8 1608.36 1580.44
6810.33 1332.57 1388.98 1514.89 1582.11
6813.16 1420.07 1388.28 1623.09 1587.48
6815.98 1412.2 1402.21 1624.46 1615.23
6818.8 1374.37 1400.69 1598.16 1607.81
6821.62 1415.51 1373.88 1600.82 1578.63
6824.44 1331.78 1375.04 1536.92 1570.28
6827.26 1377.84 1362.1 1573.1 1566.96
6830.09 1376.68 1345.14 1590.87 1552.28
6832.91 1280.91 1346.99 1492.88 1546.32
6835.73 1383.38 1355.63 1555.21 1553.95
6838.55 1402.61 1326.81 1613.75 1574.48
6841.37 1194.45 1253.34 1554.47 1544.78
6844.19 1162.97 1198.42 1466.13 1526.64
6847.01 1237.83 1200.53 1559.33 1514.74
6849.83 1200.79 1195.56 1518.76 1524.43
6852.65 1148.05 1173.81 1495.2 1497.62
6855.47 1172.57 1185.9 1478.89 1499.57
6858.29 1237.07 1190.63 1524.62 1493.69
6861.11 1162.23 1147.58 1477.56 1442.84
6863.93 1043.43 1064.48 1326.32 1355.2
6866.75 987.781 999.458 1261.72 1272.06
6869.57 967.165 965.67 1228.15 1227.48
6872.39 942.066 982.939 1192.57 1245.09
6875.2 1039.59 1021.22 1314.55 1286.35
6878.02 1081.99 1065.7 1351.93 1331.07
6880.84 1075.51 1080.04 1326.71 1354.12
6883.66 1082.62 1069.92 1383.72 1336.84
6886.48 1051.62 1066.53 1300.09 1342.22
6889.29 1065.35 1045.02 1342.86 1315.75
6892.11 1018.08 1048.76 1304.3 1329.97
6894.93 1062.83 1056.3 1342.74 1333.87
6897.75 1087.99 1062.58 1354.57 1356.42
6900.56 1036.9 1080.55 1371.94 1376.03
6903.38 1116.76 1073.88 1401.59 1373.12
6906.2 1067.98 1104.54 1345.84 1389.05
6909.01 1128.87 1138.06 1419.73 1415.97
6911.83 1217.31 1151.89 1482.35 1440.7
6914.65 1109.47 1147.37 1420.01 1443.72
6917.46 1115.33 1125.63 1428.8 1421.16
6920.28 1152.09 1152.26 1414.67 1442.74
6923.1 1189.35 1173.33 1484.75 1447.16
6925.91 1178.55 1164.87 1442.05 1452.56
6928.73 1126.71 1156.58 1430.89 1449.7
6931.54 1164.48 1138.43 1476.15 1434.93
6934.36 1124.09 1161.04 1397.76 1441.32
6937.17 1194.55 1159.75 1450.06 1428.26
6939.99 1160.6 1158.61 1436.97 1414.62
6942.8 1120.68 1154.43 1356.82 1406.5
6945.62 1182 1143.02 1425.73 1377.62
6948.43 1126.37 1145.62 1350.33 1398.19
6951.24 1128.49 1131.25 1418.52 1402.05
6954.06 1138.89 1145.8 1437.31 1442.65
6956.87 1170.03 1164.85 1472.11 1455.8
6959.68 1185.63 1178.1 1457.98 1450.31
6962.5 1178.63 1608.35 1420.84 1940.45
6965.31 2460.79 2307.61 2942.53 2776.31
6968.12 3283.4 2308.98 3965.55 2770.84
6970.94 1182.75 1873.41 1404.43 2265.81
6973.75 1154.07 1179.14 1427.45 1439.96
6976.56 1200.59 1143.65 1488.01 1415.44
6979.37 1076.28 1164.1 1330.86 1434.53
6982.19 1215.42 1178.11 1484.71 1447.86
6985 1242.64 1202.12 1528.01 1470.67
6987.81 1148.31 1191.98 1399.3 1465.27
6990.62 1185 1155.81 1468.49 1416.45
6993.43 1134.12 1172.47 1381.55 1430.8
6996.25 1198.31 1154.57 1442.36 1419.33
6999.06 1131.29 1122.51 1434.09 1392.18
7001.87 1037.93 1108.91 1300.08 1410.25
7004.68 1157.5 1100.29 1496.59 1387.78
7007.49 1105.44 1146.24 1366.67 1428.79
7010.3 1175.78 1143.71 1423.1 1388.09
7013.11 1149.91 1174.31 1374.49 1403.64
7015.92 1197.25 1173.59 1413.34 1405.45
7018.73 1173.6 1194.51 1428.53 1426.14
7021.54 1212.66 1185.3 1436.56 1440.85
7024.35 1169.62 1161.84 1457.47 1416.67
7027.16 1103.23 1125.99 1355.98 1391.55
7029.97 1105.11 1122.36 1361.21 1386.05
7032.78 1158.73 1136 1440.96 1392.91
7035.59 1144.15 1149.74 1376.54 1392.79
7038.39 1146.32 1143.57 1360.87 1357.22
7041.2 1140.23 1115.98 1334.25 1327.21
7044.01 1061.38 1113.63 1286.52 1328.44
7046.82 1139.28 1105.6 1364.54 1341.45
7049.63 1116.13 1132.53 1373.29 1359.79
7052.43 1142.2 1124.3 1341.54 1358.37
7055.24 1114.58 1134.35 1360.28 1360.19
7058.05 1146.29 1133.45 1378.77 1376.6
7060.86 1139.47 1133.37 1390.77 1372.81
7063.66 1114.36 1108.48 1348.89 1331.8
7066.47 1071.61 1110.95 1255.73 1319.87
7069.28 1146.89 1116.39 1354.98 1321.26
7072.08 1130.67 1147.44 1353.07 1358.94
7074.89 1164.77 1132.41 1368.76 1350.6
7077.7 1101.79 1124.43 1329.96 1337.29
7080.5 1106.74 1085.86 1313.14 1298.07
7083.31 1049.04 1090.46 1251.1 1291.88
7086.11 1115.6 1092.03 1311.41 1291.9
7088.92 1111.46 1131.7 1313.19 1323.95
7091.73 1168.04 1118.69 1347.27 1329.98
7094.53 1076.57 1105.76 1329.47 1329.38
7097.34 1072.68 1093.94 1311.41 1335.35
7100.14 1132.58 1092.93 1365.16 1312.13
7102.94 1073.54 1115.41 1259.84 1321.64
7105.75 1140.12 1093 1339.92 1289.51
7108.55 1065.32 1094.02 1268.77 1295.6
7111.36 1076.6 1081.63 1278.09 1288.55
7114.16 1102.98 1090 1318.79 1288.13
7116.96 1090.43 1110.43 1267.51 1315.02
7119.77 1137.89 1124.95 1358.75 1316.37
7122.57 1146.53 1127.53 1322.85 1323.33
7125.37 1098.17 1104.66 1288.4 1285.46
7128.18 1069.27 1073.36 1245.14 1264.3
7130.98 1052.63 1064.88 1259.37 1251.93
7133.78 1072.72 1068.23 1251.28 1267.23
7136.59 1079.32 1078.26 1291.05 1262.97
7139.39 1082.72 1068.27 1246.57 1260.37
7142.19 1042.77 1056.38 1243.5 1243.36
7144.99 1043.66 1047.04 1240.03 1228.67
7147.79 1054.69 1052.2 1202.47 1231.11
7150.59 1058.24 1049.52 1250.84 1224.85
7153.4 1035.63 1043.95 1221.23 1237.83
7156.2 1037.97 1039.81 1241.44 1232.99
7159 1045.83 1052.53 1236.31 1238.41
7161.8 1073.8 1057.41 1237.48 1219.78
7164.6 1052.61 1048.5 1185.56 1209.44
7167.4 1019.09 1024.65 1205.3 1181.72
7170.2 1002.25 1000.89 1154.29 1182.97
7173 981.336 985.019 1189.31 1149.66
7175.8 971.468 987.493 1105.36 1159.63
7178.6 1009.67 969.051 1184.2 1121.64
7181.4 926.011 962.571 1075.35 1127.44
7184.2 952.026 938.95 1122.77 1086.15
7187 938.812 944.555 1060.33 1092.39
7189.8 942.826 968.812 1094.08 1108.42
7192.59 1024.8 973.005 1170.85 1112.38
7195.39 951.39 985.907 1072.21 1128.17
7198.19 981.534 945.076 1141.44 1088.09
7200.99 902.303 963.628 1050.62 1114.01
7203.79 1007.05 990.857 1149.98 1130.46
7206.59 1063.22 1027.32 1190.79 1164.42
7209.38 1011.68 1023.03 1152.5 1164.46
7212.18 994.19 1004.95 1150.1 1146.49
7214.98 1008.99 1007.89 1136.87 1169.5
7217.77 1020.48 1018.22 1221.52 1182.5
7220.57 1025.2 1033.87 1189.09 1207.11
7223.37 1055.93 1043.31 1210.72 1205.16
7226.16 1048.79 1039.84 1215.67 1202.73
7228.96 1014.8 1015.3 1181.81 1194.43
7231.76 982.309 994.729 1185.82 1183.41
7234.55 987.081 992.795 1182.58 1168.99
7237.35 1008.99 1009.75 1138.57 1140.27
7240.14 1033.16 983.478 1099.64 1102.09
7242.94 908.275 984.067 1068.04 1116.24
7245.73 1010.76 955.843 1181.04 1106.21
7248.53 948.491 970.852 1069.57 1106.04
7251.32 953.302 988.279 1067.5 1099.45
7254.12 1063.05 998.677 1161.29 1094.88
7256.91 979.684 1018.51 1055.86 1114.85
7259.71 1012.8 989.459 1127.42 1099.43
7262.5 975.896 984.747 1115 1122.89
7265.3 965.547 939.262 1126.25 1086.44
7268.09 876.343 948.477 1018.07 1082
7270.88 1003.54 929.95 1101.66 1045.51
7273.68 909.965 970.509 1016.79 1052.31
7276.47 998.021 977.722 1038.47 1053.74
7279.26 1025.18 1002.63 1105.95 1084.2
7282.05 984.702 980.206 1108.18 1089.56
7284.85 930.735 939.118 1054.55 1063.99
7287.64 901.917 931.066 1029.25 1068.3
7290.43 960.547 939.017 1121.09 1068.98
7293.22 954.588 970.963 1056.6 1075.81
7296.02 997.754 977.005 1049.74 1046.35
7298.81 978.672 1007.48 1032.72 1064.98
7301.6 1046.01 1010.43 1112.48 1090.02
7304.39 1006.6 1006 1124.85 1101.1
7307.18 965.381 982.1 1065.98 1096.48
7309.97 974.318 964.117 1098.59 1067.87
7312.76 952.653 990.971 1039.04 1096.81
7315.55 1045.94 966.13 1152.79 1074.41
7318.34 899.792 981.931 1031.4 1106.45
7321.13 1000.06 951.643 1135.16 1086.7
7323.92 955.079 988.823 1093.54 1121.52
7326.71 1011.33 1007.99 1135.87 1132.8
7329.5 1057.55 1027.23 1169 1161.06
7332.29 1012.82 1026.31 1178.3 1138.88
7335.08 1008.56 1000.48 1069.34 1129.76
7337.87 980.064 975.506 1141.65 1088.77
7340.66 937.894 941.809 1055.31 1088.8
7343.45 907.469 932.232 1069.44 1056.07
7346.23 951.333 956.9 1043.46 1071.61
7349.02 1011.9 992.767 1101.92 1090.31
7351.81 1015.07 1029.38 1125.54 1125.17
7354.6 1061.16 999.203 1148.03 1097.2
7357.38 921.384 967.453 1018.03 1053.46
7360.17 919.815 965.815 994.323 1057.18
7362.96 1056.24 981.945 1159.19 1060.46
7365.75 969.774 1041.35 1027.86 1104.43
7368.53 1098.02 993.488 1126.23 1062.64
7371.32 912.67 1009.86 1033.84 1087.49
7374.11 1018.9 939.668 1102.42 1060.89
7376.89 887.434 976.794 1046.43 1096.73
7379.68 1024.05 961.642 1141.36 1078.72
7382.46 973.444 1005.03 1048.38 1091.05
7385.25 1017.6 1008.61 1083.41 1082.15
7388.03 1034.8 1011.6 1114.64 1082.5
7390.82 982.393 1024.17 1049.44 1088.44
7393.6 1055.32 1007.84 1101.24 1063.78
7396.39 985.803 1011.64 1040.66 1058.82
7399.17 993.804 1013.59 1034.55 1060.6
7401.96 1061.15 989.578 1106.6 1035.18
7404.74 913.78 995.031 964.396 1052.37
7407.53 1010.16 953.864 1086.12 1013.08
7410.31 937.649 972.218 988.724 1044.15
7413.09 968.842 936.405 1057.62 1002.81
7415.88 902.725 926.875 962.093 1013.09
7418.66 909.058 945.772 1019.55 1041.52
7421.44 1025.53 947.785 1142.9 1052.76
7424.22 908.766 967.286 995.821 1054.11
7427.01 967.561 925.167 1023.6 996.574
7429.79 899.174 916.66 970.301 981.353
7432.57 883.246 913.337 950.156 976.598
7435.35 957.591 935.255 1009.34 995.23
7438.14 964.928 976.231 1026.2 1027.1
7440.92 1006.18 976.195 1045.76 1030.96
7443.7 957.482 983.85 1020.93 1049.48
7446.48 987.893 965.916 1081.75 1046.99
7449.26 952.374 995.402 1038.3 1076.78
7452.04 1045.94 983.867 1110.29 1064.41
7454.82 953.288 963.903 1044.64 1047.91
7457.6 892.484 946.622 988.808 1017.59
7460.38 994.093 966.951 1019.32 1027.37
7463.16 1014.28 984.86 1073.99 1033.87
7465.94 946.211 964.406 1008.3 1031.96
7468.72 932.731 962.391 1013.58 1029.04
7471.5 1008.23 968.723 1065.25 1025.35
7474.28 965.208 986.643 997.221 1037.85
7477.06 986.489 955.047 1051.09 1014.12
7479.84 913.443 959.236 994.046 1029.19
7482.62 977.776 961.537 1042.43 1025.53
7485.39 993.392 964.89 1040.12 1024.34
7488.17 923.503 953.016 990.472 1009.97
7490.95 942.154 962.653 999.33 1018.38
7493.73 1022.3 989.763 1065.35 1030.69
7496.51 1004.83 995.965 1027.4 1028.73
7499.28 960.759 972.642 993.443 1017.37
7502.06 952.333 934.595 1031.28 991.024
7504.84 890.693 947.323 948.349 1004.34
7507.61 998.942 926.906 1033.39 983.624
7510.39 891.084 964.111 969.131 1018.13
7513.17 1002.31 940.915 1051.88 992.974
7515.94 929.355 950.596 957.913 975.176
7518.72 920.125 917.936 915.738 948.847
7521.49 904.33 939.578 972.89 983.734
7524.27 994.28 986.049 1062.57 1034.23
7527.04 1059.54 994.07 1067.23 1026.14
7529.82 928.395 975.708 948.603 999.169
7532.59 939.193 928.245 981.67 951.493
7535.37 917.148 930.372 924.205 950.618
7538.14 934.774 917.393 945.978 930.022
7540.92 900.257 914.117 919.882 940.723
7543.69 907.32 891.076 956.31 933.405
7546.47 865.649 902.735 924.024 950.55
7549.24 935.235 910.308 971.315 945.192
7552.01 930.041 934.597 940.237 962.979
7554.79 938.517 938.754 977.384 959.891
7557.56 947.703 933.39 962.051 966.091
7560.33 913.951 921.248 958.836 952.362
7563.1 902.091 915.652 936.198 947.862
7565.88 930.913 899.325 948.55 929.783
7568.65 864.971 911.057 904.6 961.276
7571.42 937.288 902.562 1030.68 947.283
7574.19 905.427 936.277 906.572 967.717
7576.96 966.115 928.052 965.902 947.667
7579.73 912.614 920.589 970.529 941.291
7582.51 883.039 901.302 887.441 914.966
7585.28 908.255 882.53 886.926 868.433
7588.05 856.297 816.477 830.932 820.558
7590.82 684.88 698.129 743.815 733.209
7593.59 553.211 567.576 624.878 615.896
7596.36 464.639 453.021 478.996 487.976
7599.13 341.215 377.489 360.054 389.194
7601.9 326.613 321.205 328.533 332.222
7604.67 295.786 320.307 308.078 321.682
7607.44 338.522 348.216 328.436 353.737
7610.21 410.339 416.96 424.698 422.428
7612.97 502.019 501.999 514.15 508.136
7615.74 593.639 552.538 585.559 540.993
7618.51 561.958 555.841 523.269 545.544
7621.28 511.928 544.824 527.804 541.419
7624.05 560.587 527.06 573.185 534.724
7626.81 508.665 543.248 503.183 533.708
7629.58 560.493 511.186 524.758 505.561
7632.35 464.4 516.572 488.743 520.854
7635.12 524.825 493.26 549.061 514.797
7637.88 490.556 527.246 506.586 539.885
7640.65 566.357 549.825 564.007 551.107
7643.42 592.563 583.613 582.728 580.433
7646.18 591.921 604.337 594.564 593.753
7648.95 628.527 632.419 603.966 624.297
7651.71 676.808 652.448 674.36 641.771
7654.48 652.01 662.22 646.985 665.981
7657.25 657.842 672.191 676.598 680.055
7660.01 706.722 682.077 716.581 687.522
7662.78 681.666 698.856 669.388 697.922
7665.54 708.18 719.373 707.797 703.483
7668.31 768.275 738.804 733.266 719.418
7671.07 739.959 763.684 717.193 742.495
7673.83 782.819 771.55 777.027 760.532
7676.6 791.873 805.627 787.376 795.112
7679.36 842.189 807.516 820.931 788.178
7682.12 788.485 818.435 756.226 804.756
7684.89 824.63 815.943 837.112 797.744
7687.65 834.715 805.164 799.895 789.636
7690.41 756.146 794.986 731.901 768.595
7693.18 794.097 791.073 773.991 776.199
7695.94 822.978 800.685 822.704 798.128
7698.7 784.98 805.931 797.69 794.032
7701.46 809.835 815.96 761.701 790.74
7704.22 853.066 829.843 812.828 773.631
7706.99 826.627 831.751 746.363 772.004
7709.75 815.561 831.342 756.822 770.585
7712.51 851.838 830.517 808.569 796.39
7715.27 824.153 830.601 823.78 803.676
7718.03 815.813 830.24 778.678 800.686
7720.79 850.755 830.255 799.599 778.322
7723.55 824.197 826.821 756.69 771.43
7726.31 805.511 794.757 758.001 758.497
7729.07 754.564 788.144 760.8 765.621
7731.83 804.358 785.598 778.063 767.494
7734.59 797.872 807.311 763.62 778.103
7737.35 819.704 753.784 792.627 756.165
7740.11 643.776 719.185 712.247 757.972
7742.87 694.076 672.183 769.041 739.411
7745.62 678.697 678.761 736.944 742.714
7748.38 663.509 629.758 722.156 730.378
7751.14 547.068 628.808 732.033 733.557
7753.9 675.846 653.66 746.483 749.414
7756.66 738.065 702.876 769.727 745.312
7759.41 694.718 704.417 719.725 725.894
7762.17 680.468 682.03 688.231 723.621
7764.93 670.903 663.317 762.906 727.52
7767.68 638.581 675.261 731.421 755.043
7770.44 716.298 670.512 770.801 728.425
7773.2 656.658 665.993 683.051 702.2
7775.95 625.024 629.767 652.748 670.63
7778.71 607.619 639.351 676.091 681.081
7781.47 685.411 656.283 714.403 711.658
7784.22 675.82 680.955 744.478 735.866
7786.98 681.634 674.805 748.715 735.199
7789.73 666.962 663.488 712.402 711.647
7792.49 641.868 662.232 673.822 692.479
7795.24 677.867 678.58 691.212 691.292
7797.99 716.007 704.412 708.842 713.338
7800.75 719.361 695.745 739.961 722.128
7803.5 651.868 696.24 717.581 721.829
7806.26 717.49 695.713 707.944 706.187
7809.01 717.78 700.516 693.037 720.287
7811.76 666.279 686.34 759.879 713.664
7814.52 674.963 686.538 688.074 709.229
7817.27 718.372 702.003 679.733 684.874
7820.02 712.674 709.748 686.815 684.929
7822.77 698.197 674.048 688.238 691.086
7825.52 611.272 659.277 698.205 709.832
7828.28 668.36 670.532 743.054 738.147
7831.03 731.963 730.187 773.183 789.066
7833.78 790.236 772.076 850.962 823.164
7836.53 794.029 794.888 845.347 845.243
7839.28 800.398 789.483 839.42 815.164
7842.03 774.022 745.858 760.727 770.607
7844.78 663.153 719.881 711.674 724.442
7847.53 722.469 665.544 700.926 668.468
7850.28 611.011 682.186 592.803 649.622
7853.03 713.078 651.269 655.136 620.513
7855.78 629.718 659.644 613.601 641.476
7858.53 636.137 640.049 655.692 661.079
7861.28 654.291 660.743 713.945 694.254
7864.03 691.802 653.25 713.126 680.93
7866.78 613.657 658.086 615.719 668.483
7869.53 668.8 629.054 676.604 632.958
7872.28 604.704 623.621 606.55 642.714
7875.02 597.36 614.756 644.988 611.64
7877.77 642.205 618.281 583.382 616.551
7880.52 615.279 614.944 621.284 583.844
7883.27 587.349 637.831 546.866 599.784
7886.01 710.866 652.132 631.201 605.835
7888.76 658.181 678.348 639.439 638.587
7891.51 665.998 657.123 645.122 648.206
7894.25 647.189 643.077 660.056 634.743
7897 616.043 615.905 599.052 624.1
7899.74 584.483 600.048 613.194 609.449
7902.49 599.617 615.401 616.101 619.328
7905.24 662.104 627.948 628.689 593.2
7907.98 622.124 630.574 534.811 594.105
7910.73 607.495 630.789 618.815 556.282
7913.47 662.747 608.169 515.22 576.375
7916.22 554.265 600.847 595.09 565.049
7918.96 585.529 574.496 584.837 579.379
7921.7 583.694 610.364 558.21 589.092
7924.45 661.869 632.852 624.23 596.743
7927.19 652.993 638.732 607.79 604.107
7929.93 601.333 623.433 580.302 609.326
7932.68 615.973 611.546 639.887 605.546
7935.42 617.332 593.65 596.45 579.735
7938.16 547.645 595.022 502.868 567.926
7940.91 620.087 589.094 604.46 547.982
7943.65 599.55 584.195 536.616 555.971
7946.39 532.947 594.157 526.835 561.129
7949.13 649.975 618.511 619.935 602.849
7951.87 672.611 638.579 661.778 613.911
7954.62 593.15 630.11 560.02 590.86
7957.36 624.567 615.756 550.781 554.75
7960.1 629.551 608.248 553.45 559.638
7962.84 570.625 584.12 574.684 549.742
7965.58 552.183 555.239 521.093 534.378
7968.32 542.91 572.332 507.356 527.868
7971.06 621.902 592.324 555.155 539.606
7973.8 612.16 622.487 556.306 555.402
7976.54 633.399 616.402 554.745 557.747
7979.28 603.648 614.528 562.189 551.245
7982.02 606.537 597.199 536.801 547.7
7984.75 581.411 607.132 544.11 549.444
7987.49 633.449 584.878 567.42 547.083
7990.23 539.774 593.283 529.721 546.912
7992.97 606.628 607.927 543.597 585.937
7995.71 677.38 614.682 684.493 579.927
7998.44 560.038 602.283 511.691 570.095
8001.18 569.432 574.673 514.102 529.365
8003.92 594.548 587.505 562.303 539.725
8006.66 598.534 594.872 542.77 552.772
8009.39 591.533 584.723 553.243 529.632
8012.13 564.101 594.89 492.883 535.38
8014.87 629.036 607.524 560.013 533.525
8017.6 629.434 628.066 547.68 563.917
8020.34 625.729 625.263 584.059 568.989
8023.07 620.627 625.647 575.228 562.038
8025.81 630.586 617.436 526.828 525.54
8028.54 601.095 608.773 474.565 517.985
8031.28 594.638 616.703 552.561 533.989
8034.01 654.375 604.091 574.841 543.962
8036.75 563.259 613.574 504.483 544.153
8039.48 623.089 597.098 553.136 534.945
8042.21 604.946 614.628 547.217 554.871
8044.95 615.848 607.14 564.26 540.476
8047.68 600.625 588.637 509.952 512.411
8050.41 549.437 586.512 463.021 503.201
8053.15 609.473 586.039 536.629 501.101
8055.88 599.207 596.747 503.654 523.73
8058.61 581.561 595.986 530.906 519.148
8061.34 607.19 592.86 522.883 524.568
8064.08 589.828 599.701 519.915 524.519
8066.81 602.085 599.986 530.76 537.411
8069.54 608.046 602.976 561.558 524.749
8072.27 598.798 591.259 481.928 515.229
8075 566.933 580.313 502.2 505.934
8077.73 575.207 571.56 533.674 517.794
8080.46 572.538 575.083 517.507 521.44
8083.19 577.504 557.527 513.14 502.12
8085.92 522.539 539.078 475.712 485.861
8088.65 517.193 530.746 468.732 477.851
8091.38 552.506 554.718 489.109 481.176
8094.11 594.455 568.768 485.687 479.779
8096.84 559.343 563.677 464.543 473.046
8099.57 537.233 555.111 468.908 473.454
8102.3 568.756 553.485 486.911 474.78
8105.03 554.466 561.331 468.522 461.386
8107.75 560.771 553.124 428.726 465.934
8110.48 544.136 548.57 500.556 468.402
8113.21 540.802 551.531 475.926 484.928
8115.94 569.656 552.164 478.303 473.838
8118.66 546.032 548.291 467.284 469.618
8121.39 529.184 547.076 463.267 473.098
8124.12 566.012 558.194 488.743 486.364
8126.84 579.385 567.711 507.083 490.349
8129.57 557.735 531.953 475.22 459.309
8132.3 458.74 516.65 395.624 429.102
8135.02 533.477 503.232 416.463 423.431
8137.75 517.48 522.983 458.206 426.619
8140.47 517.991 515.316 405.188 428.283
8143.2 510.478 511.039 421.455 435.661
8145.92 504.649 503.555 480.34 439.449
8148.65 495.539 503.254 416.553 439.496
8151.37 509.575 508.117 421.596 428.862
8154.09 519.236 508.804 448.438 436.047
8156.82 497.599 498.905 438.105 434.204
8159.54 479.879 492.925 416.07 420.278
8162.26 501.297 488.53 406.659 413.144
8164.99 484.413 504.464 416.703 419.821
8167.71 527.681 512.334 436.102 415.479
8170.43 524.909 513.328 393.63 417.665
8173.15 487.394 501.131 423.263 403.117
8175.88 491.091 495.675 392.458 418.182
8178.6 508.542 493.972 438.826 409.497
8181.32 482.284 490.504 397.206 411.008
8184.04 480.686 483.351 396.992 401.016
8186.76 487.082 500.972 408.849 412.281
8189.48 535.15 521.492 431.001 432.733
8192.2 542.243 518.168 458.349 421.138
8194.92 477.11 496.019 374.064 408.181
8197.64 468.703 473.218 392.13 386.992
8200.36 473.84 500.223 394.782 409.088
8203.08 558.125 514.061 440.351 412.144
8205.8 510.219 512.977 401.3 417.44
8208.52 470.587 494.128 410.669 407.282
8211.24 501.578 502.733 409.879 411.018
8213.96 536.035 512.572 412.507 417.552
8216.68 500.102 498.852 430.271 408.147
8219.39 460.418 491.335 381.664 407.083
8222.11 513.484 484.4 409.314 388.234
8224.83 479.297 461.973 373.723 363.932
8227.55 393.137 455.44 308.759 362.504
8230.26 493.886 441.518 405.03 353.35
8232.98 437.532 479.591 346.261 381.428
8235.7 507.355 488.984 392.992 376.839
8238.41 522.066 512.104 391.264 389.916
8241.13 506.891 514.884 385.491 387.967
8243.84 515.696 518.761 387.147 394.461
8246.56 533.695 530.514 410.745 413.584
8249.28 542.15 536.519 442.859 427.744
8251.99 533.711 514.88 429.629 398.678
8254.71 468.78 505.085 323.548 381.597
8257.42 512.763 489.534 391.614 366.104
8260.13 487.058 512.367 383.15 395.976
8262.85 537.28 501 413.164 393.307
8265.56 478.661 506.598 383.607 395.976
8268.28 503.852 498.151 391.157 392.779
8270.99 511.94 502.802 403.572 398.606
8273.7 492.615 498.267 401.089 401.961
8276.41 490.247 494.299 401.221 380.871
8279.13 500.036 471.032 340.304 364.606
8281.84 422.813 440.076 352.293 306.335
8284.55 397.378 429.358 226.408 300.188
8287.26 467.884 456.478 321.864 290.673
8289.97 504.173 485.315 323.749 314.381
8292.69 483.89 482.387 297.529 323.938
8295.4 459.099 473.195 350.537 355.653
8298.11 476.597 436.404 418.894 321.103
8300.82 373.517 453.556 193.876 322.324
8303.53 510.553 443.761 354.201 303.348
8306.24 447.214 486.409 361.968 366.506
8308.95 501.461 481.301 383.349 356.44
8311.66 495.229 510.713 324.003 371.895
8314.37 535.45 494.485 408.332 365
8317.07 452.777 495.277 362.665 377.704
8319.78 497.606 485.463 362.115 364.544
8322.49 506.007 488.692 368.853 360.405
8325.2 462.463 483.48 350.248 356.211
8327.91 481.97 485.002 349.532 365.211
8330.62 510.572 495.656 395.854 369.031
8333.32 494.427 501.178 361.708 365.167
8336.03 498.534 504.353 337.938 343.55
8338.74 520.099 524.395 331.005 331.051
8341.44 554.553 528.565 324.209 334.471
8344.15 511.043 499.684 348.2 320.024
8346.86 433.457 480.538 287.663 309.53
8349.56 497.113 460.822 292.728 321.286
8352.27 451.896 446.877 383.468 325.75
8354.97 391.622 448.575 301.054 354.432
8357.68 502.208 476.683 378.775 367.138
8360.38 536.219 502.356 421.585 368.165
8363.09 468.643 503.07 304.137 353.832
8365.79 504.348 500.673 335.774 330.166
8368.5 529.027 498.09 350.588 351.035
8371.2 460.894 490.733 366.744 354.396
8373.9 482.279 468.878 345.856 351.872
8376.61 463.461 479.843 343.015 368.849
8379.31 493.789 486.863 417.674 361.331
8382.01 503.338 493.735 323.302 360.752
8384.71 484.078 478.282 341.28 327.758
8387.42 447.429 496.086 318.693 353.475
8390.12 556.751 510.422 400.453 374.823
8392.82 527.086 554.162 405.323 392.965
8395.52 578.651 1721.93 373.12 1155.54
8398.22 4060.05 2596.03 2688.19 1731.26
8400.92 3149.38 2571.36 2132.48 1697.82
8403.62 504.656 1386.72 272.809 912.584
8406.32 506.127 508.223 332.468 324.538
8409.02 513.885 493.229 368.338 339.09
8411.72 459.674 486.261 316.463 332.29
8414.42 485.223 474.665 312.07 322.031
8417.12 479.096 490.962 337.561 328.977
8419.82 508.567 477.214 337.299 330.251
8422.52 443.977 477.578 315.894 322.229
8425.22 480.19 467.389 313.495 303.053
8427.92 478.002 491.616 279.769 296.483
8430.62 516.656 450.739 296.186 281.005
8433.31 357.558 430.912 267.061 276.207
8436.01 418.522 343.034 265.374 238.371
8438.71 253.021 335.632 182.677 228.568
8441.41 335.352 317.673 237.655 233.399
8444.1 364.646 382.383 279.865 270.27
8446.8 447.152 449.778 293.29 295.99
8449.49 537.535 486.879 314.816 315.581
8452.19 475.95 508.479 338.638 321.498
8454.89 511.954 484.987 311.039 317.863
8457.58 467.056 479.027 303.912 316.084
8460.28 458.069 465.68 333.301 319.207
8462.97 471.915 481.349 320.407 327.838
8465.67 514.062 461.32 329.804 302.898
8468.36 397.983 464.643 258.483 297.749
8471.05 481.886 462.705 304.96 298.423
8473.75 508.247 485.406 331.825 308.627
8476.44 466.085 484.038 289.097 311.655
8479.13 477.783 485.074 314.042 317.878
8481.83 511.353 473.367 350.494 307.116
8484.52 430.966 479.996 256.813 311.044
8487.21 497.669 468.677 325.826 299.003
8489.91 477.396 480.631 314.369 320.735
8492.6 466.827 455.83 322.011 303.138
8495.29 423.266 447.045 273.035 282.741
8497.98 451.042 443.868 253.176 253.143
8500.67 457.295 462.001 233.218 264.629
8503.36 477.667 477.867 307.493 254.11
8506.05 498.639 480.904 221.618 259.632
8508.74 466.406 469.66 249.785 258.54
8511.43 443.933 471.47 304.216 283.023
8514.12 504.071 476.272 295.068 295.12
8516.81 480.812 489.159 286.075 297.432
8519.5 482.594 485.23 311.153 298.607
8522.19 492.284 487.702 298.592 298.816
8524.88 488.229 477.47 286.703 297.889
8527.57 451.896 462.45 308.372 291.116
8530.26 447.226 454.728 278.274 300.373
8532.94 465.062 463.324 314.472 306.75
8535.63 477.683 460.919 327.505 307.413
8538.32 440.013 451.703 280.261 296.549
8541.01 437.415 413.489 281.88 262.84
8543.69 363.04 398.471 226.379 253.749
8546.38 394.958 381.705 252.989 256.902
8549.07 387.118 405.887 291.339 289.194
8551.75 435.585 424.136 323.252 318.397
8554.44 449.706 440.75 340.601 337.918
8557.12 436.958 446.777 349.9 348.704
8559.81 453.666 447.672 355.611 338.516
8562.49 452.391 440.608 310.035 316.902
8565.18 415.767 432.672 285.059 303.882
8567.86 429.858 416.125 316.552 284.628
8570.55 402.751 436.055 252.272 296.149
8573.23 475.557 438.379 319.625 294.47
8575.91 436.831 452.59 311.514 309.956
8578.6 445.383 444.423 298.731 307.384
8581.28 451.055 445.124 311.906 288.028
8583.96 438.935 446.083 253.447 285.842
8586.64 448.259 454.857 292.174 286.744
8589.33 477.376 458.086 314.611 303.888
8592.01 448.623 452.914 304.881 306.264
8594.69 432.743 439.303 299.302 297.964
8597.37 436.544 442.231 289.708 311.17
8600.05 457.408 442.864 344.499 305.085
8602.73 434.64 438.559 281.049 310.68
8605.41 423.629 437.656 306.492 288.852
8608.09 454.7 420.849 279.015 285.748
8610.77 384.218 439.306 271.738 290.604
8613.45 479 433.394 321.059 289
8616.13 436.965 440.255 274.204 275.592
8618.81 404.8 432.283 231.513 263.356
8621.49 455.085 436.464 284.351 254.14
8624.17 449.507 455.22 246.556 280.88
8626.85 461.067 458.213 311.732 285.741
8629.53 464.065 480.096 298.933 300.383
8632.2 515.156 452.069 290.484 299.755
8634.88 376.986 440.121 309.849 272.413
8637.56 428.22 420.496 216.905 265.87
8640.24 456.281 436.935 270.855 259.718
8642.91 426.302 439.178 291.394 281.865
8645.59 434.95 418.897 283.347 293.318
8648.26 395.44 425.135 305.213 299.34
8650.94 445.017 405.273 309.459 308.144
8653.62 375.362 430.546 309.758 284.228
8656.29 471.261 416.781 233.467 257.975
8658.97 403.722 420.126 230.7 255.591
8661.64 385.396 395.035 302.606 258.063
8664.32 395.986 398.103 240.882 259.253
8666.99 412.928 440.231 234.271 248.659
8669.66 511.78 445.84 270.824 264.654
8672.34 412.813 441.391 288.866 283.376
8675.01 399.579 407.695 290.436 284.557
8677.68 410.694 409.871 274.37 276.498
8680.36 419.34 435.627 264.687 270.379
8683.03 476.848 434.426 272.081 271.549
8685.7 407.09 446.087 277.88 275.432
8688.37 454.323 428.045 276.336 266.825
8691.04 422.722 432.033 246.26 262.523
8693.72 419.054 434.801 264.974 261.079
8696.39 462.627 453.475 272.004 269.023
8699.06 478.744 445.261 270.09 272.583
8701.73 394.411 438.166 275.656 263.861
8704.4 441.342 426.609 245.836 262.487
8707.07 444.074 440.264 265.97 264.091
8709.74 435.376 442.825 280.468 276.17
8712.41 449.024 435.72 282.073 273.873
8715.08 422.76 451.42 259.076 270.781
8717.75 482.476 448.914 271.193 263.007
8720.41 441.506 451.395 258.752 262.137
8723.08 430.204 457.924 256.467 268.097
8725.75 502.062 455.874 289.071 272.068
8728.42 435.357 460.893 270.667 270.809
8731.09 445.26 444.965 252.688 258.447
8733.75 454.279 460.185 251.985 270.649
8736.42 481.015 455.421 307.273 279.362
8739.09 430.971 454.267 278.827 278.98
8741.75 450.815 439.091 250.839 256.716
8744.42 435.488 465.366 240.48 262.528
8747.08 509.794 458.386 296.265 260.719
8749.75 429.876 456.411 245.411 267.723
8752.41 429.564 453.296 261.494 272.199
8755.08 500.447 471.274 309.693 297.933
8757.74 483.81 468.637 322.613 278.584
8760.41 421.653 440.736 203.447 265.51
8763.07 416.745 412.364 270.47 224.846
8765.74 398.695 414.266 200.622 199.309
8768.4 427.358 423.143 126.836 209.5
8771.06 443.377 412.644 301.042 218.48
8773.73 367.196 444.498 227.563 266.581
8776.39 522.922 440.626 271.138 243.543
8779.05 431.762 470.222 231.928 228.198
8781.71 455.983 439.695 181.528 214.907
8784.37 431.339 438.922 231.265 206.064
8787.04 429.443 423.999 205.398 236.57
8789.7 411.214 419.728 273.047 243.287
8792.36 418.527 412.342 251.415 246.78
8795.02 407.285 401.166 215.878 215.782
8797.68 377.686 403.352 180.053 212.268
8800.34 425.084 425.778 240.874 223.775
8803 474.562 445.295 250.398 227.64
8805.66 436.238 443.942 191.648 229.931
8808.32 421.025 416.62 247.748 217.962
8810.98 392.595 424.18 214.489 238.832
8813.63 458.919 431.831 254.26 241.271
8816.29 443.978 448.727 255.064 254.265
8818.95 443.285 439.178 253.47 286.147
8821.61 430.271 453.802 349.907 287.129
8824.27 487.851 503.597 258.01 318.704
8826.92 592.67 491.774 348.195 251.284
8829.58 394.802 455.14 147.646 228.983
8832.24 377.95 414.588 191.108 153.16
8834.89 471.013 408.003 120.726 137.779
8837.55 375.048 425.922 101.503 132.185
8840.2 431.706 404.217 174.327 150.923
8842.86 405.898 412.074 176.94 187.289
8845.51 398.62 424.215 210.601 209.237
8848.17 468.127 420.589 240.17 232.761
8850.82 395.021 423.065 247.511 231.174
8853.48 406.047 423.104 205.842 222.036
8856.13 468.245 441.014 212.754 204.273
8858.78 448.749 431.965 194.224 207.719
8861.44 378.9 417.841 216.179 221.424
8864.09 425.875 405.672 253.87 235.776
8866.74 412.24 429.756 237.278 241.853
8869.4 451.152 442.368 234.411 226.617
8872.05 463.712 435.787 208.161 184.883
8874.7 392.497 443.175 112.077 175.704
8877.35 473.317 435.948 206.874 179.07
8880 442.03 456.345 218.26 246.198
8882.65 453.689 434.858 313.461 241.746
8885.3 408.854 433.406 193.516 231.638
8887.96 437.676 427.517 187.938 194.01
8890.61 436.021 412.583 200.577 150.889
8893.25 364.05 398.976 64.1526 142.089
8895.9 396.857 388.4 161.538 130.347
8898.55 404.292 404.669 165.35 203.172
8901.2 412.859 421.084 282.628 218.451
8903.85 446.101 400.194 207.374 205.245
8906.5 341.624 401.442 125.732 187.405
8909.15 416.603 399.554 229.11 177.263
8911.8 440.435 431.559 176.948 204.147
8914.44 437.639 434.293 206.382 203.657
8917.09 424.803 430.339 227.641 229.831
8919.74 428.574 432.47 255.469 214.491
8922.38 444.031 407.075 160.362 155.078
8925.03 348.62 376.046 49.4034 92.1941
8927.68 335.487 354.398 66.8167 68.5402
8930.32 379.087 374.105 89.4003 97.6259
8932.97 407.741 400.76 136.661 140.485
8935.61 415.453 424.528 195.395 175.051
8938.26 450.391 423.726 193.098 205.222
8940.9 405.334 434.109 227.175 187.545
8943.54 446.601 420.527 142.363 188.862
8946.19 409.645 423.613 197.049 176.6
8948.83 414.594 387.959 190.387 180.548
8951.48 339.638 393.137 154.209 166.124
8954.12 425.18 416.3 153.777 167.713
8956.76 484.082 454.889 195.153 179.216
8959.4 455.404 434.083 188.719 168.467
8962.05 362.764 406.136 121.531 118.049
8964.69 400.24 378.803 43.8979 85.9993
8967.33 373.403 373.552 92.569 80.9925
8969.97 347.013 366.675 106.51 110.725
8972.61 379.609 367.05 133.097 134.576
8975.25 374.527 403.982 164.121 150.784
8977.89 457.81 408.516 155.134 166.713
8980.53 393.212 405.368 180.882 172.416
8983.17 365.083 385.768 181.232 193.423
8985.81 399.009 371.675 218.155 187.078
8988.45 350.931 364.473 161.847 198.351
8991.09 343.478 330.088 215.051 192.569
8993.73 295.856 333.526 200.81 171.109
8996.36 361.243 353.793 97.4662 158.629
8999 404.281 377.58 177.612 148.964
9001.64 367.217 386.656 171.813 142.946
9004.28 388.471 370.019 79.4124 127.813
9006.91 354.368 358.935 132.213 114.254
9009.55 333.967 369.538 131.136 134.133
9012.19 420.279 366.394 139.051 135.891
9014.82 344.935 379.303 137.487 151.712
9017.46 372.695 364.72 178.599 160.045
9020.09 376.53 379.228 164.05 164.837
9022.73 388.458 382.804 151.863 158.539
9025.36 383.422 383.362 159.704 155.818
9028 378.205 380.103 155.888 148.896
9030.63 378.681 388.034 131.096 154.156
9033.27 407.215 395.708 175.483 159.53
9035.9 401.229 406.777 172.01 176.485
9038.53 411.887 409.448 181.962 181.999
9041.17 415.228 399.673 192.027 178.847
9043.8 371.904 405.629 162.551 178.209
9046.43 429.755 400.808 180.048 168.948
9049.06 400.767 391.277 164.245 160.377
9051.7 343.31 368.816 136.836 160.998
9054.33 362.371 361.817 181.913 137.044
9056.96 379.771 359.182 92.3843 133.234
9059.59 335.404 367.782 125.404 126.253
9062.22 388.17 367.09 160.97 155.339
9064.85 377.697 376.954 179.644 163.297
9067.48 364.995 337.95 149.277 135.904
9070.11 271.157 280.089 78.7894 101.188
9072.74 204.116 158.425 75.4987 51.4294
