wavelength spectrum_sum 3smoothed_sum spectrum_optimal 3smoothed_optimal
3508.82 28.232 26.5865 16.7844 17.4985
3511.74 51.5275 52.3897 35.711 41.2792
3514.65 77.4096 61.3105 71.3421 49.784
3517.57 54.9944 65.3489 42.2989 53.7837
3520.48 63.6428 56.2085 47.7102 44.5521
3523.39 49.9882 53.6987 43.6473 38.1193
3526.31 47.4651 48.7924 23.0004 35.5861
3529.22 48.924 57.5808 40.1105 39.4924
3532.14 76.3531 59.5929 55.3661 42.9083
3535.05 53.5015 65.048 33.2481 49.1688
3537.96 65.2894 64.3549 58.8921 51.4872
3540.88 74.2738 67.5029 62.3213 59.8446
3543.79 62.9455 73.6867 58.3204 63.433
3546.7 83.8409 80.4021 69.6574 69.9162
3549.62 94.4201 82.6769 81.7709 69.4194
3552.53 69.7697 78.959 56.8299 69.2485
3555.45 72.6873 73.8053 69.1448 69.013
3558.36 78.9591 81.4687 81.0644 68.9304
3561.27 92.7599 82.6705 56.5821 65.6053
3564.19 76.2924 75.0434 59.1693 56.9982
3567.1 56.0779 65.8665 55.2433 55.5343
3570.02 65.2293 61.3845 52.1903 56.2052
3572.93 62.8464 65.0186 61.1819 58.1712
3575.84 66.98 68.7912 61.1413 60.4358
3578.76 76.5473 68.5312 58.9842 52.5231
3581.67 62.0664 66.137 37.4438 50.8358
3584.58 59.7971 63.9403 56.0795 48.6062
3587.5 69.9573 65.1587 52.2952 59.6284
3590.41 65.7215 78.1345 70.5104 69.7391
3593.33 98.7246 85.3244 86.4118 83.1126
3596.24 91.5272 97.7047 92.4155 87.2631
3599.15 102.862 93.7556 82.962 80.1065
3602.07 86.8771 87.6277 64.9421 73.9334
3604.98 73.1435 77.5893 73.8961 64.4676
3607.9 72.7474 79.8659 54.5648 66.7283
3610.81 93.7066 87.6716 71.7241 72.1569
3613.72 96.5607 92.2689 90.1819 80.1811
3616.64 86.5395 92.7097 78.6373 80.504
3619.55 95.029 99.273 72.6929 87.834
3622.46 116.251 105.921 112.172 96.3515
3625.38 106.485 122.443 104.19 117.974
3628.29 144.595 120.407 137.559 114.331
3631.2 110.142 123.281 101.243 113.131
3634.12 115.108 120.632 100.59 113.949
3637.03 136.647 119.526 140.014 111.012
3639.95 106.822 113.451 92.4327 104.835
3642.86 96.8829 106.351 82.057 90.9808
3645.77 115.349 111.248 98.4526 94.3981
3648.69 121.511 120.211 102.685 102.823
3651.6 123.772 120.062 107.33 105.453
3654.51 114.903 121.017 106.345 110.857
3657.43 124.375 124.682 118.895 117.497
3660.34 134.768 127.632 127.251 121.95
3663.25 123.753 128.435 119.703 119.453
3666.17 126.783 129.249 111.406 112.679
3669.08 137.211 122.634 106.928 108.593
3672 103.908 125.239 107.444 116.035
3674.91 134.599 127.122 133.733 122.351
3677.82 142.86 130.629 125.876 125.141
3680.74 114.427 124.827 115.816 111.542
3683.65 117.194 125.529 92.9357 107.234
3686.56 144.966 128.399 112.949 108.774
3689.48 123.038 135.227 120.437 118.817
3692.39 137.677 133.158 123.064 126.149
3695.3 138.758 143.453 134.944 125.961
3698.22 153.923 138.382 119.874 121.976
3701.13 122.466 140.926 111.11 116.211
3704.04 146.389 141.557 117.649 123.951
3706.96 155.815 158.326 143.093 138.131
3709.87 172.775 164.572 153.652 151.306
3712.78 165.126 162.263 157.174 140.757
3715.7 148.888 157.863 111.446 134.492
3718.61 159.574 158.296 134.856 127.866
3721.52 166.424 152.497 137.297 136.718
3724.44 131.492 142.732 138.003 130.796
3727.35 130.279 147.141 117.088 135.396
3730.26 179.652 149.29 151.098 137.344
3733.18 137.94 165.549 143.847 147.051
3736.09 179.054 148.2 146.208 137.65
3739 127.606 156.123 122.894 140.929
3741.92 161.711 151.564 153.685 139.953
3744.83 165.375 162.085 143.279 146.847
3747.74 159.17 167.551 143.577 153.581
3750.66 178.107 170.254 173.887 160.76
3753.57 173.485 169.404 164.816 162.916
3756.48 156.619 173.932 150.044 159.311
3759.4 191.693 181.05 163.073 163.06
3762.31 194.836 180.519 176.062 160.456
3765.22 155.027 172.543 142.233 160.683
3768.14 167.766 180.455 163.753 167.501
3771.05 218.571 193.578 196.518 180.601
3773.96 194.397 207.297 181.532 193.162
3776.88 208.924 204.445 201.436 187.993
3779.79 210.014 212.382 181.011 198.788
3782.7 218.209 226.202 213.916 210.891
3785.61 250.383 219.455 237.745 211.975
3788.53 189.773 216.295 184.264 202.941
3791.44 208.729 198.187 186.815 189.588
3794.35 196.061 208.328 197.685 192.887
3797.27 220.195 213.235 194.161 205.428
3800.18 223.45 234.653 224.438 219.288
3803.09 260.316 235.463 239.265 220.503
3806.01 222.622 238.494 197.806 217.952
3808.92 232.544 242.279 216.784 221.845
3811.83 271.669 256.195 250.945 235.945
3814.74 264.372 261.267 240.105 245.222
3817.66 247.758 250.464 244.615 229.488
3820.57 239.262 236.71 203.743 216.307
3823.48 223.111 228.33 200.564 202.538
3826.4 222.618 214.772 203.306 195.86
3829.31 198.587 203.773 183.709 186.95
3832.22 190.114 198.607 173.835 184.751
3835.13 207.12 207.449 196.71 195.776
3838.05 225.113 222.238 216.784 211.241
3840.96 234.479 242.143 220.229 227.466
3843.87 266.836 259.458 245.386 238.998
3846.78 277.057 266.174 251.379 250.126
3849.7 254.629 261.493 253.612 250.222
3852.61 252.793 245.193 245.674 229.607
3855.52 228.157 250.158 189.534 227.008
3858.44 269.523 246.973 245.816 218.181
3861.35 243.24 260.578 219.193 238.791
3864.26 268.97 253.943 251.366 234.787
3867.17 249.621 259.853 233.803 244.511
3870.09 260.967 255.156 248.363 235.491
3873 254.881 253.276 224.308 234.023
3875.91 243.98 255.811 229.399 231.5
3878.82 268.574 253.609 240.792 231.726
3881.74 248.274 244.42 224.988 220.548
3884.65 216.413 251.886 195.864 225.632
3887.56 290.971 256.896 256.043 231.426
3890.47 263.303 277.586 242.37 250.886
3893.39 278.484 269.682 254.243 245.244
3896.3 267.259 276.992 239.119 255.275
3899.21 285.232 280.893 272.463 256.36
3902.12 290.187 298.491 257.497 281.994
3905.03 320.053 299.962 316.021 289.693
3907.95 289.645 311.771 295.561 305.195
3910.86 325.614 312.689 304.004 298.094
3913.77 322.806 310.409 294.717 288.694
3916.68 282.806 293.897 267.36 277.257
3919.6 276.08 276.54 269.694 263.208
3922.51 270.735 274.892 252.569 261.252
3925.42 277.86 267.536 261.494 248.223
3928.33 254.012 255.712 230.608 235.6
3931.24 235.266 239.599 214.7 212.371
3934.16 229.519 244.8 191.806 219.623
3937.07 269.615 250.878 252.363 220.987
3939.98 253.5 278.228 218.791 257.749
3942.89 311.568 283.709 302.092 259.257
3945.8 286.06 300.525 256.887 279.105
3948.72 303.948 304.125 278.334 275.995
3951.63 322.367 315.047 292.764 296.637
3954.54 318.828 307.96 318.814 288.141
3957.45 282.686 294.779 252.845 274.894
3960.36 282.825 265.451 253.023 238.889
3963.28 230.842 254.281 210.8 224.896
3966.19 249.175 247.352 210.864 224.768
3969.1 262.038 268.842 252.64 241.662
3972.01 295.312 299.745 261.481 278.515
3974.92 341.885 326.406 321.425 295.017
3977.84 342.021 341.319 302.147 310.473
3980.75 340.051 344.801 307.848 320.235
3983.66 352.331 369.226 350.711 355.44
3986.57 415.294 386.053 407.761 372.787
3989.48 390.533 414.586 359.888 393.914
3992.39 437.932 437.454 414.092 413.014
3995.31 483.899 451.091 465.063 417.638
3998.22 431.442 442.267 373.759 401.009
4001.13 411.46 419.211 364.207 376.932
4004.04 414.73 427.624 392.83 393.131
4006.95 456.68 444.139 422.355 404.013
4009.86 461.005 457.515 396.854 416.006
4012.77 454.86 458.661 428.809 422.569
4015.69 460.116 461.126 442.043 436.135
4018.6 468.401 466.055 437.552 440.81
4021.51 469.647 468.43 442.834 439.344
4024.42 467.243 472.221 437.646 440.801
4027.33 479.774 480.081 441.924 454.903
4030.24 493.227 486.421 485.139 471.979
4033.15 486.263 480.647 488.874 467.071
4036.07 462.451 494.783 427.2 470.393
4038.98 535.637 472.668 495.106 437.488
4041.89 419.918 477.18 390.158 444.262
4044.8 475.986 475.034 447.522 441.452
4047.71 529.198 490.846 486.677 470.794
4050.62 467.354 507.887 478.184 489.705
4053.53 527.108 487.506 504.254 474.204
4056.44 468.056 509.919 440.174 480.83
4059.35 534.594 483.963 498.061 463.333
4062.27 449.241 503.165 451.765 482.61
4065.18 525.66 493.039 498.004 479.873
4068.09 504.217 508.856 489.85 483.209
4071 496.692 497.686 461.774 475.775
4073.91 492.149 485.695 475.7 463.938
4076.82 468.244 480.792 454.339 459.846
4079.73 481.981 485.252 449.5 461.41
4082.64 505.531 484.605 480.39 464.449
4085.55 466.302 516.45 463.456 486.365
4088.46 577.516 542.724 515.25 514.735
4091.37 584.355 568.483 565.499 533.534
4094.29 543.577 564.117 519.852 532.764
4097.2 564.42 553.65 512.941 520.197
4100.11 552.953 555.051 527.798 522.585
4103.02 547.779 532.912 527.017 508
4105.93 498.003 538.788 469.185 509.389
4108.84 570.581 542.687 531.965 511.035
4111.75 559.477 548.586 531.955 509.148
4114.66 515.701 535.767 463.523 494.182
4117.57 532.122 551.087 487.069 514.265
4120.48 605.437 579.592 592.202 554.222
4123.39 601.216 604.276 583.397 583.121
4126.3 606.173 584.622 573.764 550.608
4129.21 546.476 582.931 494.664 551.833
4132.12 596.143 587.005 587.07 563.161
4135.03 618.397 613.027 607.75 598.055
4137.94 624.54 608.181 599.345 587.2
4140.85 581.607 614.05 554.505 584.363
4143.76 636.002 615.75 599.24 586.915
4146.67 629.641 617.84 606.999 580.038
4149.58 587.876 622.74 533.877 589.871
4152.49 650.704 620.285 628.739 581.903
4155.4 622.274 640.818 583.093 598.055
4158.31 649.477 640.337 582.334 592.882
4161.22 649.262 638.637 613.219 601.16
4164.13 617.172 616.238 607.928 593.192
4167.04 582.28 611.452 558.43 593.617
4169.95 634.906 623.921 614.493 591.75
4172.86 654.577 657.104 602.328 604.82
4175.77 681.828 648.954 597.639 586.232
4178.68 610.457 636.214 558.73 577.38
4181.59 616.357 605.56 575.771 564.203
4184.5 589.866 604.327 558.107 568.807
4187.41 606.757 633.649 572.544 592.658
4190.32 704.325 651.494 647.323 604.926
4193.23 643.399 659.313 594.912 603.729
4196.14 630.215 636.013 568.952 595.688
4199.05 634.425 633.863 623.199 600.484
4201.96 636.95 633.028 609.3 600.484
4204.87 627.709 652.988 568.953 613.978
4207.78 694.304 643.008 663.682 597.3
4210.69 607.011 664.974 559.267 626.042
4213.6 693.606 636.683 655.177 603.653
4216.51 609.431 665.413 596.514 647.562
4219.42 693.203 645.842 690.996 618.851
4222.33 634.891 643.928 569.042 615.159
4225.24 603.689 634.255 585.439 590.054
4228.15 664.185 641.015 615.683 602.806
4231.05 655.172 681.967 607.296 638.71
4233.96 726.545 674.577 693.152 634.095
4236.87 642.013 692.508 601.836 664.065
4239.78 708.964 653.676 697.207 620.426
4242.69 610.051 641.159 562.234 613.864
4245.6 604.464 650.423 582.152 608.552
4248.51 736.755 695.677 681.27 651.805
4251.42 745.812 711 691.992 669.11
4254.33 650.432 697.226 634.069 659.471
4257.24 695.432 683.219 652.353 653.11
4260.15 703.792 699.981 672.908 668.911
4263.05 700.719 696.13 681.472 665.103
4265.96 683.88 686.298 640.929 650.735
4268.87 674.295 680.053 629.805 640.565
4271.78 681.983 674.634 650.961 633.219
4274.69 667.624 694.777 618.893 656.678
4277.6 734.724 703.051 700.18 669.624
4280.51 706.806 705.063 689.798 676.666
4283.42 673.659 676.109 640.02 651.233
4286.32 647.861 665.06 623.881 628.664
4289.23 673.659 665.495 622.091 622.584
4292.14 674.965 661.176 621.78 611.621
4295.05 634.904 635.55 590.992 592.848
4297.96 596.78 617.034 565.773 588.141
4300.87 619.418 585.371 607.659 562.727
4303.77 539.916 586.559 514.749 565.986
4306.68 600.341 584.726 575.551 554.454
4309.59 613.92 632.621 573.062 607.218
4312.5 683.603 669.311 673.041 639.27
4315.41 710.411 702.844 671.706 672.659
4318.32 714.518 699.254 673.229 658.019
4321.22 672.833 701.875 629.122 660.316
4324.13 718.274 719.089 678.596 685.979
4327.04 766.16 745.026 750.218 708.092
4329.95 750.645 745.437 695.462 713.1
4332.86 719.505 725.186 693.619 695.165
4335.76 705.408 748.572 696.413 723.818
4338.67 820.804 774.188 781.42 757.506
4341.58 796.353 802.391 794.684 777.933
4344.49 790.016 798.607 757.694 780.492
4347.39 809.452 800.397 789.099 779.674
4350.3 801.722 806.628 792.229 793.28
4353.21 808.71 805.564 798.512 783.928
4356.12 806.259 788.839 761.042 759.287
4359.03 751.547 792.078 718.306 757.283
4361.93 818.427 782.14 792.501 756.623
4364.84 776.445 807.715 759.061 794.653
4367.75 828.272 804.606 832.397 797.086
4370.66 809.101 810.441 799.8 801.336
4373.56 793.948 790.252 771.812 768.09
4376.47 767.705 784.183 732.659 765.776
4379.38 790.896 764.883 792.857 726.892
4382.28 736.047 783.169 655.16 749.816
4385.19 822.564 798.5 801.431 757.476
4388.1 836.89 816.765 815.837 793.164
4391.01 790.842 824.912 762.223 806.15
4393.91 847.004 836.314 840.39 820.204
4396.82 871.097 851.405 857.998 824.681
4399.73 836.115 832.242 775.655 804.552
4402.63 789.516 822.613 780.004 801.215
4405.54 842.207 852.603 847.986 863.478
4408.45 926.084 890.525 962.444 897.045
4411.36 903.285 900.062 880.705 907.336
4414.26 870.816 893.203 878.857 873.814
4417.17 905.509 891.693 861.879 884.719
4420.08 898.754 887.418 913.423 865.438
4422.98 857.99 895.657 821.011 882.398
4425.89 930.226 909.519 912.761 891.569
4428.8 940.341 902.161 940.935 899.761
4431.7 835.915 910.337 845.585 904.749
4434.61 954.753 898.54 927.725 897.369
4437.51 904.952 924.036 918.797 922.4
4440.42 912.403 927.006 920.676 931.306
4443.33 963.662 945.337 954.443 942.716
4446.23 959.947 975.078 953.029 961.91
4449.14 1001.63 972.369 978.257 959.171
4452.05 955.535 975.445 946.226 964.038
4454.95 969.174 949.432 967.63 943.361
4457.86 923.589 944.789 916.227 941.164
4460.76 941.605 931.272 939.635 919.799
4463.67 928.622 945.556 903.534 930.987
4466.58 966.44 947.637 949.791 926.168
4469.48 947.849 956.986 925.179 933.406
4472.39 956.668 958.956 925.247 932.717
4475.29 972.352 977.95 947.725 946.653
4478.2 1004.83 977.712 966.986 936.763
4481.11 955.956 964.791 895.577 926.886
4484.01 933.589 975.153 918.094 935.67
4486.92 1035.91 997.511 993.338 960.369
4489.82 1023.03 1014.71 969.675 960.62
4492.73 985.175 1003.81 918.846 934.023
4495.63 1003.21 1012.26 913.547 951.142
4498.54 1048.4 1050.52 1021.03 997.571
4501.45 1099.95 1078.28 1058.13 1043.88
4504.35 1086.49 1078.29 1052.49 1041.78
4507.26 1048.44 1048.63 1014.7 1001.41
4510.16 1010.96 1038.05 937.047 981.491
4513.07 1054.76 1043.51 992.724 970.537
4515.97 1064.8 1066.78 981.84 978.49
4518.88 1080.77 1036.76 960.906 921.498
4521.78 964.701 1028.31 821.747 915.625
4524.69 1039.46 998.254 964.22 888.567
4527.59 990.598 1016.21 879.733 930.692
4530.5 1018.57 1001.41 948.124 916.685
4533.4 995.059 1008.82 922.199 948.157
4536.31 1012.83 1016.57 974.147 964.487
4539.21 1041.81 1014.33 997.116 950.538
4542.12 988.354 1028.06 880.352 953.732
4545.02 1054.03 1030.66 983.728 950.496
4547.93 1049.59 1058 987.408 1007.84
4550.83 1070.38 1073.06 1052.38 1035.68
4553.74 1099.22 1094.66 1067.26 1069.76
4556.64 1114.39 1095.98 1089.64 1063.89
4559.55 1074.34 1081.63 1034.77 1054.09
4562.45 1056.16 1085.97 1037.88 1043.99
4565.35 1127.42 1097.8 1059.32 1049.61
4568.26 1109.82 1135.07 1051.62 1097.88
4571.16 1167.98 1121.79 1182.68 1105.45
4574.07 1087.58 1108.77 1082.03 1103.61
4576.97 1070.77 1107 1046.12 1084.09
4579.88 1162.65 1112.54 1124.13 1082.19
4582.78 1104.19 1129.88 1076.33 1099.95
4585.68 1122.79 1109.75 1099.37 1071.66
4588.59 1102.28 1092.84 1039.27 1061.33
4591.49 1053.45 1105.94 1045.36 1083.97
4594.4 1162.1 1088.09 1167.28 1067.7
4597.3 1048.73 1108.11 990.46 1082.55
4600.2 1113.51 1123.4 1089.91 1107.69
4603.11 1207.95 1179.47 1242.7 1179.9
4606.01 1216.95 1203.43 1207.09 1197.16
4608.91 1185.4 1209.66 1141.69 1195.56
4611.82 1226.63 1213.07 1237.91 1206.5
4614.72 1227.18 1184.95 1239.9 1196.9
4617.62 1101.05 1165.62 1112.88 1160.95
4620.53 1168.62 1147.37 1130.05 1129.75
4623.43 1172.46 1207.51 1146.32 1177.44
4626.33 1281.45 1208.47 1255.94 1174.43
4629.24 1171.49 1202.82 1121.03 1167.24
4632.14 1155.51 1146.72 1124.74 1119.93
4635.04 1113.15 1137.29 1114.04 1123.36
4637.95 1143.2 1123.89 1131.3 1122.75
4640.85 1115.3 1147.62 1122.9 1137.47
4643.75 1184.35 1171.76 1158.22 1164.2
4646.66 1215.63 1183.69 1211.48 1174.07
4649.56 1151.1 1184.48 1152.51 1188.69
4652.46 1186.71 1177.05 1202.09 1192.18
4655.37 1193.33 1208.91 1221.95 1221.05
4658.27 1246.69 1232.26 1239.11 1232.69
4661.17 1256.76 1222.04 1237.01 1226.05
4664.07 1162.65 1200.43 1202.04 1211
4666.98 1181.89 1187.28 1193.96 1214.41
4669.88 1217.29 1183.95 1247.23 1185.05
4672.78 1152.66 1191.28 1113.94 1204.24
4675.68 1203.87 1168.74 1251.54 1178.17
4678.59 1149.69 1202.44 1169.01 1231.19
4681.49 1253.75 1225.6 1273.03 1243.45
4684.39 1273.36 1256.8 1288.32 1270.53
4687.29 1243.3 1250.79 1250.25 1266.79
4690.2 1235.71 1236.68 1261.79 1242.31
4693.1 1231.03 1209.87 1214.88 1220.22
4696 1162.87 1126.03 1184 1190.33
4698.9 984.186 1050.12 1172.11 1194.87
4701.8 1003.3 1013.84 1228.51 1198.35
4704.7 1054.05 1058.87 1194.42 1240.94
4707.61 1119.26 1095.39 1299.9 1259.84
4710.51 1112.86 1108.5 1285.19 1264.8
4713.41 1093.37 1095.56 1209.29 1246.46
4716.31 1080.46 1079.87 1244.89 1269.9
4719.21 1065.77 1072.22 1355.52 1262.4
4722.12 1070.43 1063.12 1186.8 1287.66
4725.02 1053.16 1066.36 1320.64 1262.88
4727.92 1075.48 1035.95 1281.18 1280.62
4730.82 979.204 1051.9 1240.04 1264.06
4733.72 1101.02 1057.67 1270.95 1270.9
4736.62 1092.77 1096.07 1301.71 1288.58
4739.52 1094.41 1076.74 1293.07 1297.83
4742.42 1043.05 1094.39 1298.7 1293.75
4745.33 1145.7 1120.25 1289.49 1320.94
4748.23 1172 1148.76 1374.64 1332.68
4751.13 1128.58 1133.71 1333.9 1339.6
4754.03 1100.56 1125.2 1310.25 1334.37
4756.93 1146.46 1116.09 1358.97 1329.53
4759.83 1101.26 1118.28 1319.36 1337.43
4762.73 1107.12 1120.74 1333.97 1337.63
4765.63 1153.84 1120.25 1359.56 1303.47
4768.53 1099.8 1131.28 1216.89 1307.32
4771.43 1140.2 1139.33 1345.51 1302.65
4774.33 1177.99 1171.7 1345.54 1347.51
4777.23 1196.9 1189.07 1351.48 1362.79
4780.13 1192.32 1176.32 1391.33 1360.98
4783.03 1139.73 1173.21 1340.13 1353.73
4785.93 1187.57 1146.88 1329.74 1324.65
4788.83 1113.34 1159.48 1304.08 1331.7
4791.73 1177.53 1148.01 1361.28 1322.58
4794.63 1153.16 1163.92 1302.36 1336.7
4797.53 1161.07 1141.86 1346.47 1295.04
4800.43 1111.36 1138.5 1236.28 1300.41
4803.33 1143.06 1113.63 1318.47 1305.67
4806.23 1086.47 1131.66 1362.27 1328.39
4809.13 1165.45 1129.02 1304.41 1334.44
4812.03 1135.12 1151.74 1336.63 1332.27
4814.93 1154.64 1156.04 1355.78 1346.46
4817.83 1178.36 1158.63 1346.98 1346.82
4820.73 1142.89 1184.28 1337.71 1375.24
4823.63 1231.59 1194.44 1441.03 1382.19
4826.53 1208.83 1161.36 1367.82 1378.01
4829.43 1043.65 1144.14 1325.17 1347.3
4832.33 1179.95 1123.5 1348.92 1336.9
4835.23 1146.91 1139.5 1336.62 1360.84
4838.13 1091.65 1138.73 1396.99 1374.32
4841.03 1177.65 1144.53 1389.36 1386.4
4843.93 1164.31 1149.3 1372.86 1394.85
4846.83 1105.96 1129.94 1422.34 1370.97
4849.72 1119.56 1139.72 1317.71 1381.84
4852.62 1193.64 1124.45 1405.48 1313.47
4855.52 1060.14 1115.05 1217.23 1292.82
4858.42 1091.36 1052.79 1255.75 1214.81
4861.32 1006.88 1067.85 1171.47 1223.65
4864.22 1105.31 1090.87 1243.72 1241.45
4867.12 1160.43 1116.62 1309.14 1278.03
4870.02 1084.13 1095.12 1281.22 1268.45
4872.91 1040.8 1093.77 1215 1284.67
4875.81 1156.38 1124.74 1357.8 1316.92
4878.71 1177.05 1166.58 1377.96 1368.08
4881.61 1166.3 1161.13 1368.5 1357.64
4884.51 1140.05 1154.31 1326.45 1353.32
4887.4 1156.57 1171.08 1365 1359.03
4890.3 1216.62 1207.26 1385.63 1402.22
4893.2 1248.58 1177.5 1456.02 1397.74
4896.1 1067.29 1149.22 1351.57 1400.61
4899 1131.78 1101.9 1394.24 1344.99
4901.89 1106.61 1150.02 1289.17 1366.88
4904.79 1211.65 1169.7 1417.23 1348.96
4907.69 1190.84 1203.45 1340.49 1389.73
4910.59 1207.86 1204.79 1411.47 1398.75
4913.48 1215.67 1211.67 1444.3 1426.08
4916.38 1211.48 1210.51 1422.47 1425.23
4919.28 1204.38 1212.31 1408.91 1425.62
4922.18 1221.07 1198.47 1445.47 1403.45
4925.07 1169.96 1172.7 1355.97 1397.95
4927.97 1127.06 1132.6 1392.4 1382.23
4930.87 1100.78 1141.33 1398.33 1399.16
4933.77 1196.16 1182.22 1406.74 1424.69
4936.66 1249.71 1210.95 1469 1424.35
4939.56 1186.98 1234.24 1397.31 1452.42
4942.46 1266.03 1210.07 1490.96 1397.88
4945.35 1177.19 1241.43 1305.38 1442.19
4948.25 1281.08 1234.09 1530.22 1416.04
4951.15 1244 1223.97 1412.5 1412.89
4954.04 1146.83 1213.96 1295.94 1390.93
4956.94 1251.03 1245.36 1464.36 1453.16
4959.84 1338.21 1295.36 1599.2 1530.66
4962.73 1296.83 1302.68 1528.42 1547.8
4965.63 1273.01 1271.6 1515.78 1488.43
4968.52 1244.96 1225.4 1421.1 1450.09
4971.42 1158.23 1217.96 1413.38 1407.86
4974.32 1250.7 1219.8 1389.09 1402.81
4977.21 1250.47 1237.63 1405.95 1411.24
4980.11 1211.73 1254.21 1438.68 1460.68
4983 1300.44 1242.82 1537.42 1473.31
4985.9 1216.28 1240.1 1443.82 1482.23
4988.8 1203.56 1221.95 1465.46 1458.8
4991.69 1246.02 1221.38 1467.12 1451.97
4994.59 1214.55 1249.33 1423.34 1471.33
4997.48 1287.43 1227.97 1523.51 1483.77
5000.38 1181.94 1238.92 1504.45 1499.96
5003.27 1247.38 1208.9 1471.91 1471.5
5006.17 1197.38 1192.36 1438.13 1461.13
5009.06 1132.31 1188.26 1473.35 1462.83
5011.96 1235.08 1214.09 1477.01 1485.67
5014.86 1274.89 1251.82 1506.66 1486.03
5017.75 1245.5 1227.77 1474.42 1474.96
5020.65 1162.91 1211.97 1443.82 1465.25
5023.54 1227.49 1234.35 1477.51 1491.18
5026.43 1312.65 1242.14 1552.21 1512.88
5029.33 1186.29 1232.4 1508.91 1493.03
5032.22 1198.25 1191.18 1417.97 1464.57
5035.12 1189 1226.7 1466.82 1477.98
5038.01 1292.84 1260.1 1549.16 1518.67
5040.91 1298.45 1279.5 1540.03 1517.84
5043.8 1247.22 1285.95 1464.35 1512.95
5046.7 1312.19 1276.72 1534.47 1503.27
5049.59 1270.76 1302.53 1511 1536.36
5052.49 1324.65 1295.66 1563.61 1535.4
5055.38 1291.56 1321.63 1531.6 1546.86
5058.27 1348.68 1289.75 1545.36 1534.03
5061.17 1229.02 1319.11 1525.13 1571.9
5064.06 1379.64 1316.97 1645.21 1591.69
5066.96 1342.24 1349.09 1604.73 1610.98
5069.85 1325.39 1320.78 1582.99 1559.82
5072.74 1294.71 1289.58 1491.74 1559.72
5075.64 1248.63 1299.14 1604.42 1581.9
5078.53 1354.07 1311.2 1649.54 1592.44
5081.42 1330.89 1352.91 1523.36 1595.31
5084.32 1373.76 1329.74 1613.04 1545.63
5087.21 1284.56 1317.52 1500.48 1532.16
5090.1 1294.25 1310.43 1482.96 1509.1
5093 1352.48 1300.22 1543.87 1538.24
5095.89 1253.93 1300.12 1587.89 1550.57
5098.78 1293.94 1289.22 1519.96 1544.82
5101.68 1319.8 1286.76 1526.61 1546.76
5104.57 1246.55 1287.55 1593.72 1534.26
5107.46 1296.3 1285.71 1482.45 1574.15
5110.35 1314.27 1293.77 1646.28 1584.44
5113.25 1270.75 1305.37 1624.58 1618.29
5116.14 1331.1 1303.58 1584 1600.78
5119.03 1308.89 1332.57 1593.77 1600.73
5121.92 1357.73 1324.86 1624.42 1585.52
5124.82 1307.95 1337.4 1538.37 1573.33
5127.71 1346.51 1310.1 1557.19 1551.04
5130.6 1275.84 1317.67 1557.56 1562.15
5133.49 1330.65 1301.44 1571.7 1565.25
5136.39 1297.82 1271.3 1566.5 1524.39
5139.28 1185.43 1214.21 1434.96 1497.26
5142.17 1159.39 1219.95 1490.31 1497.87
5145.06 1315.01 1271.13 1568.34 1552.04
5147.95 1338.98 1341.77 1597.47 1610.76
5150.84 1371.3 1360.22 1666.46 1636.7
5153.74 1370.39 1400.46 1646.18 1681.21
5156.63 1459.7 1390.48 1730.98 1638.09
5159.52 1341.34 1345.07 1537.11 1573.8
5162.41 1234.16 1265.28 1453.32 1469.35
5165.3 1220.36 1234.91 1417.63 1448.41
5168.19 1250.23 1248.87 1474.27 1448.68
5171.08 1276.02 1268.41 1454.13 1473.37
5173.97 1279 1249.39 1491.71 1431.97
5176.87 1193.15 1246.45 1350.07 1445.79
5179.76 1267.2 1237.13 1495.6 1418.78
5182.65 1251.05 1231.68 1410.67 1445.85
5185.54 1176.79 1229.75 1431.28 1421.93
5188.43 1261.41 1215.07 1423.85 1460.38
5191.32 1207.01 1278.09 1526.02 1525.05
5194.21 1365.87 1296.03 1625.26 1569.54
5197.1 1315.21 1301.74 1557.32 1562.81
5199.99 1224.14 1278.99 1505.85 1506.93
5202.88 1297.63 1276.52 1457.62 1483.21
5205.77 1307.79 1304.74 1486.15 1496.72
5208.66 1308.8 1303.01 1546.38 1566.2
5211.55 1292.45 1300.22 1666.07 1586.33
5214.44 1299.41 1329.28 1546.55 1652.11
5217.33 1395.99 1356.97 1743.71 1624.51
5220.22 1375.51 1372.06 1583.27 1647.36
5223.11 1344.68 1365.4 1615.11 1599.15
5226 1376.01 1371.42 1599.05 1620.73
5228.89 1393.58 1384.38 1648.04 1636.93
5231.78 1383.56 1396.73 1663.71 1661.21
5234.67 1413.04 1398.75 1671.88 1637.54
5237.56 1399.66 1417.06 1577.04 1627.82
5240.45 1438.49 1400.74 1634.53 1608.74
5243.34 1364.05 1409.97 1614.65 1621.91
5246.22 1427.35 1421.49 1616.54 1646.92
5249.11 1473.07 1422.56 1709.58 1678.85
5252 1367.25 1433.28 1710.44 1687.97
5254.89 1459.52 1413.97 1643.91 1645.08
5257.78 1415.15 1411.51 1580.91 1584.23
5260.67 1359.85 1397.07 1527.89 1559.37
5263.56 1416.21 1376.45 1569.32 1538.95
5266.45 1353.28 1377.43 1519.65 1551.86
5269.33 1362.81 1359.6 1566.6 1537.27
5272.22 1362.73 1398.03 1525.55 1583.12
5275.11 1468.56 1404.38 1657.21 1598.89
5278 1381.84 1434.01 1613.92 1660.63
5280.89 1451.64 1359.02 1710.77 1635.28
5283.77 1243.57 1395.01 1581.16 1680.78
5286.66 1489.83 1384.31 1750.41 1663.98
5289.55 1419.54 1434.82 1660.38 1661.95
5292.44 1395.1 1416.84 1575.06 1609
5295.33 1435.87 1408.84 1591.55 1596.31
5298.21 1395.53 1424.17 1622.32 1640.4
5301.1 1441.11 1387.55 1707.32 1647.98
5303.99 1326.01 1394.28 1614.29 1695.35
5306.88 1415.71 1384.5 1764.45 1661.43
5309.76 1411.78 1414.31 1605.56 1655.84
5312.65 1415.43 1445.14 1597.5 1641.12
5315.54 1508.22 1465.8 1720.31 1666.38
5318.42 1473.74 1480.12 1681.34 1682.78
5321.31 1458.41 1454.25 1646.69 1660.58
5324.2 1430.61 1432.03 1653.71 1655.28
5327.08 1407.07 1391.27 1665.43 1658.29
5329.97 1336.15 1407.93 1655.72 1681.62
5332.86 1480.57 1418.33 1723.72 1680.6
5335.74 1438.27 1450.18 1662.37 1677.64
5338.63 1431.72 1440.66 1646.84 1655.07
5341.52 1452 1456.79 1656.02 1685.56
5344.4 1486.65 1474.06 1753.81 1707.1
5347.29 1483.51 1495.73 1711.46 1717.54
5350.17 1517.01 1507.78 1687.36 1702.54
5353.06 1522.8 1529.76 1708.79 1734.09
5355.95 1549.46 1495.21 1806.12 1758.36
5358.83 1413.36 1473.64 1760.19 1737.78
5361.72 1458.09 1440.03 1647.04 1706.16
5364.6 1448.65 1463.56 1711.25 1686.16
5367.49 1483.95 1477.37 1700.18 1703.3
5370.37 1499.5 1497.03 1698.45 1707.61
5373.26 1507.62 1480.68 1724.19 1751.58
5376.15 1434.93 1507.66 1832.08 1798.39
5379.03 1580.42 1510.05 1838.91 1795.25
5381.92 1514.81 1544.47 1714.77 1781.71
5384.8 1538.18 1523.98 1791.45 1754.68
5387.69 1518.95 1524.67 1757.84 1757.06
5390.57 1516.87 1514.76 1721.89 1746.76
5393.45 1508.47 1518.85 1760.56 1730.74
5396.34 1531.22 1505.55 1709.77 1733.29
5399.22 1476.97 1492.26 1729.53 1701.31
5402.11 1468.61 1474.87 1664.64 1714.17
5404.99 1479.04 1487.03 1748.34 1730.45
5407.88 1513.43 1468.96 1778.35 1751.47
5410.76 1414.4 1497.29 1727.7 1782.35
5413.65 1564.04 1501.6 1840.99 1781.32
5416.53 1526.35 1526.18 1775.26 1782.23
5419.41 1488.14 1515.16 1730.43 1770.31
5422.3 1531 1522.72 1805.23 1788.09
5425.18 1549.04 1521.57 1828.61 1789.34
5428.06 1484.68 1445.29 1734.17 1741.58
5430.95 1302.17 1443.8 1661.96 1730.74
5433.83 1544.54 1449.5 1796.09 1737.44
5436.71 1501.78 1536.09 1754.25 1775.74
5439.6 1561.95 1495.44 1776.88 1730.01
5442.48 1422.59 1485.81 1658.91 1755.2
5445.36 1472.88 1439.43 1829.8 1750.78
5448.25 1422.84 1468.69 1763.62 1785.61
5451.13 1510.35 1450.06 1763.41 1758.94
5454.01 1416.98 1483.52 1749.79 1756.08
5456.9 1523.24 1468.78 1755.03 1748.23
5459.78 1466.12 1515.46 1739.87 1777.44
5462.66 1557.01 1513.36 1837.42 1790.41
5465.54 1516.95 1543.48 1793.93 1822.95
5468.43 1556.47 1515.34 1837.49 1821.87
5471.31 1472.6 1519 1834.18 1836.07
5474.19 1527.92 1498.71 1836.53 1804.71
5477.07 1495.63 1499.31 1743.43 1763.33
5479.95 1474.39 1476.86 1710.02 1723.98
5482.84 1460.57 1493.48 1718.49 1750.99
5485.72 1545.49 1517.63 1824.46 1781.5
5488.6 1546.84 1550.71 1801.56 1811.11
5491.48 1559.81 1549.29 1807.33 1794.02
5494.36 1541.22 1580.98 1773.19 1840.6
5497.24 1641.92 1599.05 1941.3 1851.96
5500.12 1614 1607.56 1841.4 1866.67
5503.01 1566.74 1569.5 1817.31 1803.26
5505.89 1527.75 1554.64 1751.08 1811.2
5508.77 1569.41 1544.65 1865.21 1812.19
5511.65 1536.78 1514.52 1820.26 1818.92
5514.53 1437.38 1521.39 1771.29 1835.21
5517.41 1590.03 1535.73 1914.08 1847.37
5520.29 1579.8 1551.99 1856.74 1833.11
5523.17 1486.16 1522.68 1728.5 1783.1
5526.05 1502.09 1519.72 1764.06 1776.95
5528.93 1570.9 1538.33 1838.29 1799.68
5531.81 1541.99 1536.91 1796.7 1800.24
5534.69 1497.83 1550.16 1765.75 1811.13
5537.57 1610.65 1534.87 1870.94 1853.27
5540.45 1496.13 1554.55 1923.12 1878.55
5543.33 1556.87 1482.69 1841.59 1855.21
5546.21 1395.08 1498.57 1800.93 1822.1
5549.09 1543.76 1520.97 1823.79 1835.16
5551.97 1624.08 1592.03 1880.76 1864.35
5554.85 1608.25 1596.8 1888.5 1863.77
5557.73 1558.06 1549.44 1822.04 1880.25
5560.61 1482 1538.52 1930.2 1853.87
5563.49 1575.51 1507.51 1809.38 1868.95
5566.37 1465.03 1540.31 1867.28 1838.47
5569.25 1580.39 1566 1838.76 1868.7
5572.13 1652.59 1452.87 1900.06 1836.58
5575.01 1125.63 1469.75 1770.92 1848.11
5577.88 1631.01 1440.12 1873.36 1819.86
5580.76 1563.7 1470.49 1815.29 1830.29
5583.64 1216.76 1446.23 1802.24 1819.11
5586.52 1558.22 1430.95 1839.81 1809.71
5589.4 1517.87 1574.71 1787.09 1856.1
5592.28 1648.04 1589.83 1941.4 1857.33
5595.15 1603.6 1604.4 1843.51 1861.39
5598.03 1561.56 1598.63 1799.27 1849.6
5600.91 1630.72 1634.58 1906.01 1900.57
5603.79 1711.46 1658.96 1996.44 1932.67
5606.67 1634.71 1641.11 1895.55 1931.65
5609.54 1577.17 1594.79 1902.97 1896.85
5612.42 1572.49 1561.76 1892.04 1861.5
5615.3 1535.61 1547.33 1789.51 1824.1
5618.18 1533.91 1534.64 1790.76 1836.19
5621.05 1534.42 1546.32 1928.3 1855.11
5623.93 1570.63 1546.77 1846.28 1867.33
5626.81 1535.25 1583.21 1827.41 1861.22
5629.68 1643.74 1611.95 1909.98 1888.63
5632.56 1656.87 1640.61 1928.51 1908.25
5635.44 1621.21 1583.92 1886.26 1887.28
5638.31 1473.67 1507.14 1847.08 1852.46
5641.19 1426.53 1481.7 1824.04 1862.2
5644.07 1544.89 1518.45 1915.47 1869.9
5646.94 1583.93 1572.09 1870.2 1878.57
5649.82 1587.44 1556.24 1850.03 1859.58
5652.7 1497.35 1566.07 1858.52 1876.15
5655.57 1613.43 1555.13 1919.89 1867.04
5658.45 1554.61 1594.54 1822.71 1879.2
5661.32 1615.58 1592.72 1895 1865.9
5664.2 1607.97 1557.05 1880.01 1853.09
5667.08 1447.61 1553.43 1784.27 1828.15
5669.95 1604.71 1569.57 1820.15 1841.95
5672.83 1656.39 1598.26 1921.41 1894.48
5675.7 1533.67 1584.94 1941.88 1915.4
5678.58 1564.75 1518.38 1882.92 1901.97
5681.45 1456.71 1518.74 1881.1 1854.11
5684.33 1534.75 1513.36 1798.31 1836.12
5687.2 1548.62 1582.98 1828.94 1849.89
5690.08 1665.57 1606.45 1922.43 1862.01
5692.95 1605.16 1584.85 1834.66 1865.98
5695.83 1483.82 1600.36 1840.84 1896.76
5698.7 1712.09 1566.99 2014.77 1879.57
5701.57 1505.06 1635.38 1783.12 1931.78
5704.45 1689 1575.72 1997.47 1859.08
5707.32 1533.1 1564.24 1796.66 1885.03
5710.2 1470.6 1491.4 1860.95 1832.21
5713.07 1470.5 1474.05 1839.02 1869.72
5715.95 1481.04 1531.04 1909.17 1888.41
5718.82 1641.56 1544.33 1917.03 1875.12
5721.69 1510.4 1548.52 1799.16 1861.51
5724.57 1493.61 1578.88 1868.33 1907.09
5727.44 1732.64 1614.32 2053.77 1936.37
5730.31 1616.72 1663.69 1887.02 1957.18
5733.19 1641.72 1654.5 1930.75 1947.49
5736.06 1705.07 1615.46 2024.69 1955.23
5738.93 1499.58 1594.44 1910.25 1931.89
5741.81 1578.67 1538.41 1860.72 1898.39
5744.68 1536.97 1591.64 1924.2 1907.41
5747.55 1659.29 1603.07 1937.31 1922.92
5750.42 1612.95 1574.86 1907.24 1892.89
5753.3 1452.35 1578.49 1834.12 1901.31
5756.17 1670.16 1565.38 1962.57 1878.96
5759.04 1573.63 1596.41 1840.2 1915.58
5761.91 1545.43 1560.53 1943.96 1877.48
5764.78 1562.52 1532.43 1848.28 1893.71
5767.66 1489.33 1561.75 1888.9 1879.7
5770.53 1633.39 1603.3 1901.92 1931.74
5773.4 1687.17 1654.93 2004.41 1942.23
5776.27 1644.23 1649.55 1920.37 1925.8
5779.14 1617.26 1574.82 1852.62 1879.29
5782.01 1462.97 1526.27 1864.86 1870.87
5784.89 1498.57 1490.21 1895.12 1883.13
5787.76 1509.09 1539.6 1889.42 1896.46
5790.63 1611.15 1558.73 1904.85 1872.01
5793.5 1555.95 1611.94 1821.75 1890.07
5796.37 1668.72 1583.74 1943.6 1855.51
5799.24 1526.56 1610.04 1801.19 1889.25
5802.11 1634.83 1551.9 1922.97 1867.48
5804.98 1494.32 1575.89 1878.29 1889.28
5807.85 1598.51 1581.8 1866.56 1888.52
5810.72 1652.56 1592.84 1920.69 1900.58
5813.59 1527.45 1599.57 1914.48 1912.84
5816.46 1618.7 1605.56 1903.35 1916.1
5819.33 1670.54 1575.17 1930.47 1890.29
5822.2 1436.28 1613.95 1837.06 1928.78
5825.07 1735.02 1627.49 2018.81 1940.9
5827.94 1711.17 1683.49 1966.83 1962.57
5830.81 1604.27 1674.24 1902.07 1950.98
5833.68 1707.28 1632.62 1984.04 1931.26
5836.55 1586.32 1671.26 1907.67 1987
5839.42 1720.18 1660.92 2069.29 1982.05
5842.29 1676.27 1632.74 1969.2 1993.16
5845.16 1501.76 1568.75 1940.99 1942.87
5848.03 1528.23 1498.78 1918.42 1920.51
5850.9 1466.35 1461.94 1902.12 1935.5
5853.76 1391.23 1399.68 1985.96 1945.09
5856.63 1341.45 1393.3 1947.19 1955.31
5859.5 1447.21 1392.35 1932.78 1962.42
5862.37 1388.39 1392.99 2007.29 1976.55
5865.24 1343.36 1389.33 1989.58 1966.39
5868.11 1436.25 1418.87 1902.3 1961.71
5870.97 1477 1446.37 1993.25 1932.47
5873.84 1425.87 1429.76 1901.85 1942.8
5876.71 1386.41 1385.96 1933.31 1881.09
5879.58 1345.59 1369.42 1808.11 1864.14
5882.44 1376.27 1357.87 1851.01 1822.78
5885.31 1351.75 1327.48 1809.21 1772.72
5888.18 1254.4 1344.33 1657.96 1781.1
5891.05 1426.83 1283.65 1876.15 1796.31
5893.91 1169.72 1306.3 1854.83 1837.13
5896.78 1322.36 1306.43 1780.41 1835.03
5899.65 1427.2 1343.75 1869.85 1856.08
5902.51 1281.69 1387.69 1917.99 1888.59
5905.38 1454.17 1363.03 1877.94 1888.13
5908.25 1353.23 1399.08 1868.46 1868.92
5911.11 1389.82 1425.7 1860.36 1890.75
5913.98 1534.06 1417.91 1943.44 1915.48
5916.85 1329.84 1420.24 1942.63 1909.17
5919.71 1396.82 1402.77 1841.44 1888.69
5922.58 1481.65 1446.62 1881.99 1879.46
5925.44 1461.4 1410.78 1914.94 1878.56
5928.31 1289.28 1376.57 1838.76 1851.72
5931.17 1379.03 1398.65 1801.45 1865.16
5934.04 1527.64 1442.6 1955.27 1860.68
5936.91 1421.11 1468.86 1825.31 1886.43
5939.77 1457.82 1414.09 1878.7 1893.7
5942.64 1363.33 1421.31 1977.1 1903.24
5945.5 1442.77 1408.92 1853.92 1887.24
5948.37 1420.66 1452.61 1830.7 1869.98
5951.23 1494.4 1470.33 1925.32 1907.8
5954.1 1495.92 1489.37 1967.36 1930.32
5956.96 1477.81 1472.77 1898.28 1906.09
5959.82 1444.6 1442.76 1852.64 1872.31
5962.69 1405.87 1435.59 1866.02 1883.28
5965.55 1456.31 1467.22 1931.19 1920.76
5968.42 1539.5 1494.95 1965.07 1941.54
5971.28 1489.05 1509.31 1928.37 1935.52
5974.14 1499.38 1508.97 1913.13 1943.91
5977.01 1538.48 1469.96 1990.24 1947.49
5979.87 1372.01 1472.25 1939.1 1959.2
5982.74 1506.26 1447.64 1948.26 1930.47
5985.6 1464.64 1474.76 1904.06 1916.52
5988.46 1453.4 1445 1897.26 1898.54
5991.32 1416.96 1432.81 1894.32 1887.02
5994.19 1428.07 1385.7 1869.48 1875.44
5997.05 1312.06 1393.69 1862.52 1866.78
5999.91 1440.95 1392.12 1868.35 1861.69
6002.78 1423.34 1436.32 1854.19 1867.29
6005.64 1444.69 1453.26 1879.33 1876.49
6008.5 1491.76 1449.01 1895.96 1878.35
6011.36 1410.59 1412.07 1859.75 1875.28
6014.23 1333.86 1353.41 1870.13 1865.03
6017.09 1315.79 1338.82 1865.21 1837.45
6019.95 1366.82 1357.21 1777.02 1827.92
6022.81 1389.03 1392.26 1841.54 1822.34
6025.67 1420.92 1430.55 1848.45 1871.5
6028.53 1481.7 1457.41 1924.52 1892.46
6031.4 1469.61 1478.58 1904.4 1914.12
6034.26 1484.43 1479.43 1913.44 1913.8
6037.12 1484.26 1444.24 1923.57 1877.05
6039.98 1364.02 1460.44 1794.16 1894.03
6042.84 1533.02 1454.74 1964.35 1884.25
6045.7 1467.17 1480.99 1894.25 1895.55
6048.56 1442.78 1426.76 1828.06 1882.52
6051.42 1370.32 1430.22 1925.26 1886.86
6054.28 1477.56 1411.51 1907.26 1913.16
6057.14 1386.64 1449.34 1906.98 1898.3
6060 1483.81 1430.38 1880.65 1870.53
6062.86 1420.7 1463.66 1823.95 1866.55
6065.72 1486.46 1455.98 1895.05 1864.54
6068.58 1460.79 1439.48 1874.63 1841.56
6071.44 1371.19 1436.1 1755 1844.04
6074.3 1476.31 1451.72 1902.5 1857.82
6077.16 1507.66 1442.19 1915.95 1882.08
6080.02 1342.59 1434.95 1827.79 1863.95
6082.88 1454.6 1398.05 1848.1 1872.21
6085.74 1396.97 1436.73 1940.74 1883.9
6088.6 1458.61 1438.69 1862.86 1884.43
6091.46 1460.48 1459.35 1849.68 1877.43
6094.32 1458.95 1400.68 1919.76 1860.48
6097.17 1282.61 1390.38 1812.01 1860.37
6100.03 1429.58 1394.17 1849.34 1859.31
6102.89 1470.32 1452.55 1916.59 1872.14
6105.75 1457.74 1456.75 1850.5 1867.63
6108.61 1442.17 1450.52 1835.79 1843.67
6111.47 1451.64 1486.95 1844.72 1896.63
6114.32 1567.03 1483.95 2009.38 1895.47
6117.18 1433.18 1491.62 1832.32 1901.91
6120.04 1474.66 1464.02 1864.02 1859.89
6122.9 1484.22 1455.58 1883.33 1848.48
6125.75 1407.86 1435.7 1798.09 1828.5
6128.61 1415.03 1414.03 1804.07 1819.53
6131.47 1419.22 1404.13 1856.42 1844.52
6134.32 1378.14 1397.18 1873.06 1824.87
6137.18 1394.19 1404.43 1745.14 1818.91
6140.04 1440.96 1397.06 1838.55 1773.87
6142.9 1356.05 1373.05 1737.93 1802.85
6145.75 1322.15 1387.13 1832.08 1827.29
6148.61 1483.19 1386.49 1911.86 1862.17
6151.46 1354.13 1415.73 1842.57 1856.98
6154.32 1409.88 1403.02 1816.51 1835.27
6157.18 1445.05 1406.15 1846.74 1809.01
6160.03 1363.53 1391.6 1763.79 1795.01
6162.89 1366.21 1371.64 1774.5 1777.11
6165.74 1385.19 1374.46 1793.03 1772.53
6168.6 1371.99 1376.3 1750.05 1765.42
6171.45 1371.73 1369.09 1753.16 1794.57
6174.31 1363.54 1380.28 1880.51 1800.1
6177.16 1405.57 1387.87 1766.62 1809.59
6180.02 1394.5 1417.42 1781.64 1793.9
6182.87 1452.19 1408.28 1833.43 1786.85
6185.73 1378.15 1398.86 1745.49 1769.03
6188.58 1366.25 1406.37 1728.17 1774.33
6191.44 1474.73 1398.74 1849.32 1758.04
6194.29 1355.26 1410.56 1696.65 1813.38
6197.15 1401.71 1393.88 1894.19 1803.2
6200 1424.68 1424.88 1818.77 1847.77
6202.85 1448.25 1449.81 1830.36 1834.74
6205.71 1476.49 1457.71 1855.09 1834.9
6208.56 1448.39 1423.64 1819.26 1841.6
6211.41 1346.06 1414.2 1850.45 1829.62
6214.27 1448.17 1399.74 1819.15 1807.98
6217.12 1404.99 1390.59 1754.35 1796.93
6219.97 1318.6 1377.38 1817.28 1781.75
6222.83 1408.54 1386.71 1773.62 1813.79
6225.68 1432.98 1428.11 1850.47 1816.07
6228.53 1442.81 1431.93 1824.13 1826.91
6231.39 1420 1390.35 1806.14 1817.55
6234.24 1308.24 1369.16 1822.38 1790.22
6237.09 1379.25 1350.05 1742.14 1775.54
6239.94 1362.65 1378.8 1762.1 1751.29
6242.79 1394.51 1364.59 1749.62 1738.36
6245.65 1336.61 1355.91 1703.36 1714.48
6248.5 1336.6 1339.07 1690.47 1726.85
6251.35 1343.99 1329.48 1786.73 1764.05
6254.2 1307.85 1368.15 1814.96 1807.42
6257.05 1452.61 1345.8 1820.58 1802.46
6259.9 1276.93 1380.41 1771.85 1793.36
6262.75 1411.69 1335.55 1787.65 1747.21
6265.61 1318.03 1359.6 1682.15 1773.76
6268.46 1349.09 1358.01 1851.49 1773.06
6271.31 1406.91 1352.34 1785.54 1791.14
6274.16 1301.02 1338.31 1736.4 1733.7
6277.01 1306.99 1333.87 1679.17 1719.27
6279.86 1393.6 1335.03 1742.25 1700.46
6282.71 1304.5 1386.65 1679.95 1750.39
6285.56 1461.85 1374.46 1828.96 1738.23
6288.41 1357.03 1416.08 1705.78 1782.86
6291.26 1429.37 1328.49 1813.84 1765.51
6294.11 1199.07 1378.21 1776.89 1812.34
6296.96 1506.2 1373.18 1846.27 1796.02
6299.81 1414.27 1446.28 1764.89 1799.57
6302.66 1418.37 1445.33 1787.55 1796.89
6305.51 1503.37 1441.44 1838.23 1799.11
6308.35 1402.6 1385.72 1771.56 1793.66
6311.2 1251.21 1333.36 1771.2 1735.5
6314.05 1346.27 1332.92 1663.74 1734.97
6316.9 1401.27 1340.12 1769.96 1728.76
6319.75 1272.81 1366.65 1752.57 1774
6322.6 1425.88 1391.57 1799.47 1790.42
6325.44 1476.02 1399.9 1819.21 1811.64
6328.29 1297.81 1347.37 1816.25 1794.02
6331.14 1268.28 1315.08 1746.59 1757.58
6333.99 1379.16 1354.11 1709.91 1736.13
6336.84 1414.9 1363.2 1751.88 1736.78
6339.68 1295.53 1358.63 1748.56 1745.38
6342.53 1365.45 1383.18 1735.69 1771.4
6345.38 1488.56 1386.45 1829.95 1780.48
6348.23 1305.33 1381.68 1775.79 1799.67
6351.07 1351.14 1324.74 1793.27 1742.51
6353.92 1317.75 1367.38 1658.47 1729.94
6356.77 1433.25 1336.79 1738.08 1711.72
6359.61 1259.37 1365.38 1738.61 1726.6
6362.46 1403.51 1360.57 1703.11 1725.73
6365.3 1418.83 1413.05 1735.46 1731.16
6368.15 1416.81 1417.92 1754.9 1752.28
6371 1418.12 1423.74 1766.48 1762.09
6373.84 1436.29 1425.45 1764.89 1766.11
6376.69 1421.95 1411.19 1766.96 1747.07
6379.53 1375.32 1407.79 1709.35 1743.59
6382.38 1426.12 1405.9 1754.46 1734.69
6385.22 1416.27 1420.58 1740.25 1742.53
6388.07 1419.34 1404.58 1732.89 1711.76
6390.91 1378.12 1391.41 1662.15 1701.25
6393.76 1376.77 1385.54 1708.71 1699.69
6396.6 1401.72 1412.64 1728.21 1738.41
6399.45 1459.42 1422.46 1778.3 1752.61
6402.29 1406.24 1445.26 1751.32 1781.31
6405.14 1470.12 1410.45 1814.3 1771.33
6407.98 1354.99 1423.99 1748.36 1775.3
6410.82 1446.85 1405.23 1763.24 1752.38
6413.67 1413.85 1377.3 1745.53 1721.08
6416.51 1271.19 1362.7 1654.46 1705.05
6419.36 1403.07 1388.98 1715.16 1726.25
6422.2 1492.69 1428.55 1809.14 1740.32
6425.04 1389.89 1419.62 1696.65 1738.36
6427.89 1376.28 1409.79 1709.3 1715.19
6430.73 1463.21 1398.86 1739.61 1692.16
6433.57 1357.08 1408.77 1627.56 1697.63
6436.41 1406.01 1384.99 1725.72 1711.21
6439.26 1391.88 1396.77 1780.33 1733.46
6442.1 1392.41 1398.73 1694.33 1730.09
6444.94 1411.91 1400.6 1715.59 1691.64
6447.78 1397.48 1410.53 1665 1705.53
6450.63 1422.2 1391.57 1735.99 1718.03
6453.47 1355.01 1383.58 1753.11 1728.02
6456.31 1373.53 1386.43 1694.97 1730.67
6459.15 1430.76 1434.05 1743.92 1757.4
6461.99 1497.86 1453.99 1833.32 1764.52
6464.83 1433.34 1444.73 1716.31 1736.87
6467.67 1402.98 1411.2 1660.99 1697.98
6470.51 1397.28 1371.5 1716.63 1704.81
6473.36 1314.24 1385.36 1736.83 1730.46
6476.2 1444.57 1372.93 1737.92 1710.66
6479.04 1359.99 1410.01 1657.24 1704.76
6481.88 1425.47 1378.28 1719.12 1664.69
6484.72 1349.38 1392.34 1617.7 1673.91
6487.56 1402.16 1348.26 1684.91 1661.75
6490.4 1293.23 1353.96 1682.63 1670.55
6493.24 1366.5 1314.61 1644.09 1629.92
6496.08 1284.1 1358.13 1563.04 1652.88
6498.92 1423.79 1356.74 1751.5 1658.37
6501.76 1362.35 1362.06 1660.58 1708.06
6504.59 1300.05 1360.3 1712.11 1697.51
6507.43 1418.52 1351.64 1719.83 1727.57
6510.27 1336.36 1369.06 1750.77 1706.01
6513.11 1352.3 1341.71 1647.43 1714.57
6515.95 1336.48 1343.59 1745.51 1706.8
6518.79 1342 1354.89 1727.46 1721.94
6521.63 1386.19 1341.65 1692.86 1706.03
6524.47 1296.76 1400.31 1697.78 1753.18
6527.3 1517.99 1355.65 1868.9 1744.95
6530.14 1252.19 1414.22 1668.16 1765.58
6532.98 1472.48 1384.11 1759.67 1728.29
6535.82 1427.64 1401.27 1757.05 1735.91
6538.65 1303.67 1369.15 1691.01 1694.12
6541.49 1376.13 1306.32 1634.3 1659.87
6544.33 1239.17 1340.2 1654.3 1663.46
6547.17 1405.31 1339.1 1701.78 1664.32
6550 1372.82 1375.33 1636.89 1651.59
6552.84 1347.85 1383.23 1616.11 1648.44
6555.68 1429.04 1345.14 1692.33 1603.6
6558.51 1258.55 1272.99 1502.36 1574.24
6561.35 1131.39 1215.44 1528.02 1515.78
6564.18 1256.39 1251.92 1516.95 1561
6567.02 1367.98 1336.1 1638.04 1599.18
6569.86 1383.93 1402.72 1642.55 1658.69
6572.69 1456.25 1401.19 1695.48 1649.59
6575.53 1363.39 1434.64 1610.72 1689.7
6578.36 1484.28 1365.63 1762.9 1661.89
6581.2 1249.22 1377.75 1612.04 1668.64
6584.03 1399.73 1360.01 1630.99 1647.72
6586.87 1431.09 1406.2 1700.13 1665.46
6589.7 1387.79 1387.59 1665.26 1684.99
6592.54 1343.88 1352 1689.58 1653.45
6595.37 1324.31 1372.41 1605.5 1663.84
6598.21 1449.04 1380.91 1696.45 1652.36
6601.04 1369.37 1360.88 1655.13 1661.9
6603.87 1264.23 1357.33 1634.13 1659.38
6606.71 1438.41 1334.86 1688.87 1663.1
6609.54 1301.94 1382.86 1666.31 1685.46
6612.37 1408.23 1364.77 1701.18 1681.26
6615.21 1384.13 1380.16 1676.27 1661.2
6618.04 1348.14 1360.78 1606.16 1635.69
6620.87 1350.08 1376.77 1624.65 1641.27
6623.71 1432.09 1390.47 1693 1656.58
6626.54 1389.23 1411.8 1652.09 1663.97
6629.37 1414.08 1400.6 1646.8 1653.62
6632.2 1398.48 1374.85 1661.98 1611.98
6635.04 1311.97 1366.28 1527.15 1606.53
6637.87 1388.37 1357.18 1630.45 1592.66
6640.7 1371.2 1372.85 1620.39 1615.3
6643.53 1358.98 1382.57 1595.06 1621.17
6646.36 1417.52 1358.91 1648.08 1626.34
6649.2 1300.21 1380.25 1635.89 1647.33
6652.03 1423.02 1350.78 1658.02 1654.98
6654.86 1329.1 1356.92 1671.02 1659.23
6657.69 1318.64 1340.34 1648.64 1640.46
6660.52 1373.29 1344.99 1601.74 1636.87
6663.35 1343.04 1385.54 1660.24 1654.99
6666.18 1440.3 1400.88 1702.99 1675.02
6669.01 1419.29 1435.85 1661.82 1677.74
6671.84 1447.96 1377.11 1668.4 1637.51
6674.67 1264.08 1362.78 1582.3 1621.01
6677.5 1376.29 1340.94 1612.33 1609.78
6680.33 1382.44 1379.35 1634.72 1620.11
6683.16 1379.31 1382.02 1613.28 1621.1
6685.99 1384.31 1336.81 1615.31 1585.79
6688.82 1246.82 1340.04 1528.78 1587.39
6691.65 1388.98 1331.78 1618.09 1579.96
6694.48 1359.54 1369.94 1593.01 1606.25
6697.31 1361.3 1346.67 1607.65 1610.26
6700.14 1319.16 1379.99 1630.13 1645.01
6702.97 1459.5 1391.55 1697.23 1659.44
6705.79 1396 1439.94 1650.97 1693.18
6708.62 1464.32 1413 1731.34 1670.27
6711.45 1378.68 1420.05 1628.5 1661.18
6714.28 1417.16 1420.58 1623.7 1656.87
6717.11 1465.9 1379.39 1718.42 1639.87
6719.93 1255.1 1374.73 1577.49 1645.69
6722.76 1403.2 1327.35 1641.17 1622.9
6725.59 1323.76 1341.7 1650.03 1639.7
6728.42 1298.15 1339.57 1627.91 1662.41
6731.24 1396.8 1375.14 1709.27 1657.39
6734.07 1430.48 1423.67 1634.97 1681.56
6736.9 1443.72 1383.15 1700.43 1630.64
6739.72 1275.25 1375.11 1556.52 1622.1
6742.55 1406.36 1349.07 1609.34 1587.36
6745.38 1365.61 1383.09 1596.2 1597.9
6748.2 1377.32 1389.78 1588.15 1615.3
6751.03 1426.41 1417.94 1661.56 1630.85
6753.85 1450.09 1429.01 1642.83 1655.87
6756.68 1410.53 1378.34 1663.21 1621.51
6759.5 1274.4 1373.81 1558.48 1615.58
6762.33 1436.5 1377.72 1625.04 1606.34
6765.15 1422.27 1408.83 1635.51 1612.04
6767.98 1367.71 1370.29 1575.57 1574.31
6770.8 1320.88 1391.39 1511.84 1600.68
6773.63 1485.57 1373.43 1714.62 1607.4
6776.45 1313.84 1384.99 1595.73 1623.65
6779.28 1355.57 1343.61 1560.6 1577.2
6782.1 1361.43 1374.19 1575.28 1576.58
6784.92 1405.56 1380.05 1593.87 1575.64
6787.75 1373.16 1413.58 1557.77 1601.59
6790.57 1462.02 1397.42 1653.13 1597.7
6793.4 1357.09 1372.94 1582.22 1614.52
6796.22 1299.7 1361.14 1608.2 1598.51
6799.04 1426.63 1394.38 1605.12 1627.86
6801.87 1456.8 1436.96 1670.26 1630.44
6804.69 1427.47 1435.08 1615.94 1630.81
6807.51 1420.96 1393.36 1606.23 1578.36
6810.33 1331.64 1390.15 1512.9 1580.05
6813.16 1417.86 1386.02 1621.02 1585.44
6815.98 1408.56 1399.8 1622.41 1613.13
6818.8 1372.99 1399.35 1595.96 1605.69
6821.62 1416.5 1375.62 1598.7 1576.53
6824.44 1337.36 1376.65 1534.92 1568.2
6827.26 1376.09 1318.65 1570.99 1564.92
6830.09 1242.5 1179.39 1588.84 1550.23
6832.91 919.591 1126.63 1490.87 1544.31
6835.73 1217.79 1129.16 1553.23 1551.91
6838.55 1250.09 1219.87 1611.63 1572.38
6841.37 1191.75 1166.2 1552.29 1542.67
6844.19 1056.75 1164.35 1464.08 1524.52
6847.01 1244.57 1168.57 1557.18 1512.62
6849.83 1204.38 1201.59 1516.6 1522.32
6852.65 1155.83 1179.9 1493.17 1495.54
6855.47 1179.49 1189.32 1476.84 1497.49
6858.29 1232.63 1189.66 1522.47 1491.6
6861.11 1156.86 1144.71 1475.48 1440.81
6863.93 1044.65 1007.57 1324.49 1353.37
6866.75 821.205 942.898 1260.13 1270.4
6869.57 962.837 909.856 1226.57 1225.88
6872.39 945.527 952.321 1190.92 1243.4
6875.2 948.598 959.48 1312.71 1284.56
6878.02 984.315 1000.47 1350.05 1329.23
6880.84 1068.51 1047.89 1324.92 1352.27
6883.66 1090.86 1073.4 1381.85 1335.03
6886.48 1060.84 1072.22 1298.31 1340.4
6889.29 1064.96 1049.1 1341.06 1313.96
6892.11 1021.48 1047.79 1302.51 1328.2
6894.93 1056.94 1023.11 1341.03 1332.09
6897.75 990.917 1032.54 1352.73 1354.63
6900.56 1049.78 1051.11 1370.15 1374.15
6903.38 1112.64 1044.64 1399.57 1371.23
6906.2 971.503 1065.81 1343.96 1387.13
6909.01 1113.29 1095.39 1417.85 1414.06
6911.83 1201.39 1138.98 1480.36 1438.8
6914.65 1102.25 1137.48 1418.18 1441.8
6917.46 1108.8 1117.58 1426.86 1419.25
6920.28 1141.69 1145.76 1412.72 1440.78
6923.1 1186.78 1173.22 1482.75 1445.16
6925.91 1191.19 1170.13 1440 1450.52
6928.73 1132.42 1158 1428.79 1447.64
6931.54 1150.38 1104.39 1474.11 1432.91
6934.36 1030.36 1122.06 1395.84 1439.31
6937.17 1185.44 1083.75 1447.99 1426.27
6939.99 1035.44 1110.64 1434.99 1412.61
6942.8 1111.03 1106.65 1354.86 1404.53
6945.62 1173.48 1132.87 1423.75 1375.66
6948.43 1114.1 1140 1348.39 1396.2
6951.24 1132.42 1132.64 1416.45 1400.03
6954.06 1151.41 1124.85 1435.25 1440.58
6956.87 1090.73 1115.06 1470.03 1453.71
6959.68 1103.03 1121.01 1455.86 1448.2
6962.5 1169.25 1581.47 1418.7 1937.37
6965.31 2472.14 2303.73 2937.55 2771.9
6968.12 3269.8 2305.73 3959.45 2766.44
6970.94 1175.26 1863.77 1402.31 2262.41
6973.75 1146.24 1172.34 1425.46 1437.86
6976.56 1195.51 1141.77 1485.81 1413.4
6979.37 1083.55 1162.1 1328.94 1432.44
6982.19 1207.24 1156.47 1482.57 1445.78
6985 1178.61 1152.22 1525.83 1468.56
6987.81 1070.81 1121.84 1397.27 1463.18
6990.62 1116.09 1108.93 1466.44 1414.42
6993.43 1139.88 1150.7 1379.55 1428.73
6996.25 1196.12 1155.32 1440.2 1417.29
6999.06 1129.97 1119.59 1432.11 1390.15
7001.87 1032.68 1105.85 1298.14 1408.28
7004.68 1154.91 1096.65 1494.6 1385.81
7007.49 1102.38 1144.36 1364.7 1426.75
7010.3 1175.78 1140.07 1420.96 1386.02
7013.11 1142.05 1170.91 1372.4 1401.52
7015.92 1194.91 1143.02 1411.19 1403.35
7018.73 1092.08 1164.17 1426.45 1424.03
7021.54 1205.52 1158.91 1434.46 1438.77
7024.35 1179.12 1161.83 1455.42 1414.64
7027.16 1100.84 1102.83 1354.03 1389.57
7029.97 1028.55 1093.74 1359.26 1384.08
7032.78 1151.83 1108.74 1438.94 1390.88
7035.59 1145.86 1147.85 1374.43 1390.72
7038.39 1145.85 1144.51 1358.8 1355.1
7041.2 1141.81 1114.28 1332.07 1325.17
7044.01 1055.18 1108.02 1284.62 1326.4
7046.82 1127.06 1098.39 1362.49 1339.46
7049.63 1112.94 1124.65 1371.25 1357.73
7052.43 1133.96 1119.05 1339.45 1356.34
7055.24 1110.24 1132.79 1358.33 1358.13
7058.05 1154.17 1111.97 1376.59 1374.53
7060.86 1071.49 1111.99 1388.65 1370.72
7063.66 1110.31 1080.92 1346.9 1329.78
7066.47 1060.95 1106.74 1253.79 1317.87
7069.28 1148.97 1110.67 1352.93 1319.25
7072.08 1122.08 1118.27 1351.02 1356.88
7074.89 1083.75 1099.67 1366.68 1348.54
7077.7 1093.19 1092.22 1327.91 1335.23
7080.5 1099.73 1077.58 1311.12 1296.07
7083.31 1039.82 1083.04 1249.2 1289.9
7086.11 1109.57 1086.47 1309.37 1289.94
7088.92 1110.02 1107.59 1311.25 1321.9
7091.73 1103.17 1075.66 1345.08 1327.93
7094.53 1013.79 1043.99 1327.47 1327.34
7097.34 1015.02 1034.77 1309.47 1333.38
7100.14 1075.51 1032.22 1363.18 1310.18
7102.94 1006.13 1072.53 1257.87 1319.64
7105.75 1135.94 1049.62 1337.87 1287.53
7108.55 1006.78 1053.65 1266.84 1293.62
7111.36 1018.23 1017.54 1276.15 1286.6
7114.16 1027.6 1044.82 1316.82 1286.18
7116.96 1088.65 1063.95 1265.58 1313.02
7119.77 1075.62 1106.09 1356.68 1314.34
7122.57 1154 1109.43 1320.77 1321.27
7125.37 1098.68 1107.89 1286.37 1283.45
7128.18 1070.98 1074.61 1243.23 1262.33
7130.98 1054.16 1067.46 1257.41 1249.96
7133.78 1077.22 1069.99 1249.25 1265.23
7136.59 1078.58 1082.36 1289.03 1260.95
7139.39 1091.28 1071.56 1244.56 1258.41
7142.19 1044.81 1065.94 1241.63 1241.42
7144.99 1061.73 1027.08 1238.06 1226.75
7147.79 974.708 1007.51 1200.57 1229.17
7150.59 986.079 1001.16 1248.88 1222.94
7153.4 1042.7 1021.45 1219.35 1235.88
7156.2 1035.57 1040.72 1239.41 1231.07
7159 1043.9 1051.43 1234.46 1236.46
7161.8 1074.83 1039.04 1235.51 1217.87
7164.6 998.399 1031.49 1183.64 1207.54
7167.4 1021.25 988.657 1203.47 1179.86
7170.2 946.326 986.012 1152.47 1181.16
7173 990.461 971.426 1187.54 1147.87
7175.8 977.491 990.677 1103.61 1157.83
7178.6 1004.08 946.674 1182.35 1119.88
7181.4 858.451 940.311 1073.68 1125.67
7184.2 958.402 917.459 1120.99 1084.43
7187 935.523 944.411 1058.62 1090.68
7189.8 939.309 968.516 1092.42 1106.65
7192.59 1030.72 970.32 1168.92 1110.61
7195.39 940.934 985.388 1070.49 1126.37
7198.19 984.514 918.135 1139.68 1086.39
7200.99 828.958 939.712 1049.01 1112.26
7203.79 1005.66 966.49 1148.1 1128.63
7206.59 1064.85 1029.81 1188.8 1162.48
7209.38 1018.93 1026.42 1150.54 1162.55
7212.18 995.478 985.732 1148.32 1144.63
7214.98 942.788 987.033 1135.02 1167.65
7217.77 1022.83 995.298 1219.61 1180.63
7220.57 1020.27 1012.84 1187.28 1205.25
7223.37 995.415 1024.43 1208.86 1203.31
7226.16 1057.59 1027.18 1213.79 1200.84
7228.96 1028.54 1027.54 1179.88 1192.59
7231.76 996.482 1006.43 1184.1 1181.59
7234.55 994.253 997.952 1180.81 1167.22
7237.35 1003.12 1009.36 1136.74 1138.44
7240.14 1030.71 880.761 1097.76 1100.27
7242.94 608.456 873.167 1066.29 1114.44
7245.73 980.338 845.385 1179.26 1104.44
7248.53 947.362 957.657 1067.77 1104.25
7251.32 945.273 990.111 1065.72 1097.57
7254.12 1077.7 970.913 1159.23 1092.99
7256.91 889.767 992.534 1054.02 1112.92
7259.71 1010.14 958.167 1125.51 1097.6
7262.5 974.597 982.998 1113.26 1121.08
7265.3 964.259 940.481 1124.46 1084.71
7268.09 882.586 946.054 1016.42 1080.24
7270.88 991.316 930.181 1099.83 1043.78
7273.68 916.639 961.342 1015.1 1050.54
7276.47 976.069 965.149 1036.69 1051.96
7279.26 1002.74 986.762 1104.11 1082.41
7282.05 981.479 974.95 1106.42 1087.73
7284.85 940.631 943.114 1052.67 1062.22
7287.64 907.232 933.589 1027.58 1066.52
7290.43 952.904 940.56 1119.32 1067.22
7293.22 961.544 940.171 1054.77 1074
7296.02 906.064 948.617 1047.92 1044.56
7298.81 978.242 941.685 1030.98 1063.16
7301.6 940.749 969.576 1110.57 1088.18
7304.39 989.736 964.424 1122.99 1099.26
7307.18 962.787 975.29 1064.21 1094.68
7309.97 973.347 957.741 1096.84 1066.09
7312.76 937.088 981.77 1037.24 1095.01
7315.55 1034.88 957.826 1150.96 1072.67
7318.34 901.513 975.163 1029.8 1104.71
7321.13 989.098 945.447 1133.38 1084.99
7323.92 945.729 984.374 1091.8 1119.73
7326.71 1018.3 961.259 1134.02 1130.91
7329.5 919.752 987.859 1166.91 1159.14
7332.29 1025.53 986.832 1176.48 1136.94
7335.08 1015.21 931.277 1067.43 1127.92
7337.87 753.088 897.091 1139.84 1086.93
7340.66 922.971 859.162 1053.5 1086.98
7343.45 901.427 926.644 1067.58 1054.24
7346.23 955.534 954.498 1041.64 1069.75
7349.02 1006.53 994.236 1100.04 1088.47
7351.81 1020.64 1033.58 1123.72 1123.25
7354.6 1073.57 959.004 1146.01 1095.34
7357.38 782.799 925.436 1016.29 1051.63
7360.17 919.935 924.01 992.578 1055.37
7362.96 1069.3 985.967 1157.24 1058.62
7365.75 968.67 981.998 1026.04 1102.51
7368.53 908.029 869.405 1124.25 1060.77
7371.32 731.517 890.448 1032.03 1085.61
7374.11 1031.8 883.988 1100.56 1059.13
7376.89 888.647 980.907 1044.8 1094.95
7379.68 1022.28 958.236 1139.48 1076.97
7382.46 963.787 974.965 1046.64 1089.24
7385.25 938.832 981.994 1081.61 1080.3
7388.03 1043.36 986.239 1112.64 1080.62
7390.82 976.522 1020.71 1047.62 1086.51
7393.6 1042.25 999.74 1099.27 1061.88
7396.39 980.451 1009.75 1038.77 1056.9
7399.17 1006.54 1009.46 1032.67 1058.68
7401.96 1041.39 984.781 1104.61 1033.32
7404.74 906.417 978.96 962.666 1050.51
7407.53 989.074 944.93 1084.26 1011.3
7410.31 939.3 943.017 986.992 1042.37
7413.09 900.678 895.954 1055.86 1001.05
7415.88 847.883 888.969 960.292 1011.32
7418.66 918.345 933.523 1017.81 1039.7
7421.44 1034.34 926.36 1140.99 1050.98
7424.22 826.394 942.219 994.137 1052.3
7427.01 965.923 867.252 1021.78 994.833
7429.79 809.439 886.288 968.582 979.6
7432.57 883.501 882.509 948.437 974.841
7435.35 954.588 932.173 1007.5 993.442
7438.14 958.431 968.298 1024.39 1025.26
7440.92 991.877 966.074 1043.88 1029.14
7443.7 947.916 974.258 1019.16 1047.67
7446.48 982.981 959.067 1079.96 1045.22
7449.26 946.305 989.923 1036.55 1074.94
7452.04 1040.48 978.693 1108.32 1062.58
7454.82 949.293 961.039 1042.87 1046.13
7457.6 893.343 922.701 987.184 1015.84
7460.38 925.466 942.723 1017.48 1025.59
7463.16 1009.36 955.937 1072.12 1032.04
7465.94 932.985 958.408 1006.52 1030.13
7468.72 932.881 954.008 1011.76 1027.22
7471.5 996.158 962.033 1063.38 1023.51
7474.28 957.061 941.619 995.387 1035.99
7477.06 871.638 911.459 1049.2 1012.28
7479.84 905.68 880.855 992.261 1027.35
7482.62 865.246 923.568 1040.6 1023.72
7485.39 999.777 898.163 1038.3 1022.54
7488.17 829.465 923.1 988.726 1008.2
7490.95 940.057 930.959 997.558 1016.57
7493.73 1023.35 988.946 1063.41 1028.82
7496.51 1003.43 975.557 1025.47 1026.84
7499.28 899.89 949.721 991.627 1015.54
7502.06 945.848 911.594 1029.51 989.283
7504.84 889.043 944.515 946.715 1002.59
7507.61 998.654 908.185 1031.55 981.902
7510.39 836.859 942.385 967.441 1016.35
7513.17 991.642 923.204 1050.04 991.246
7515.94 941.112 949.875 956.253 973.435
7518.72 916.871 859.399 914.008 947.187
7521.49 720.214 878.546 971.299 981.998
7524.27 998.552 927.049 1060.69 1032.44
7527.04 1062.38 992.514 1065.33 1024.29
7529.82 916.609 939.463 946.862 997.357
7532.59 839.399 887.538 979.884 949.754
7535.37 906.606 892.394 922.516 948.836
7538.14 931.176 917.02 944.108 928.255
7540.92 913.279 914.231 918.141 938.98
7543.69 898.24 890.9 954.691 931.728
7546.47 861.182 898.318 922.353 948.873
7549.24 935.532 886.604 969.575 943.485
7552.01 863.099 909.235 938.527 961.267
7554.79 929.074 895.556 975.7 958.175
7557.56 894.496 910.488 960.298 964.375
7560.33 907.894 902.581 957.128 950.605
7563.1 905.352 914.944 934.39 946.123
7565.88 931.585 897.045 946.851 928.093
7568.65 854.199 861.12 903.038 959.612
7571.42 797.575 852.487 1028.95 945.651
7574.19 905.686 886.389 904.966 965.986
7576.96 955.904 923.786 964.042 945.958
7579.73 909.767 916.357 968.865 939.546
7582.51 883.399 873.06 885.731 913.303
7585.28 826.015 854.527 885.313 866.785
7588.05 854.166 788.854 829.312 819.054
7590.82 686.379 699.234 742.538 731.922
7593.59 557.156 566.74 623.917 614.875
7596.36 456.683 453.043 478.17 487.161
7599.13 345.291 372.92 359.397 388.51
7601.9 316.787 317.868 327.962 331.619
7604.67 291.525 316.814 307.497 321.076
7607.44 342.128 337.242 327.768 353.08
7610.21 378.072 408.124 423.976 421.664
7612.97 504.171 492.656 513.247 507.235
7615.74 595.725 553.606 584.483 539.98
7618.51 560.924 558.605 522.209 544.512
7621.28 519.166 524.932 526.844 540.43
7624.05 494.705 505.488 572.237 533.755
7626.81 502.593 503.498 502.184 532.712
7629.58 513.197 490.663 523.715 504.597
7632.35 456.2 497.594 487.892 519.917
7635.12 523.385 491.148 548.143 513.893
7637.88 493.858 528.014 505.644 538.913
7640.65 566.8 551.206 562.951 550.072
7643.42 592.962 584.552 581.62 579.327
7646.18 593.895 606.159 593.411 592.596
7648.95 631.622 633.803 602.758 623.092
7651.71 675.893 653.161 673.108 640.547
7654.48 651.967 661.643 645.775 664.762
7657.25 657.068 672.631 675.402 678.835
7660.01 708.857 683.92 715.328 686.276
7662.78 685.834 698.698 668.099 696.631
7665.54 701.403 702.29 706.464 702.144
7668.31 719.631 720.094 731.87 718.011
7671.07 739.247 744.697 715.698 741.063
7673.83 775.213 767.747 775.621 759.064
7676.6 788.783 801.892 785.872 793.627
7679.36 841.679 806.083 819.389 786.671
7682.12 787.786 803.648 754.751 803.228
7684.89 781.48 799.251 835.545 796.21
7687.65 828.488 771.633 798.334 788.101
7690.41 704.932 776.818 730.425 767.077
7693.18 797.035 758.149 772.471 774.691
7695.94 772.479 787.544 821.177 796.633
7698.7 793.117 793.22 796.251 792.547
7701.46 814.064 819.019 760.212 789.235
7704.22 849.876 827.826 811.243 772.129
7706.99 819.539 827.23 744.931 770.516
7709.75 812.276 830.239 755.373 769.115
7712.51 858.903 833.222 807.041 794.874
7715.27 828.486 784.695 822.206 802.14
7718.03 666.696 742.284 777.174 799.188
7720.79 731.669 711.775 798.183 776.842
7723.55 736.96 728.74 755.169 769.953
7726.31 717.592 706.814 756.507 757.014
7729.07 665.892 704.386 759.364 764.144
7731.83 729.674 695.759 776.561 766.031
7734.59 691.712 712.775 762.168 776.616
7737.35 716.939 681.483 791.119 754.739
7740.11 635.799 684.755 710.931 756.557
7742.87 701.526 672.792 767.62 738.045
7745.62 681.051 677.521 735.583 741.33
7748.38 649.986 629.871 720.787 729.029
7751.14 558.576 627.583 730.716 732.211
7753.9 674.187 654.061 745.13 748.016
7756.66 729.421 695.3 768.203 743.879
7759.41 682.291 696.878 718.304 724.42
7762.17 678.923 674.385 686.753 722.184
7764.93 661.94 657.463 761.496 726.127
7767.68 631.527 673.728 730.133 753.619
7770.44 727.717 668.315 769.228 727.04
7773.2 645.701 667.789 681.76 700.805
7775.95 629.95 626.651 651.428 669.321
7778.71 604.303 641.137 674.776 679.723
7781.47 689.157 658.313 712.966 710.26
7784.22 681.478 690.777 743.038 734.442
7786.98 701.695 681.913 747.323 733.819
7789.73 662.566 671.654 711.097 710.258
7792.49 650.7 666.598 672.352 691.087
7795.24 686.526 680.813 689.813 689.843
7797.99 705.213 700.521 707.364 711.915
7800.75 709.824 692.048 738.568 720.705
7803.5 661.108 693.045 716.184 720.416
7806.26 708.203 693.301 706.494 704.785
7809.01 710.592 697.849 691.676 718.886
7811.76 674.751 688.4 758.489 712.258
7814.52 679.856 693.301 686.609 707.779
7817.27 725.295 702.587 678.24 683.442
7820.02 702.611 706.565 685.476 683.585
7822.77 691.788 666.189 687.038 689.808
7825.52 604.169 657.137 696.909 708.541
7828.28 675.453 673.159 741.677 736.764
7831.03 739.854 737.665 771.706 787.581
7833.78 797.689 777.572 849.359 821.609
7836.53 795.174 794.262 843.761 843.65
7839.28 789.924 787.029 837.829 813.625
7842.03 775.989 741.33 759.285 769.131
7844.78 658.077 722.779 710.28 723.029
7847.53 734.27 667.81 699.524 667.11
7850.28 611.081 690.277 591.526 648.29
7853.03 725.48 652.36 653.82 619.216
7855.78 620.518 660.279 612.303 640.156
7858.53 634.841 636.822 654.344 659.73
7861.28 655.109 657.847 712.544 692.904
7864.03 683.593 646.886 711.824 679.605
7866.78 601.955 651.447 614.449 667.195
7869.53 668.794 628.313 675.312 631.676
7872.28 614.189 625.112 605.267 641.447
7875.02 592.351 610.785 643.76 610.353
7877.77 625.815 612.838 582.032 615.271
7880.52 620.346 614.801 620.02 582.572
7883.27 598.242 638.485 545.665 598.512
7886.01 696.867 648.174 629.85 604.55
7888.76 649.412 662.13 638.137 637.276
7891.51 640.111 643.547 643.841 646.907
7894.25 641.119 634.363 658.744 633.466
7897 621.861 614.331 597.814 622.847
7899.74 580.015 599.627 611.984 608.222
7902.49 597.005 615.116 614.867 618.087
7905.24 668.327 632.442 627.409 591.935
7907.98 631.993 630.658 533.528 592.815
7910.73 591.655 629.179 617.507 555.009
7913.47 663.889 599 513.991 575.198
7916.22 541.455 601.397 594.096 563.913
7918.96 598.845 578.083 583.653 578.25
7921.7 593.947 621.867 557.001 587.857
7924.45 672.807 636.955 622.917 595.479
7927.19 644.111 640.686 606.52 602.847
7929.93 605.141 620.315 579.104 608.11
7932.68 611.695 606.268 638.705 604.363
7935.42 601.968 586.494 595.281 578.604
7938.16 545.819 589.994 501.827 566.786
7940.91 622.195 587.819 603.25 546.853
7943.65 595.444 585.924 535.482 554.842
7946.39 540.133 596.451 525.792 559.973
7949.13 653.778 621.693 618.644 601.669
7951.87 671.167 635.382 660.572 612.693
7954.62 581.201 631.767 558.863 589.68
7957.36 642.933 615.327 549.606 553.578
7960.1 621.847 615.85 552.264 558.445
7962.84 582.77 579.576 573.465 548.585
7965.58 534.111 545.569 520.027 533.265
7968.32 519.827 562.117 506.303 526.757
7971.06 632.413 586.146 553.942 538.453
7973.8 606.198 624.601 555.113 554.165
7976.54 635.192 614.41 553.439 556.547
7979.28 601.838 611.234 561.089 550.062
7982.02 596.67 592.976 535.659 546.572
7984.75 580.42 603.142 542.967 548.262
7987.49 632.335 586.827 566.161 545.941
7990.23 547.725 591.904 528.696 545.782
7992.97 595.651 605.76 542.49 584.82
7995.71 673.905 612.464 683.272 578.771
7998.44 567.836 605.795 510.549 568.934
8001.18 575.642 579.654 512.981 528.217
8003.92 595.482 592.666 561.121 538.551
8006.66 606.874 600.256 541.552 551.602
8009.39 598.413 590.573 552.133 528.499
8012.13 566.431 600.924 491.811 534.255
8014.87 637.929 612.543 558.82 532.353
8017.6 633.268 635.995 546.427 562.742
8020.34 636.788 630.955 582.98 567.815
8023.07 622.809 631.126 574.039 560.903
8025.81 633.782 616.319 525.69 524.387
8028.54 592.366 603.463 473.432 516.84
8031.28 584.24 605.145 551.398 532.799
8034.01 638.831 595.499 573.569 542.781
8036.75 563.426 607.479 503.378 542.975
8039.48 620.18 594.984 551.977 533.811
8042.21 601.345 613.966 546.078 553.715
8044.95 620.373 607.616 563.089 539.338
8047.68 601.132 590.581 508.847 511.301
8050.41 550.237 585.993 461.966 502.122
8053.15 606.608 583.714 535.553 500.008
8055.88 594.295 595.236 502.505 522.622
8058.61 584.806 598.083 529.808 518.036
8061.34 615.147 594.235 521.797 523.51
8064.08 582.753 595.739 518.927 523.469
8066.81 589.317 590.291 529.684 536.347
8069.54 598.803 596.204 560.43 523.652
8072.27 600.493 587.599 480.843 514.13
8075 563.501 577.146 501.117 504.87
8077.73 567.443 568.963 532.65 516.718
8080.46 575.946 573.116 516.386 520.359
8083.19 575.958 558.256 512.039 501.05
8085.92 522.863 538.606 474.724 484.855
8088.65 516.998 530.996 467.803 476.837
8091.38 553.128 552.9 487.984 480.146
8094.11 588.574 568.406 484.653 478.717
8096.84 563.516 564.669 463.514 472.033
8099.57 541.916 558.318 467.933 472.437
8102.3 569.522 556.641 485.865 473.772
8105.03 558.485 562.552 467.52 460.367
8107.75 559.648 555.58 427.716 464.906
8110.48 548.607 552.087 499.483 467.387
8113.21 548.005 553.163 474.963 483.903
8115.94 562.878 549.292 477.263 472.859
8118.66 536.995 544.14 466.349 468.628
8121.39 532.548 545.423 462.272 472.098
8124.12 566.727 561.857 487.674 485.333
8126.84 586.296 568.973 506.052 489.302
8129.57 553.896 532.79 474.179 458.327
8132.3 458.178 512.654 394.75 428.136
8135.02 525.887 501.188 415.48 422.51
8137.75 519.499 522.094 457.299 425.665
8140.47 520.896 517.407 404.216 427.358
8143.2 511.826 513.1 420.558 434.722
8145.92 506.577 503.929 479.391 438.537
8148.65 493.384 505.285 415.663 438.57
8151.37 515.895 509.96 420.656 427.945
8154.09 520.601 510.825 447.516 435.119
8156.82 495.98 499.401 437.185 433.293
8159.54 481.621 492.126 415.177 419.384
8162.26 498.776 488.761 405.79 412.273
8164.99 485.886 503.22 415.851 418.934
8167.71 524.999 510.428 435.162 414.549
8170.43 520.4 510.146 392.634 416.731
8173.15 485.04 495.602 422.398 402.216
8175.88 481.367 492.674 391.616 417.282
8178.6 511.616 490.178 437.832 408.582
8181.32 477.55 487.359 396.298 410.086
8184.04 472.912 479.722 396.13 400.127
8186.76 488.703 494.623 407.954 411.381
8189.48 522.255 517.911 430.06 431.8
8192.2 542.777 514.467 457.384 420.22
8194.92 478.368 496.341 373.215 407.286
8197.64 467.879 476.271 391.259 386.133
8200.36 482.568 500.333 393.925 408.192
8203.08 550.553 510.723 439.394 411.251
8205.8 499.047 505.707 400.435 416.567
8208.52 467.519 488.398 409.873 406.431
8211.24 498.627 503.981 408.985 410.136
8213.96 545.796 513.588 411.55 416.625
8216.68 496.34 501.342 429.339 407.24
8219.39 461.889 489.308 380.832 406.203
8222.11 509.696 481.345 408.44 387.387
8224.83 472.451 458.074 372.89 363.12
8227.55 392.074 452.942 308.031 361.702
8230.26 494.302 440.113 404.187 352.567
8232.98 433.963 480.107 345.485 380.586
8235.7 512.055 485.556 392.086 376.003
8238.41 510.651 508.69 390.438 389.053
8241.13 503.363 510.094 384.634 387.105
8243.84 516.267 519.49 386.243 393.57
8246.56 538.841 531.138 409.833 412.662
8249.28 538.306 536.82 441.91 426.799
8251.99 533.314 515.409 428.653 397.747
8254.71 474.606 507.166 322.677 380.69
8257.42 513.579 494.571 390.741 365.227
8260.13 495.529 515.763 382.262 395.071
8262.85 538.181 506.082 412.211 392.419
8265.56 484.536 508.678 382.784 395.088
8268.28 503.316 500.659 390.269 391.901
8270.99 514.126 505.919 402.649 397.713
8273.7 500.316 508.498 400.222 401.068
8276.41 511.053 505.383 400.332 380.022
8279.13 504.782 475.861 339.512 363.811
8281.84 411.747 440.357 351.59 305.594
8284.55 404.543 421.722 225.68 299.441
8287.26 448.876 451.056 321.054 289.857
8289.97 499.75 479.365 322.836 313.564
8292.69 489.468 483.823 296.802 323.159
8295.4 462.251 479.942 349.838 354.896
8298.11 488.106 447.693 418.048 320.34
8300.82 392.722 459.914 193.134 321.499
8303.53 498.913 445.974 353.316 302.553
8306.24 446.285 481.129 361.208 365.688
8308.95 498.187 476.376 382.539 355.633
8311.66 484.655 505.838 323.152 371.033
8314.37 534.671 487.44 407.408 364.154
8317.07 442.992 493.737 361.902 376.877
8319.78 503.548 485.183 361.319 363.739
8322.49 509.009 489.957 367.994 359.595
8325.2 457.314 483.697 349.472 355.411
8327.91 484.768 482.937 348.767 364.411
8330.62 506.729 493.956 394.994 368.208
8333.32 490.371 496.141 360.863 364.309
8336.03 491.323 501.678 337.071 342.698
8338.74 523.339 509.953 330.16 330.279
8341.44 515.197 518.006 323.606 333.687
8344.15 515.481 492.599 347.294 319.307
8346.86 447.118 480.447 287.019 308.739
8349.56 478.741 457.842 291.903 320.539
8352.27 447.666 437.479 382.696 324.993
8354.97 386.029 444.908 300.381 353.681
8357.68 501.028 469.8 377.967 366.349
8360.38 522.343 491.361 420.7 367.336
8363.09 450.711 492.964 303.341 352.995
8365.79 505.838 493.59 334.945 329.337
8368.5 524.22 498.31 349.724 350.203
8371.2 464.872 489.816 365.94 353.572
8373.9 480.355 467.591 345.053 351.086
8376.61 457.545 477.824 342.264 368.049
8379.31 495.571 484.967 416.832 360.545
8382.01 501.785 494.742 322.54 359.972
8384.71 486.871 475.708 340.544 327.025
8387.42 438.469 496.273 317.991 352.687
8390.12 563.479 511.955 399.525 373.98
8392.82 533.917 556.581 404.425 392.035
8395.52 572.348 1716.64 372.156 1152.53
8398.22 4043.64 2591.14 2681 1726.67
8400.92 3157.43 2559.79 2126.85 1693.31
8403.62 478.287 1382.77 272.061 910.173
8406.32 512.596 503.668 331.604 323.719
8409.02 520.122 496.483 367.493 338.253
8411.72 456.732 489.878 315.661 331.489
8414.42 492.781 475.992 311.312 321.251
8417.12 478.463 496.223 336.779 328.174
8419.82 517.425 483.854 336.43 329.428
8422.52 455.673 485.318 315.076 321.43
8425.22 482.855 471.591 312.784 302.328
8427.92 476.246 484.069 279.124 295.783
8430.62 493.106 441.198 295.44 280.342
8433.31 354.241 421.884 266.463 275.498
8436.01 418.304 340.186 264.59 237.745
8438.71 248.014 331.603 182.181 227.946
8441.41 328.491 312.061 237.066 232.832
8444.1 359.677 377.842 279.249 269.6
8446.8 445.358 446.155 292.486 295.261
8449.49 533.432 483.466 314.048 314.781
8452.19 471.609 503.538 337.809 320.673
8454.89 505.574 485.805 310.161 317.03
8457.58 480.231 482.215 303.119 315.291
8460.28 460.839 474.688 332.594 318.473
8462.97 482.995 487.77 319.706 327.093
8465.67 519.476 465.679 328.98 302.197
8468.36 394.567 463.074 257.904 297.016
8471.05 475.18 457.784 304.164 297.7
8473.75 503.606 481.762 331.032 307.858
8476.44 466.501 483.314 288.379 310.884
8479.13 479.835 487.884 313.24 317.089
8481.83 517.316 476.305 349.648 306.343
8484.52 431.764 478.032 256.14 310.264
8487.21 485.017 466.496 325.004 298.232
8489.91 482.708 478.815 313.552 319.944
8492.6 468.721 455.449 321.276 302.395
8495.29 414.918 444.647 272.358 282.059
8497.98 450.302 437.763 252.543 252.478
8500.67 448.069 462.598 232.532 263.922
8503.36 489.422 482.692 306.691 253.364
8506.05 510.586 487.453 220.868 258.867
8508.74 462.35 466.072 249.042 257.821
8511.43 425.28 463.574 303.554 282.316
8514.12 503.091 469.622 294.353 294.418
8516.81 480.495 487.388 285.347 296.713
8519.5 478.579 481.845 310.437 297.891
8522.19 486.463 485.315 297.887 298.098
8524.88 490.903 477.091 285.968 297.185
8527.57 453.907 464.148 307.698 290.42
8530.26 447.632 454.997 277.594 299.664
8532.94 463.452 466.054 313.7 306.015
8535.63 487.079 459.286 326.752 306.671
8538.32 427.327 449.366 279.561 295.859
8541.01 433.691 422.892 281.262 262.18
8543.69 407.658 427.637 225.717 253.108
8546.38 441.563 412.554 252.344 256.253
8549.07 388.441 417.46 290.699 288.526
8551.75 422.377 417.628 322.534 317.665
8554.44 442.065 435.092 339.762 337.128
8557.12 440.832 443.314 349.087 347.875
8559.81 447.045 445.853 354.776 337.725
8562.49 449.683 435.148 309.31 316.126
8565.18 408.715 430.034 284.29 303.129
8567.86 431.704 415.988 315.787 283.885
8570.55 407.545 437.33 251.578 295.413
8573.23 472.741 439.079 318.873 293.721
8575.91 436.951 450.558 310.71 309.18
8578.6 441.981 444.717 297.957 306.621
8581.28 455.218 448.444 311.197 287.311
8583.96 448.133 450.22 252.778 285.131
8586.64 447.309 459.75 291.417 285.991
8589.33 483.807 461.048 313.779 303.092
8592.01 452.03 459.086 304.08 305.468
8594.69 441.422 443.083 298.545 297.192
8597.37 435.798 438.392 288.951 310.43
8600.05 437.956 434.894 343.793 304.352
8602.73 430.929 429.116 280.311 309.964
8605.41 418.465 433.893 305.787 288.109
8608.09 452.285 419.358 278.228 285.028
8610.77 387.326 440.754 271.068 289.851
8613.45 482.651 437.146 320.259 288.275
8616.13 441.46 440.959 273.499 274.868
8618.81 398.764 431.028 230.845 262.654
8621.49 452.861 437.564 283.617 253.452
8624.17 461.068 454.105 245.894 280.164
8626.85 448.386 452.556 310.981 285.03
8629.53 448.215 468.422 298.216 299.643
8632.2 508.666 444.055 289.732 299.046
8634.88 375.284 440.866 309.19 271.702
8637.56 438.649 421.66 216.183 265.177
8640.24 451.049 437.11 270.158 259.023
8642.91 421.633 436.302 290.727 281.175
8645.59 436.225 418.344 282.642 292.628
8648.26 397.172 421.839 304.517 298.633
8650.94 432.121 398.936 308.74 307.446
8653.62 367.516 425.473 309.082 283.505
8656.29 476.781 413.255 232.692 257.297
8658.97 395.468 418.033 230.117 254.932
8661.64 381.851 396.51 301.987 257.408
8664.32 412.212 398.443 240.121 258.572
8666.99 401.265 440.247 233.609 247.938
8669.66 507.263 438.137 270.085 263.956
8672.34 405.881 434.762 288.175 282.652
8675.01 391.142 401.404 289.697 283.895
8677.68 407.19 408.257 273.813 275.832
8680.36 426.44 434.375 263.987 269.708
8683.03 469.494 434.076 271.325 270.873
8685.7 406.293 441.555 277.308 274.762
8688.37 448.879 427.791 275.652 266.176
8691.04 428.202 431.861 245.567 261.829
8693.72 418.502 435.782 264.268 260.378
8696.39 460.641 451.145 271.297 268.306
8699.06 474.291 441.527 269.352 271.881
8701.73 389.647 434.415 274.993 263.147
8704.4 439.306 424.641 245.097 261.786
8707.07 444.97 437.188 265.268 263.38
8709.74 427.289 439.334 279.775 275.465
8712.41 445.741 433.063 281.354 273.183
8715.08 426.158 449.979 258.42 270.076
8717.75 478.038 449.282 270.453 262.319
8720.41 443.651 448.689 258.083 261.444
8723.08 424.377 456.333 255.797 267.409
8725.75 500.972 452.049 288.346 271.385
8728.42 430.799 460.867 270.011 270.124
8731.09 450.831 444.228 252.015 257.774
8733.75 451.054 459.34 251.295 269.946
8736.42 476.135 454.608 306.529 278.666
8739.09 436.636 454.506 278.175 278.289
8741.75 450.746 441.006 250.164 256.053
8744.42 435.636 466.923 239.821 261.828
8747.08 514.386 460.711 295.498 260.037
8749.75 432.112 460.644 244.791 267.035
8752.41 435.435 464.939 260.815 271.493
8755.08 527.272 483.774 308.873 297.176
8757.74 488.617 478.573 321.841 277.841
8760.41 419.83 440.592 202.81 264.887
8763.07 413.331 411.861 270.01 224.28
8765.74 402.423 408.186 200.02 198.778
8768.4 408.803 414.491 126.306 208.912
8771.06 432.247 403.288 300.411 217.879
8773.73 368.816 436.9 226.921 265.919
8776.39 509.638 442.282 270.425 242.824
8779.05 448.393 465.289 231.126 227.427
8781.71 437.838 438.047 180.73 214.18
8784.37 427.91 436.238 230.685 205.411
8787.04 442.966 426.096 204.818 235.984
8789.7 407.411 418.568 272.451 242.7
8792.36 405.327 410.436 250.833 246.17
8795.02 418.569 398.06 215.227 215.172
8797.68 370.283 405.211 179.455 211.635
8800.34 426.78 423.2 240.222 223.114
8803 472.536 445.183 249.665 226.987
8805.66 436.232 443.295 191.076 229.297
8808.32 421.116 415.334 247.15 217.383
8810.98 388.654 421.055 213.923 238.22
8813.63 453.395 428.149 253.588 240.648
8816.29 442.397 447.322 254.432 253.616
8818.95 446.174 443.068 252.827 285.474
8821.61 440.632 459.109 349.162 286.444
8824.27 490.523 507.341 257.343 317.985
8826.92 590.869 476.607 347.449 250.621
8829.58 348.431 432.75 147.072 228.395
8832.24 358.95 392.168 190.664 152.625
8834.89 469.123 406.404 120.138 137.234
8837.55 391.139 430.97 100.901 131.564
8840.2 432.648 409.088 173.652 150.305
8842.86 403.475 414.432 176.363 186.665
8845.51 407.172 429.163 209.98 208.626
8848.17 476.843 424.667 239.535 232.147
8850.82 389.987 428.433 246.926 230.574
8853.48 418.468 425.047 205.262 221.448
8856.13 466.686 444.185 212.157 203.706
8858.78 447.401 433.985 193.7 207.153
8861.44 387.866 422.622 215.602 220.841
8864.09 432.597 413.745 253.22 235.182
8866.74 420.77 429.316 236.723 241.242
8869.4 434.58 437.898 233.784 226.044
8872.05 458.345 423.816 207.626 184.338
8874.7 378.522 432.042 111.605 175.186
8877.35 459.258 431.748 206.326 178.521
8880 457.465 460.686 217.631 245.563
8882.65 465.335 442.453 312.732 241.094
8885.3 404.557 431.401 192.919 230.982
8887.96 424.311 419.706 187.295 193.393
8890.61 430.25 403.053 199.966 150.321
8893.25 354.596 396.015 63.7018 141.558
8895.9 403.199 383.365 161.007 129.86
8898.55 392.301 403.529 164.871 202.646
8901.2 415.088 416.457 282.061 217.903
8903.85 441.982 393.419 206.778 204.688
8906.5 323.188 388.916 125.224 186.869
8909.15 401.577 393.704 228.606 176.727
8911.8 456.345 438.561 176.35 203.556
8914.44 457.76 446.332 205.712 203.035
8917.09 424.892 445.487 227.044 229.21
8919.74 453.808 448.82 254.873 213.832
8922.38 467.762 414.18 159.578 154.45
8925.03 320.971 377.017 48.898 91.5638
8927.68 342.319 349.28 66.2155 67.9994
8930.32 384.551 378.159 88.8846 97.0738
8932.97 407.607 403.255 136.121 139.942
8935.61 417.607 420.794 194.821 174.522
8938.26 437.168 422.513 192.623 204.682
8940.9 412.764 428.282 226.602 187.01
8943.54 434.915 415.71 141.804 188.312
8946.19 399.449 411.414 196.529 176.061
8948.83 399.876 375.972 189.849 180.044
8951.48 328.59 385.822 153.753 165.599
8954.12 429 414.439 153.196 167.169
8956.76 485.725 457.281 194.559 178.589
8959.4 457.118 437.819 188.012 167.836
8962.05 370.613 403.404 120.936 117.482
8964.69 382.482 373.206 43.4969 85.5308
8967.33 366.523 365.762 92.1593 80.5873
8969.97 348.282 366.193 106.106 110.302
8972.61 383.774 370.175 132.641 134.13
8975.25 378.47 405.171 163.642 150.325
8977.89 453.268 410.406 154.692 166.247
8980.53 399.481 408.732 180.407 171.954
8983.17 373.448 391.07 180.765 192.952
8985.81 400.283 374.146 217.686 186.637
8988.45 348.706 366.901 161.46 197.917
8991.09 351.714 331.063 214.604 192.154
8993.73 292.767 337.18 200.399 170.688
8996.36 367.058 356.213 97.0602 158.214
8999 408.816 382.189 177.183 148.554
9001.64 370.694 382.477 171.419 142.54
9004.28 367.922 364.33 79.0185 127.398
9006.91 354.373 346.503 131.758 113.847
9009.55 317.213 361.403 130.764 133.704
9012.19 412.624 357.066 138.589 135.475
9014.82 341.36 375.438 137.074 151.255
9017.46 372.329 362.713 178.103 159.594
9020.09 374.449 378.937 163.606 164.383
9022.73 390.033 380.106 151.439 158.092
9025.36 375.836 382.344 159.232 155.38
9028 381.162 379.146 155.469 148.477
9030.63 380.439 389.172 130.73 153.742
9033.27 405.915 393.529 175.026 159.11
9035.9 394.232 404.265 171.575 175.997
9038.53 412.649 409.948 181.389 181.492
9041.17 422.964 402.56 191.514 178.351
9043.8 372.067 407.871 162.152 177.736
9046.43 428.582 398.033 179.542 168.494
9049.06 393.449 388.025 163.788 159.901
9051.7 342.045 366.358 136.375 160.56
9054.33 363.579 362.52 181.518 136.627
9056.96 381.937 362.183 91.9891 132.845
9059.59 341.033 369.61 125.029 125.83
9062.22 385.858 369.407 160.471 154.888
9064.85 381.331 376.653 179.164 162.827
9067.48 362.77 339.381 148.845 135.494
9070.11 274.041 279.401 78.4735 100.866
9072.74 201.393 158.478 75.2782 51.2506
