wavelength spectrum_sum 3smoothed_sum spectrum_optimal 3smoothed_optimal
3507.46 32.2714 31.8288 16.7844 17.4985
3510.38 63.215 61.3803 35.711 41.2792
3513.3 88.6544 71.7979 71.3421 49.784
3516.22 63.5242 74.5727 42.2989 53.7837
3519.14 71.5397 62.6953 47.7102 44.5521
3522.06 53.0222 56.7377 43.6473 38.1193
3524.98 45.6514 51.9753 23.0004 35.5861
3527.9 57.2524 62.6926 40.1105 39.4924
3530.82 85.1741 66.7791 55.3661 42.9083
3533.74 57.9108 74.5346 33.2481 49.1688
3536.66 80.519 77.275 58.8921 51.4872
3539.58 93.3952 83.0244 62.3213 59.8446
3542.5 75.159 84.2362 58.3204 63.433
3545.42 84.1545 90.655 69.6574 69.9162
3548.34 112.651 95.4682 81.7709 69.4194
3551.26 89.5987 94.009 56.8299 69.2485
3554.18 79.777 86.2658 69.1448 69.013
3557.1 89.4216 90.4017 81.0644 68.9304
3560.02 102.007 95.2984 56.5821 65.6053
3562.94 94.467 89.3866 59.1693 56.9982
3565.86 71.6862 80.8556 55.2433 55.5343
3568.78 76.4136 74.5866 52.1903 56.2052
3571.7 75.6598 75.4115 61.1819 58.1712
3574.62 74.1609 79.859 61.1413 60.4358
3577.54 89.7562 78.4964 58.9842 52.5231
3580.46 71.5722 73.2278 37.4438 50.8358
3583.38 58.3551 69.9244 56.0795 48.6062
3586.3 79.8458 70.3997 52.2952 59.6284
3589.22 72.998 84.2858 70.5104 69.7391
3592.14 100.014 94.5284 86.4118 83.1126
3595.06 110.573 105.544 92.4155 87.2631
3597.98 106.045 103.461 82.962 80.1065
3600.9 93.7644 96.1821 64.9421 73.9334
3603.82 88.7374 86.2587 73.8961 64.4676
3606.74 76.2745 88.7903 54.5648 66.7283
3609.66 101.359 97.1344 71.7241 72.1569
3612.58 113.77 103.742 90.1819 80.1811
3615.49 96.0977 104.507 78.6373 80.504
3618.41 103.653 109.991 72.6929 87.834
3621.33 130.221 119.817 112.172 96.3515
3624.25 125.576 134.02 104.19 117.974
3627.17 146.262 132.859 137.559 114.331
3630.09 126.739 133.186 101.243 113.131
3633.01 126.556 138.767 100.59 113.949
3635.93 163.005 135.572 140.014 111.012
3638.85 117.155 131.866 92.4327 104.835
3641.77 115.437 117.528 82.057 90.9808
3644.69 119.993 122.093 98.4526 94.3981
3647.61 130.85 131.806 102.685 102.823
3650.53 144.575 136.769 107.33 105.453
3653.45 134.882 136.613 106.345 110.857
3656.36 130.383 134.141 118.895 117.497
3659.28 137.157 135.38 127.251 121.95
3662.2 138.6 138.969 119.703 119.453
3665.12 141.151 143.751 111.406 112.679
3668.04 151.503 133.707 106.928 108.593
3670.96 108.468 135.091 107.444 116.035
3673.88 145.303 136.728 133.733 122.351
3676.8 156.414 140.491 125.876 125.141
3679.72 119.755 138.157 115.816 111.542
3682.64 138.301 139.087 92.9357 107.234
3685.55 159.205 146.875 112.949 108.774
3688.47 143.117 148.616 120.437 118.817
3691.39 143.527 143.158 123.064 126.149
3694.31 142.83 145.068 134.944 125.961
3697.23 148.848 142.572 119.874 121.976
3700.15 136.039 146.811 111.11 116.211
3703.07 155.546 157.556 117.649 123.951
3705.99 181.082 176.721 143.093 138.131
3708.9 193.536 187.53 153.652 151.306
3711.82 187.971 176.755 157.174 140.757
3714.74 148.757 170.808 111.446 134.492
3717.66 175.696 168.754 134.856 127.866
3720.58 181.81 163.665 137.297 136.718
3723.5 133.49 153.385 138.003 130.796
3726.42 144.856 158.075 117.088 135.396
3729.33 195.879 161.192 151.098 137.344
3732.25 142.839 174.033 143.847 147.051
3735.17 183.381 156.145 146.208 137.65
3738.09 142.216 171.651 122.894 140.929
3741.01 189.356 172.549 153.685 139.953
3743.93 186.075 181.381 143.279 146.847
3746.84 168.711 182.865 143.577 153.581
3749.76 193.808 187.64 173.887 160.76
3752.68 200.402 185.493 164.816 162.916
3755.6 162.268 190.208 150.044 159.311
3758.52 207.954 196.75 163.073 163.06
3761.44 220.028 207.776 176.062 160.456
3764.35 195.348 202.822 142.233 160.683
3767.27 193.091 205.409 163.753 167.501
3770.19 227.788 209.798 196.518 180.601
3773.11 208.516 221.377 181.532 193.162
3776.03 227.827 224.337 201.436 187.993
3778.94 236.668 234.531 181.011 198.788
3781.86 239.096 250.699 213.916 210.891
3784.78 276.332 245.183 237.745 211.975
3787.7 220.121 239.291 184.264 202.941
3790.62 221.418 219.407 186.815 189.588
3793.53 216.683 225.249 197.685 192.887
3796.45 237.645 229.648 194.161 205.428
3799.37 234.616 247.536 224.438 219.288
3802.29 270.347 252.479 239.265 220.503
3805.2 252.473 256.299 197.806 217.952
3808.12 246.076 260.309 216.784 221.845
3811.04 282.377 270.375 250.945 235.945
3813.96 282.673 279.319 240.105 245.222
3816.87 272.907 271.973 244.615 229.488
3819.79 260.341 260.945 203.743 216.307
3822.71 249.587 252.258 200.564 202.538
3825.63 246.845 237.47 203.306 195.86
3828.54 215.978 226.014 183.709 186.95
3831.46 215.219 220.127 173.835 184.751
3834.38 229.184 228.068 196.71 195.776
3837.3 239.802 246.351 216.784 211.241
3840.21 270.067 267.527 220.229 227.466
3843.13 292.712 286.033 245.386 238.998
3846.05 295.321 286.704 251.379 250.126
3848.97 272.078 286.803 253.612 250.222
3851.88 293.011 270.771 245.674 229.607
3854.8 247.224 275.67 189.534 227.008
3857.72 286.775 268.42 245.816 218.181
3860.63 271.261 283.324 219.193 238.791
3863.55 291.935 280.437 251.366 234.787
3866.47 278.116 289.695 233.803 244.511
3869.39 299.033 283.806 248.363 235.491
3872.3 274.269 279.768 224.308 234.023
3875.22 266.004 283.929 229.399 231.5
3878.14 311.515 282.511 240.792 231.726
3881.05 270.014 269.744 224.988 220.548
3883.97 227.702 273.963 195.864 225.632
3886.89 324.173 277.533 256.043 231.426
3889.8 280.725 302.284 242.37 250.886
3892.72 301.954 297.879 254.243 245.244
3895.64 310.959 312.513 239.119 255.275
3898.55 324.627 312.383 272.463 256.36
3901.47 301.563 323.05 257.497 281.994
3904.39 342.959 320.306 316.021 289.693
3907.3 316.395 337.557 295.561 305.195
3910.22 353.318 342.177 304.004 298.094
3913.14 356.818 343.488 294.717 288.694
3916.05 320.327 323.588 267.36 277.257
3918.97 293.619 298.973 269.694 263.208
3921.89 282.973 293.062 252.569 261.252
3924.8 302.595 289.32 261.494 248.223
3927.72 282.393 285.471 230.608 235.6
3930.64 271.426 266.47 214.7 212.371
3933.55 245.591 271.014 191.806 219.623
3936.47 296.026 273.578 252.363 220.987
3939.38 279.118 298.633 218.791 257.749
3942.3 320.755 303.097 302.092 259.257
3945.22 309.418 317.863 256.887 279.105
3948.13 323.416 324.792 278.334 275.995
3951.05 341.542 333.464 292.764 296.637
3953.97 335.434 328.303 318.814 288.141
3956.88 307.933 315.584 252.845 274.894
3959.8 303.385 289.62 253.023 238.889
3962.71 257.544 277.363 210.8 224.896
3965.63 271.16 271.606 210.864 224.768
3968.54 286.113 289.807 252.64 241.662
3971.46 312.146 322.313 261.481 278.515
3974.38 368.68 346.978 321.425 295.017
3977.29 360.108 364.511 302.147 310.473
3980.21 364.745 368.042 307.848 320.235
3983.12 379.275 396.715 350.711 355.44
3986.04 446.126 420.426 407.761 372.787
3988.95 435.878 451.877 359.888 393.914
3991.87 473.628 479.922 414.092 413.014
3994.79 530.261 499.054 465.063 417.638
3997.7 493.272 494.616 373.759 401.009
4000.62 460.316 465.157 364.207 376.932
4003.53 441.882 463.979 392.83 393.131
4006.45 489.737 475.664 422.355 404.013
4009.36 495.372 486.84 396.854 416.006
4012.28 475.409 487.211 428.809 422.569
4015.19 490.851 490.646 442.043 436.135
4018.11 505.679 504.361 437.552 440.81
4021.02 516.552 512.449 442.834 439.344
4023.94 515.115 522.737 437.646 440.801
4026.85 536.542 535.823 441.924 454.903
4029.77 555.812 537.111 485.139 471.979
4032.68 518.978 521.057 488.874 467.071
4035.6 488.38 523.845 427.2 470.393
4038.51 564.176 492.754 495.106 437.488
4041.43 425.707 501.212 390.158 444.262
4044.34 513.753 511.124 447.522 441.452
4047.26 593.913 535.615 486.677 470.794
4050.17 499.177 553.541 478.184 489.705
4053.09 567.532 532.947 504.254 474.204
4056 532.131 564.171 440.174 480.83
4058.92 592.851 537.85 498.061 463.333
4061.83 488.567 546.551 451.765 482.61
4064.75 558.234 525.065 498.004 479.873
4067.66 528.395 537.046 489.85 483.209
4070.58 524.51 526.458 461.774 475.775
4073.49 526.468 515.883 475.7 463.938
4076.41 496.672 515.317 454.339 459.846
4079.32 522.809 523.836 449.5 461.41
4082.23 552.028 527.666 480.39 464.449
4085.15 508.162 563.554 463.456 486.365
4088.06 630.472 593.24 515.25 514.735
4090.98 641.085 615.428 565.499 533.534
4093.89 574.726 611.105 519.852 532.764
4096.81 617.505 583.538 512.941 520.197
4099.72 558.383 593.303 527.798 522.585
4102.63 604.022 573.225 527.017 508
4105.55 557.271 591.354 469.185 509.389
4108.46 612.77 598.771 531.965 511.035
4111.38 626.271 597.627 531.955 509.148
4114.29 553.839 581.172 463.523 494.182
4117.2 563.407 586.363 487.069 514.265
4120.12 641.842 616.141 592.202 554.222
4123.03 643.174 643.501 583.397 583.121
4125.95 645.487 624.565 573.764 550.608
4128.86 585.034 622.438 494.664 551.833
4131.77 636.794 628.489 587.07 563.161
4134.69 663.639 654.967 607.75 598.055
4137.6 664.469 652.479 599.345 587.2
4140.51 629.33 659.908 554.505 584.363
4143.43 685.925 657.651 599.24 586.915
4146.34 657.7 657.086 606.999 580.038
4149.25 627.633 656.22 533.877 589.871
4152.17 683.327 660.697 628.739 581.903
4155.08 671.131 671.93 583.093 598.055
4157.99 661.333 683.306 582.334 592.882
4160.91 717.453 676.926 613.219 601.16
4163.82 651.992 663.176 607.928 593.192
4166.73 620.082 662.623 558.43 593.617
4169.65 715.794 679.432 614.493 591.75
4172.56 702.419 721.057 602.328 604.82
4175.47 744.959 696.939 597.639 586.232
4178.39 643.439 675.809 558.73 577.38
4181.3 639.027 641.741 575.771 564.203
4184.21 642.756 642.767 558.107 568.807
4187.12 646.518 682.211 572.544 592.658
4190.04 757.358 703.997 647.323 604.926
4192.95 708.114 715.957 594.912 603.729
4195.86 682.399 687.614 568.952 595.688
4198.78 672.328 682.606 623.199 600.484
4201.69 693.091 681.505 609.3 600.484
4204.6 679.096 702.493 568.953 613.978
4207.51 735.29 688.058 663.682 597.3
4210.43 649.787 711.322 559.267 626.042
4213.34 748.887 676.902 655.177 603.653
4216.25 632.032 720.59 596.514 647.562
4219.16 780.85 698.284 690.996 618.851
4222.08 681.969 704.411 569.042 615.159
4224.99 650.412 683.231 585.439 590.054
4227.9 717.312 692.077 615.683 602.806
4230.81 708.507 735.887 607.296 638.71
4233.72 781.842 721.82 693.152 634.095
4236.64 675.111 740.347 601.836 664.065
4239.55 764.089 694.747 697.207 620.426
4242.46 645.041 684.525 562.234 613.864
4245.37 644.445 688.829 582.152 608.552
4248.29 777.003 748.561 681.27 651.805
4251.2 824.234 767.778 691.992 669.11
4254.11 702.097 755.275 634.069 659.471
4257.02 739.495 724.784 652.353 653.11
4259.93 732.76 748.43 672.908 668.911
4262.84 773.036 742.811 681.472 665.103
4265.76 722.637 745.035 640.929 650.735
4268.67 739.433 730.129 629.805 640.565
4271.58 728.317 727.895 650.961 633.219
4274.49 715.935 755.796 618.893 656.678
4277.4 823.136 764.732 700.18 669.624
4280.31 755.124 754.953 689.798 676.666
4283.22 686.599 710.167 640.02 651.233
4286.14 688.779 705.37 623.881 628.664
4289.05 740.732 714.137 622.091 622.584
4291.96 712.9 706.36 621.78 611.621
4294.87 665.449 682.942 590.992 592.848
4297.78 670.478 674.776 565.773 588.141
4300.69 688.402 656.192 607.659 562.727
4303.6 609.696 651.194 514.749 565.986
4306.51 655.485 642.77 575.551 554.454
4309.42 663.131 676.975 573.062 607.218
4312.34 712.31 723.739 673.041 639.27
4315.25 795.777 755.196 671.706 672.659
4318.16 757.502 756.991 673.229 658.019
4321.07 717.695 750.369 629.122 660.316
4323.98 775.911 769.555 678.596 685.979
4326.89 815.061 803.376 750.218 708.092
4329.8 819.157 810.386 695.462 713.1
4332.71 796.938 794.446 693.619 695.165
4335.62 767.244 810.295 696.413 723.818
4338.53 866.703 835.395 781.42 757.506
4341.44 872.237 866.451 794.684 777.933
4344.35 860.412 867.45 757.694 780.492
4347.26 869.699 857.197 789.099 779.674
4350.17 841.48 860.127 792.229 793.28
4353.08 869.202 859.997 798.512 783.928
4355.99 869.309 846.404 761.042 759.287
4358.9 800.7 844.406 718.306 757.283
4361.81 863.21 820.987 792.501 756.623
4364.72 799.051 845.684 759.061 794.653
4367.63 874.791 839.386 832.397 797.086
4370.54 844.318 855.089 799.8 801.336
4373.45 846.157 840.795 771.812 768.09
4376.36 831.91 836.989 732.659 765.776
4379.27 832.9 822.065 792.857 726.892
4382.18 801.383 834.524 655.16 749.816
4385.09 869.288 857.264 801.431 757.476
4388 901.122 876.354 815.837 793.164
4390.91 858.653 884.444 762.223 806.15
4393.82 893.558 901.417 840.39 820.204
4396.73 952.04 923.329 857.998 824.681
4399.64 924.388 907.977 775.655 804.552
4402.55 847.504 893.776 780.004 801.215
4405.46 909.435 912.791 847.986 863.478
4408.37 981.433 956.534 962.444 897.045
4411.28 978.734 964.666 880.705 907.336
4414.19 933.832 961.78 878.857 873.814
4417.09 972.775 948.483 861.879 884.719
4420 938.843 947.46 913.423 865.438
4422.91 930.762 947.247 821.011 882.398
4425.82 972.137 969.398 912.761 891.569
4428.73 1005.3 963.077 940.935 899.761
4431.64 911.797 975.79 845.585 904.749
4434.55 1010.28 972.033 927.725 897.369
4437.46 994.025 986.07 918.797 922.4
4440.37 953.908 984.959 920.676 931.306
4443.27 1006.94 994.984 954.443 942.716
4446.18 1024.1 1034.67 953.029 961.91
4449.09 1072.96 1046.38 978.257 959.171
4452 1042.07 1052.21 946.226 964.038
4454.91 1041.61 1024.69 967.63 943.361
4457.82 990.381 1019.86 916.227 941.164
4460.72 1027.59 1006.63 939.635 919.799
4463.63 1001.92 1015.44 903.534 930.987
4466.54 1016.8 1009.99 949.791 926.168
4469.45 1011.26 1029.92 925.179 933.406
4472.36 1061.69 1038.21 925.247 932.717
4475.27 1041.66 1058.7 947.725 946.653
4478.17 1072.75 1049.8 966.986 936.763
4481.08 1034.99 1034.41 895.577 926.886
4483.99 995.495 1052.3 918.094 935.67
4486.9 1126.42 1070.19 993.338 960.369
4489.8 1088.65 1079.32 969.675 960.62
4492.71 1022.9 1062.91 918.846 934.023
4495.62 1077.17 1075.78 913.547 951.142
4498.53 1127.26 1133.18 1021.03 997.571
4501.43 1195.11 1161.42 1058.13 1043.88
4504.34 1161.89 1158.71 1052.49 1041.78
4507.25 1119.13 1116.87 1014.7 1001.41
4510.16 1069.6 1101.67 937.047 981.491
4513.06 1116.28 1112.43 992.724 970.537
4515.97 1151.4 1138.59 981.84 978.49
4518.88 1148.1 1108.97 960.906 921.498
4521.79 1027.41 1085.95 821.747 915.625
4524.69 1082.35 1068.86 964.22 888.567
4527.6 1096.82 1083.32 879.733 930.692
4530.51 1070.78 1079.52 948.124 916.685
4533.41 1070.96 1075.61 922.199 948.157
4536.32 1085.07 1086.88 974.147 964.487
4539.23 1104.62 1094.91 997.116 950.538
4542.13 1095.05 1112.51 880.352 953.732
4545.04 1137.85 1116.28 983.728 950.496
4547.95 1115.96 1132.39 987.408 1007.84
4550.85 1143.38 1142.34 1052.38 1035.68
4553.76 1167.68 1166.35 1067.26 1069.76
4556.67 1187.99 1160.15 1089.64 1063.89
4559.57 1124.78 1148.33 1034.77 1054.09
4562.48 1132.24 1147.42 1037.88 1043.99
4565.39 1185.25 1172.8 1059.32 1049.61
4568.29 1200.91 1216.24 1051.62 1097.88
4571.2 1262.57 1210.36 1182.68 1105.45
4574.1 1167.61 1188.55 1082.03 1103.61
4577.01 1135.47 1187.26 1046.12 1084.09
4579.92 1258.71 1193.77 1124.13 1082.19
4582.82 1187.12 1222.09 1076.33 1099.95
4585.73 1220.44 1189.57 1099.37 1071.66
4588.63 1161.16 1171.3 1039.27 1061.33
4591.54 1132.31 1174.46 1045.36 1083.97
4594.45 1229.92 1168.45 1167.28 1067.7
4597.35 1143.12 1175.09 990.46 1082.55
4600.26 1152.23 1199.35 1089.91 1107.69
4603.16 1302.7 1251.83 1242.7 1179.9
4606.07 1300.56 1303.45 1207.09 1197.16
4608.97 1307.09 1306.48 1141.69 1195.56
4611.88 1311.8 1310.21 1237.91 1206.5
4614.78 1311.72 1254.1 1239.9 1196.9
4617.69 1138.76 1237.52 1112.88 1160.95
4620.59 1262.09 1224.91 1130.05 1129.75
4623.5 1273.88 1288.63 1146.32 1177.44
4626.4 1329.93 1291.45 1255.94 1174.43
4629.31 1270.55 1292.05 1121.03 1167.24
4632.21 1275.67 1246.72 1124.74 1119.93
4635.12 1193.96 1220.9 1114.04 1123.36
4638.02 1193.08 1180.12 1131.3 1122.75
4640.93 1153.32 1204.11 1122.9 1137.47
4643.83 1265.94 1230.88 1158.22 1164.2
4646.74 1273.39 1257.46 1211.48 1174.07
4649.64 1233.04 1258.1 1152.51 1188.69
4652.55 1267.88 1253.48 1202.09 1192.18
4655.45 1259.52 1279.3 1221.95 1221.05
4658.35 1310.51 1298.37 1239.11 1232.69
4661.26 1325.08 1297.36 1237.01 1226.05
4664.16 1256.5 1281.43 1202.04 1211
4667.07 1262.72 1277.52 1193.96 1214.41
4669.97 1313.35 1271.35 1247.23 1185.05
4672.88 1237.98 1280.8 1113.94 1204.24
4675.78 1291.07 1246.97 1251.54 1178.17
4678.68 1211.87 1281.61 1169.01 1231.19
4681.59 1341.88 1309.34 1273.03 1243.45
4684.49 1374.27 1339.84 1288.32 1270.53
4687.39 1303.36 1334.69 1250.25 1266.79
4690.3 1326.44 1324.81 1261.79 1242.31
4693.2 1344.62 1301.79 1214.88 1220.22
4696.11 1234.3 1208.83 1184 1190.33
4699.01 1047.57 1167 1172.11 1194.87
4701.91 1219.11 1150.35 1228.51 1198.35
4704.82 1184.37 1229.81 1194.42 1240.94
4707.72 1285.95 1252.72 1299.9 1259.84
4710.62 1287.83 1251.91 1285.19 1264.8
4713.53 1181.96 1231.67 1209.29 1246.46
4716.43 1225.22 1243.82 1244.89 1269.9
4719.33 1324.28 1266.49 1355.52 1262.4
4722.23 1249.98 1255.34 1186.8 1287.66
4725.14 1191.75 1193.95 1320.64 1262.88
4728.04 1140.12 1157.81 1281.18 1280.62
4730.94 1141.57 1178.03 1240.04 1264.06
4733.85 1252.41 1197.01 1270.95 1270.9
4736.75 1197.06 1229.61 1301.71 1288.58
4739.65 1239.35 1237.12 1293.07 1297.83
4742.55 1274.95 1267.59 1298.7 1293.75
4745.46 1288.47 1261.64 1289.49 1320.94
4748.36 1221.49 1263.73 1374.64 1332.68
4751.26 1281.23 1244.62 1333.9 1339.6
4754.16 1231.15 1273.05 1310.25 1334.37
4757.06 1306.78 1266.09 1358.97 1329.53
4759.97 1260.34 1302.65 1319.36 1337.43
4762.87 1340.82 1294.88 1333.97 1337.63
4765.77 1283.48 1280.38 1359.56 1303.47
4768.67 1216.83 1263.8 1216.89 1307.32
4771.57 1291.08 1247.09 1345.51 1302.65
4774.48 1233.36 1282.15 1345.54 1347.51
4777.38 1322 1290.11 1351.48 1362.79
4780.28 1314.96 1312.45 1391.33 1360.98
4783.18 1300.38 1308.74 1340.13 1353.73
4786.08 1310.88 1283.54 1329.74 1324.65
4788.98 1239.36 1296.64 1304.08 1331.7
4791.89 1339.7 1296.01 1361.28 1322.58
4794.79 1308.98 1319.47 1302.36 1336.7
4797.69 1309.71 1290.63 1346.47 1295.04
4800.59 1253.21 1283.15 1236.28 1300.41
4803.49 1286.55 1258.41 1318.47 1305.67
4806.39 1235.49 1264.07 1362.27 1328.39
4809.29 1270.18 1236.25 1304.41 1334.44
4812.19 1203.09 1239.04 1336.63 1332.27
4815.09 1243.85 1250.84 1355.78 1346.46
4817.99 1305.58 1278.55 1346.98 1346.82
4820.9 1286.21 1334.66 1337.71 1375.24
4823.8 1412.2 1319.67 1441.03 1382.19
4826.7 1260.6 1322.46 1367.82 1378.01
4829.6 1294.58 1297.4 1325.17 1347.3
4832.5 1337.02 1277.84 1348.92 1336.9
4835.4 1201.92 1295.38 1336.62 1360.84
4838.3 1347.19 1298.04 1396.99 1374.32
4841.2 1345.02 1329.26 1389.36 1386.4
4844.1 1295.58 1310.64 1372.86 1394.85
4847 1291.33 1288.65 1422.34 1370.97
4849.9 1279.03 1302.98 1317.71 1381.84
4852.8 1338.58 1273.18 1405.48 1313.47
4855.7 1201.94 1250.73 1217.23 1292.82
4858.6 1211.68 1160.05 1255.75 1214.81
4861.5 1066.52 1173.57 1171.47 1223.65
4864.4 1242.5 1194.04 1243.72 1241.45
4867.3 1273.09 1254.36 1309.14 1278.03
4870.2 1247.5 1216.72 1281.22 1268.45
4873.1 1129.57 1218.92 1215 1284.67
4876 1279.69 1213.28 1357.8 1316.92
4878.89 1230.59 1272.19 1377.96 1368.08
4881.79 1306.27 1269.19 1368.5 1357.64
4884.69 1270.7 1293.28 1326.45 1353.32
4887.59 1302.88 1301.21 1365 1359.03
4890.49 1330.04 1341.82 1385.63 1402.22
4893.39 1392.53 1317.67 1456.02 1397.74
4896.29 1230.43 1327.15 1351.57 1400.61
4899.19 1358.49 1244.95 1394.24 1344.99
4902.09 1145.94 1284.6 1289.17 1366.88
4904.99 1349.36 1270.42 1417.23 1348.96
4907.88 1315.97 1309.74 1340.49 1389.73
4910.78 1263.9 1317.73 1411.47 1398.75
4913.68 1373.33 1320.68 1444.3 1426.08
4916.58 1324.79 1339.59 1422.47 1425.23
4919.48 1320.65 1317.5 1408.91 1425.62
4922.38 1307.07 1315.26 1445.47 1403.45
4925.27 1318.06 1292.7 1355.97 1397.95
4928.17 1252.97 1308.12 1392.4 1382.23
4931.07 1353.34 1321.33 1398.33 1399.16
4933.97 1357.68 1368.79 1406.74 1424.69
4936.87 1395.37 1367.02 1469 1424.35
4939.76 1348.02 1388.24 1397.31 1452.42
4942.66 1421.35 1362.84 1490.96 1397.88
4945.56 1319.15 1398.17 1305.38 1442.19
4948.46 1454.03 1382.86 1530.22 1416.04
4951.35 1375.41 1335.79 1412.5 1412.89
4954.25 1177.94 1309.27 1295.94 1390.93
4957.15 1374.45 1358.04 1464.36 1453.16
4960.05 1521.72 1455.21 1599.2 1530.66
4962.94 1469.46 1462.76 1528.42 1547.8
4965.84 1397.1 1414.86 1515.78 1488.43
4968.74 1378 1351.69 1421.1 1450.09
4971.63 1279.97 1343.41 1413.38 1407.86
4974.53 1372.26 1349.64 1389.09 1402.81
4977.43 1396.7 1352.45 1405.95 1411.24
4980.32 1288.4 1372.84 1438.68 1460.68
4983.22 1433.42 1333.69 1537.42 1473.31
4986.12 1279.26 1340.66 1443.82 1482.23
4989.01 1309.3 1304.97 1465.46 1458.8
4991.91 1326.35 1329.53 1467.12 1451.97
4994.81 1352.94 1366.8 1423.34 1471.33
4997.7 1421.11 1395.97 1523.51 1483.77
5000.6 1413.87 1417.69 1504.45 1499.96
5003.5 1418.08 1400.04 1471.91 1471.5
5006.39 1368.17 1392.36 1438.13 1461.13
5009.29 1390.82 1378.41 1473.35 1462.83
5012.18 1376.23 1393.9 1477.01 1485.67
5015.08 1414.65 1387.7 1506.66 1486.03
5017.98 1372.21 1389.52 1474.42 1474.96
5020.87 1381.68 1369.16 1443.82 1465.25
5023.77 1353.58 1400.1 1477.51 1491.18
5026.66 1465.03 1417.24 1552.21 1512.88
5029.56 1433.12 1408.9 1508.91 1493.03
5032.45 1328.55 1382.52 1417.97 1464.57
5035.35 1385.9 1383.36 1466.82 1477.98
5038.24 1435.62 1421.4 1549.16 1518.67
5041.14 1442.7 1394.26 1540.03 1517.84
5044.03 1304.47 1402.05 1464.35 1512.95
5046.93 1458.99 1356.07 1534.47 1503.27
5049.82 1304.75 1412.38 1511 1536.36
5052.72 1473.4 1370.28 1563.61 1535.4
5055.61 1332.7 1429.35 1531.6 1546.86
5058.51 1481.94 1429.74 1545.36 1534.03
5061.4 1474.56 1501.65 1525.13 1571.9
5064.3 1548.44 1501.6 1645.21 1591.69
5067.19 1481.79 1500.33 1604.73 1610.98
5070.09 1470.75 1454.93 1582.99 1559.82
5072.98 1412.26 1456.44 1491.74 1559.72
5075.87 1486.31 1482.34 1604.42 1581.9
5078.77 1548.46 1498.82 1649.54 1592.44
5081.66 1461.7 1484.49 1523.36 1595.31
5084.56 1443.31 1414.34 1613.04 1545.63
5087.45 1338.01 1409.92 1500.48 1532.16
5090.34 1448.44 1434.11 1482.96 1509.1
5093.24 1515.88 1484.88 1543.87 1538.24
5096.13 1490.32 1466.21 1587.89 1550.57
5099.03 1392.44 1416.61 1519.96 1544.82
5101.92 1367.09 1417.76 1526.61 1546.76
5104.81 1493.76 1418.02 1593.72 1534.26
5107.71 1393.21 1438.08 1482.45 1574.15
5110.6 1427.26 1419.59 1646.28 1584.44
5113.49 1438.29 1453.2 1624.58 1618.29
5116.38 1494.06 1481.53 1584 1600.78
5119.28 1512.25 1505.27 1593.77 1600.73
5122.17 1509.49 1485.4 1624.42 1585.52
5125.06 1434.46 1473.31 1538.37 1573.33
5127.96 1475.99 1417.48 1557.19 1551.04
5130.85 1341.99 1427.44 1557.56 1562.15
5133.74 1464.33 1410.37 1571.7 1565.25
5136.63 1424.8 1404.64 1566.5 1524.39
5139.53 1324.79 1374.4 1434.96 1497.26
5142.42 1373.61 1389.31 1490.31 1497.87
5145.31 1469.55 1443.46 1568.34 1552.04
5148.2 1487.22 1490.61 1597.47 1610.76
5151.1 1515.07 1506.71 1666.46 1636.7
5153.99 1517.85 1547.48 1646.18 1681.21
5156.88 1609.52 1508.13 1730.98 1638.09
5159.77 1397.03 1466.31 1537.11 1573.8
5162.66 1392.38 1356.29 1453.32 1469.35
5165.55 1279.46 1350.74 1417.63 1448.41
5168.45 1380.38 1350.5 1474.27 1448.68
5171.34 1391.67 1392.18 1454.13 1473.37
5174.23 1404.5 1371.21 1491.71 1431.97
5177.12 1317.45 1375.67 1350.07 1445.79
5180.01 1405.05 1327.26 1495.6 1418.78
5182.9 1259.29 1301.8 1410.67 1445.85
5185.79 1241.05 1289.2 1431.28 1421.93
5188.69 1367.25 1338.35 1423.85 1460.38
5191.58 1406.76 1428.13 1526.02 1525.05
5194.47 1510.37 1427.96 1625.26 1569.54
5197.36 1366.74 1403.78 1557.32 1562.81
5200.25 1334.22 1371.39 1505.85 1506.93
5203.14 1413.21 1404.57 1457.62 1483.21
5206.03 1466.27 1435.93 1486.15 1496.72
5208.92 1428.29 1483.12 1546.38 1566.2
5211.81 1554.79 1476.68 1666.07 1586.33
5214.7 1446.96 1556.76 1546.55 1652.11
5217.59 1668.53 1539.15 1743.71 1624.51
5220.48 1501.95 1557.43 1583.27 1647.36
5223.37 1501.8 1506.65 1615.11 1599.15
5226.26 1516.2 1520.36 1599.05 1620.73
5229.15 1543.08 1529.14 1648.04 1636.93
5232.04 1528.13 1517.12 1663.71 1661.21
5234.93 1480.16 1510.86 1671.88 1637.54
5237.82 1524.29 1516.12 1577.04 1627.82
5240.71 1543.89 1522.72 1634.53 1608.74
5243.6 1499.98 1526.31 1614.65 1621.91
5246.49 1535.06 1549.67 1616.54 1646.92
5249.38 1613.97 1583.62 1709.58 1678.85
5252.27 1601.82 1594.82 1710.44 1687.97
5255.16 1568.68 1543.13 1643.91 1645.08
5258.04 1458.89 1510 1580.91 1584.23
5260.93 1502.43 1494.65 1527.89 1559.37
5263.82 1522.62 1493.21 1569.32 1538.95
5266.71 1454.58 1452.96 1519.65 1551.86
5269.6 1381.66 1442.07 1566.6 1537.27
5272.49 1489.98 1488.05 1525.55 1583.12
5275.38 1592.5 1534.99 1657.21 1598.89
5278.27 1522.49 1570.03 1613.92 1660.63
5281.15 1595.11 1532.64 1710.77 1635.28
5284.04 1480.31 1580.58 1581.16 1680.78
5286.93 1666.32 1569.55 1750.41 1663.98
5289.82 1562.03 1585.91 1660.38 1661.95
5292.71 1529.39 1555.78 1575.06 1609
5295.59 1575.91 1550.9 1591.55 1596.31
5298.48 1547.4 1570.48 1622.32 1640.4
5301.37 1588.13 1520.79 1707.32 1647.98
5304.26 1426.84 1549.99 1614.29 1695.35
5307.14 1635 1546.57 1764.45 1661.43
5310.03 1577.88 1600.9 1605.56 1655.84
5312.92 1589.83 1607.18 1597.5 1641.12
5315.81 1653.83 1593.43 1720.31 1666.38
5318.69 1536.64 1592.09 1681.34 1682.78
5321.58 1585.81 1554.24 1646.69 1660.58
5324.47 1540.26 1552.94 1653.71 1655.28
5327.35 1532.76 1518.14 1665.43 1658.29
5330.24 1481.41 1518.09 1655.72 1681.62
5333.13 1540.09 1531.69 1723.72 1680.6
5336.01 1573.58 1554.5 1662.37 1677.64
5338.9 1549.85 1560.13 1646.84 1655.07
5341.79 1556.97 1577.82 1656.02 1685.56
5344.67 1626.63 1607.15 1753.81 1707.1
5347.56 1637.85 1634.87 1711.46 1717.54
5350.45 1640.14 1641.48 1687.36 1702.54
5353.33 1646.45 1661.34 1708.79 1734.09
5356.22 1697.43 1660.43 1806.12 1758.36
5359.1 1637.4 1638.86 1760.19 1737.78
5361.99 1581.74 1602.06 1647.04 1706.16
5364.87 1587.05 1592.21 1711.25 1686.16
5367.76 1607.84 1566 1700.18 1703.3
5370.65 1503.11 1576.64 1698.45 1707.61
5373.53 1618.98 1599.59 1724.19 1751.58
5376.42 1676.67 1676.26 1832.08 1798.39
5379.3 1733.12 1678.63 1838.91 1795.25
5382.19 1626.1 1646.63 1714.77 1781.71
5385.07 1580.67 1609.35 1791.45 1754.68
5387.96 1621.28 1613.49 1757.84 1757.06
5390.84 1638.5 1612.71 1721.89 1746.76
5393.73 1578.35 1615.75 1760.56 1730.74
5396.61 1630.39 1604.46 1709.77 1733.29
5399.5 1604.63 1601.93 1729.53 1701.31
5402.38 1570.75 1593.98 1664.64 1714.17
5405.26 1606.55 1577.36 1748.34 1730.45
5408.15 1554.77 1595.44 1778.35 1751.47
5411.03 1624.99 1632.65 1727.7 1782.35
5413.92 1718.18 1633.01 1840.99 1781.32
5416.8 1555.86 1631.56 1775.26 1782.23
5419.69 1620.63 1618.81 1730.43 1770.31
5422.57 1679.93 1657.03 1805.23 1788.09
5425.45 1670.55 1653.63 1828.61 1789.34
5428.34 1610.42 1604.13 1734.17 1741.58
5431.22 1531.43 1613.63 1661.96 1730.74
5434.1 1699.03 1617.46 1796.09 1737.44
5436.99 1621.94 1661.21 1754.25 1775.74
5439.87 1662.66 1580.81 1776.88 1730.01
5442.75 1457.82 1603.66 1658.91 1755.2
5445.64 1690.49 1595.54 1829.8 1750.78
5448.52 1638.3 1669.21 1763.62 1785.61
5451.4 1678.85 1641.21 1763.41 1758.94
5454.28 1606.47 1645.81 1749.79 1756.08
5457.17 1652.12 1629.55 1755.03 1748.23
5460.05 1630.07 1654.94 1739.87 1777.44
5462.93 1682.62 1617.46 1837.42 1790.41
5465.82 1539.69 1595.81 1793.93 1822.95
5468.7 1565.12 1596.93 1837.49 1821.87
5471.58 1686 1651.08 1834.18 1836.07
5474.46 1702.13 1671.75 1836.53 1804.71
5477.34 1627.11 1652.12 1743.43 1763.33
5480.23 1627.13 1604.47 1710.02 1723.98
5483.11 1559.17 1598.74 1718.49 1750.99
5485.99 1609.9 1618.3 1824.46 1781.5
5488.87 1685.83 1625.31 1801.56 1811.11
5491.75 1580.21 1638.85 1807.33 1794.02
5494.63 1650.52 1666.17 1773.19 1840.6
5497.52 1767.76 1672.32 1941.3 1851.96
5500.4 1598.68 1684.91 1841.4 1866.67
5503.28 1688.28 1643.41 1817.31 1803.26
5506.16 1643.26 1677.48 1751.08 1811.2
5509.04 1700.89 1673.12 1865.21 1812.19
5511.92 1675.2 1680.11 1820.26 1818.92
5514.8 1664.25 1688.97 1771.29 1835.21
5517.68 1727.45 1691.95 1914.08 1847.37
5520.56 1684.15 1676.01 1856.74 1833.11
5523.44 1616.42 1604.63 1728.5 1783.1
5526.32 1513.32 1613.57 1764.06 1776.95
5529.2 1710.97 1625.49 1838.29 1799.68
5532.08 1652.19 1657.72 1796.7 1800.24
5534.96 1610 1664.46 1765.75 1811.13
5537.84 1731.2 1692.58 1870.94 1853.27
5540.72 1736.55 1716.94 1923.12 1878.55
5543.6 1683.09 1689.77 1841.59 1855.21
5546.48 1649.68 1664.41 1800.93 1822.1
5549.36 1660.48 1685.84 1823.79 1835.16
5552.24 1747.36 1715.7 1880.76 1864.35
5555.12 1739.27 1722.25 1888.5 1863.77
5558 1680.12 1729.74 1822.04 1880.25
5560.88 1769.84 1703.02 1930.2 1853.87
5563.76 1659.1 1710.14 1809.38 1868.95
5566.64 1701.49 1687.24 1867.28 1838.47
5569.52 1701.15 1702.26 1838.76 1868.7
5572.4 1704.16 1698.69 1900.06 1836.58
5575.27 1690.75 1550.85 1770.92 1848.11
5578.15 1257.65 1515.18 1873.36 1819.86
5581.03 1597.14 1400.64 1815.29 1830.29
5583.91 1347.11 1533.02 1802.24 1819.11
5586.79 1654.82 1552.24 1839.81 1809.71
5589.67 1654.78 1640.13 1787.09 1856.1
5592.54 1610.78 1663.3 1941.4 1857.33
5595.42 1724.35 1676.36 1843.51 1861.39
5598.3 1693.94 1690.3 1799.27 1849.6
5601.18 1652.61 1720.82 1906.01 1900.57
5604.05 1815.91 1706.36 1996.44 1932.67
5606.93 1650.56 1718.18 1895.55 1931.65
5609.81 1688.08 1676.14 1902.97 1896.85
5612.69 1689.78 1678.95 1892.04 1861.5
5615.56 1658.99 1661.69 1789.51 1824.1
5618.44 1636.3 1697.02 1790.76 1836.19
5621.32 1795.78 1704.46 1928.3 1855.11
5624.2 1681.3 1713.31 1846.28 1867.33
5627.07 1662.86 1661 1827.41 1861.22
5629.95 1638.85 1694.32 1909.98 1888.63
5632.83 1781.27 1714.24 1928.51 1908.25
5635.7 1722.6 1720.07 1886.26 1887.28
5638.58 1656.35 1681.2 1847.08 1852.46
5641.45 1664.65 1685.99 1824.04 1862.2
5644.33 1736.98 1656.79 1915.47 1869.9
5647.21 1568.74 1680.12 1870.2 1878.57
5650.08 1734.64 1685.48 1850.03 1859.58
5652.96 1753.07 1692.28 1858.52 1876.15
5655.83 1589.15 1618.61 1919.89 1867.04
5658.71 1513.61 1609.24 1822.71 1879.2
5661.59 1724.97 1651.54 1895 1865.9
5664.46 1716.04 1666.3 1880.01 1853.09
5667.34 1557.88 1655.97 1784.27 1828.15
5670.21 1694 1634.38 1820.15 1841.95
5673.09 1651.26 1722.14 1921.41 1894.48
5675.96 1821.17 1717.02 1941.88 1915.4
5678.84 1678.62 1729.03 1882.92 1901.97
5681.71 1687.29 1674.18 1881.1 1854.11
5684.59 1656.63 1665.38 1798.31 1836.12
5687.46 1652.21 1691.39 1828.94 1849.89
5690.34 1765.33 1702.58 1922.43 1862.01
5693.21 1690.2 1725.42 1834.66 1865.98
5696.08 1720.74 1756.8 1840.84 1896.76
5698.96 1859.45 1723.39 2014.77 1879.57
5701.83 1589.97 1753.92 1783.12 1931.78
5704.71 1812.34 1645.88 1997.47 1859.08
5707.58 1535.33 1675.5 1796.66 1885.03
5710.45 1678.83 1630.22 1860.95 1832.21
5713.33 1676.5 1690.96 1839.02 1869.72
5716.2 1717.54 1716.25 1909.17 1888.41
5719.07 1754.71 1684.62 1917.03 1875.12
5721.95 1581.62 1688.82 1799.16 1861.51
5724.82 1730.12 1720.78 1868.33 1907.09
5727.69 1850.6 1763.49 2053.77 1936.37
5730.57 1709.73 1733.46 1887.02 1957.18
5733.44 1640.05 1729.28 1930.75 1947.49
5736.31 1838.06 1728.85 2024.69 1955.23
5739.19 1708.45 1709.6 1910.25 1931.89
5742.06 1582.28 1674.34 1860.72 1898.39
5744.93 1732.28 1691.87 1924.2 1907.41
5747.8 1761.06 1725.02 1937.31 1922.92
5750.68 1681.71 1700.94 1907.24 1892.89
5753.55 1660.05 1673.54 1834.12 1901.31
5756.42 1678.85 1676.36 1962.57 1878.96
5759.29 1690.16 1704.42 1840.2 1915.58
5762.16 1744.24 1696 1943.96 1877.48
5765.03 1653.59 1666.98 1848.28 1893.71
5767.91 1603.13 1664.02 1888.9 1879.7
5770.78 1735.34 1701.17 1901.92 1931.74
5773.65 1765.04 1743.17 2004.41 1942.23
5776.52 1729.13 1745.76 1920.37 1925.8
5779.39 1743.13 1716.79 1852.62 1879.29
5782.26 1678.12 1682.57 1864.86 1870.87
5785.13 1626.46 1674.19 1895.12 1883.13
5788 1718.01 1686.52 1889.42 1896.46
5790.88 1715.08 1682.16 1904.85 1872.01
5793.75 1613.4 1704.25 1821.75 1890.07
5796.62 1784.26 1672.46 1943.6 1855.51
5799.49 1619.72 1702.73 1801.19 1889.25
5802.36 1704.22 1678.65 1922.97 1867.48
5805.23 1712 1710.95 1878.29 1889.28
5808.1 1716.64 1713.76 1866.56 1888.52
5810.97 1712.66 1727.84 1920.69 1900.58
5813.84 1754.24 1680.85 1914.48 1912.84
5816.71 1575.65 1654.05 1903.35 1916.1
5819.58 1632.26 1620.24 1930.47 1890.29
5822.45 1652.81 1651.94 1837.06 1928.78
5825.31 1670.75 1683.75 2018.81 1940.9
5828.18 1727.7 1694.39 1966.83 1962.57
5831.05 1684.72 1697.29 1902.07 1950.98
5833.92 1679.44 1686.33 1984.04 1931.26
5836.79 1694.83 1737.45 1907.67 1987
5839.66 1838.08 1768.86 2069.29 1982.05
5842.53 1773.66 1785.67 1969.2 1993.16
5845.4 1745.26 1756.88 1940.99 1942.87
5848.27 1751.72 1672.05 1918.42 1920.51
5851.13 1519.19 1663.4 1902.12 1935.5
5854 1719.28 1639.75 1985.96 1945.09
5856.87 1680.78 1683.61 1947.19 1955.31
5859.74 1650.77 1682.58 1932.78 1962.42
5862.61 1716.17 1687.18 2007.29 1976.55
5865.47 1694.6 1686.26 1989.58 1966.39
5868.34 1648.01 1669.67 1902.3 1961.71
5871.21 1666.39 1644.38 1993.25 1932.47
5874.08 1618.75 1650.19 1901.85 1942.8
5876.94 1665.44 1563.21 1933.31 1881.09
5879.81 1405.45 1541.68 1808.11 1864.14
5882.68 1554.16 1506.68 1851.01 1822.78
5885.55 1560.42 1504.61 1809.21 1772.72
5888.41 1399.25 1533.74 1657.96 1781.1
5891.28 1641.56 1531.53 1876.15 1796.31
5894.15 1553.78 1578.2 1854.83 1837.13
5897.01 1539.27 1557.59 1780.41 1835.03
5899.88 1579.73 1533.35 1869.85 1856.08
5902.74 1481.05 1555.36 1917.99 1888.59
5905.61 1605.29 1541.84 1877.94 1888.13
5908.48 1539.16 1533.91 1868.46 1868.92
5911.34 1457.29 1573.04 1860.36 1890.75
5914.21 1722.67 1611.18 1943.44 1915.48
5917.07 1653.57 1661.67 1942.63 1909.17
5919.94 1608.76 1633.78 1841.44 1888.69
5922.81 1639 1639.29 1881.99 1879.46
5925.67 1670.11 1644.61 1914.94 1878.56
5928.54 1624.72 1619.87 1838.76 1851.72
5931.4 1564.77 1636.91 1801.45 1865.16
5934.27 1721.25 1590.57 1955.27 1860.68
5937.13 1485.69 1620.3 1825.31 1886.43
5940 1653.97 1577.34 1878.7 1893.7
5942.86 1592.36 1615.27 1977.1 1903.24
5945.72 1599.48 1589.69 1853.92 1887.24
5948.59 1577.24 1610.06 1830.7 1869.98
5951.45 1653.47 1631.45 1925.32 1907.8
5954.32 1663.66 1658.53 1967.36 1930.32
5957.18 1658.47 1641.73 1898.28 1906.09
5960.05 1603.06 1574.67 1852.64 1872.31
5962.91 1462.48 1568.05 1866.02 1883.28
5965.77 1638.6 1558.29 1931.19 1920.76
5968.64 1573.78 1621.85 1965.07 1941.54
5971.5 1653.16 1588.12 1928.37 1935.52
5974.36 1537.41 1632.76 1913.13 1943.91
5977.23 1707.71 1634.09 1990.24 1947.49
5980.09 1657.15 1679.62 1939.1 1959.2
5982.95 1674.01 1622.41 1948.26 1930.47
5985.82 1536.06 1616.48 1904.06 1916.52
5988.68 1639.38 1595.87 1897.26 1898.54
5991.54 1612.16 1633.14 1894.32 1887.02
5994.4 1647.89 1630.1 1869.48 1875.44
5997.27 1630.25 1628.78 1862.52 1866.78
6000.13 1608.2 1611.26 1868.35 1861.69
6002.99 1595.34 1578.58 1854.19 1867.29
6005.85 1532.2 1595.94 1879.33 1876.49
6008.71 1660.29 1599.55 1895.96 1878.35
6011.58 1606.15 1587.23 1859.75 1875.28
6014.44 1495.24 1565.82 1870.13 1865.03
6017.3 1596.06 1539.77 1865.21 1837.45
6020.16 1527.99 1562.72 1777.02 1827.92
6023.02 1564.11 1552.6 1841.54 1822.34
6025.88 1565.7 1559.53 1848.45 1871.5
6028.74 1548.78 1561.8 1924.52 1892.46
6031.6 1570.92 1591.81 1904.4 1914.12
6034.46 1655.73 1599.61 1913.44 1913.8
6037.33 1572.2 1584.04 1923.57 1877.05
6040.19 1524.21 1593.01 1794.16 1894.03
6043.05 1682.63 1621.03 1964.35 1884.25
6045.91 1656.26 1644.84 1894.25 1895.55
6048.77 1595.63 1642.7 1828.06 1882.52
6051.63 1676.23 1603.74 1925.26 1886.86
6054.49 1539.37 1629.21 1907.26 1913.16
6057.35 1672.04 1625.41 1906.98 1898.3
6060.21 1664.82 1643.8 1880.65 1870.53
6063.07 1594.54 1635.47 1823.95 1866.55
6065.93 1647.06 1631.07 1895.05 1864.54
6068.78 1651.59 1569.54 1874.63 1841.56
6071.64 1409.98 1529.2 1755 1844.04
6074.5 1526.04 1492.65 1902.5 1857.82
6077.36 1541.93 1546.66 1915.95 1882.08
6080.22 1572.02 1564.87 1827.79 1863.95
6083.08 1580.66 1602.83 1848.1 1872.21
6085.94 1655.83 1625.85 1940.74 1883.9
6088.8 1641.06 1634.15 1862.86 1884.43
6091.65 1605.57 1614.57 1849.68 1877.43
6094.51 1597.08 1559.46 1919.76 1860.48
6097.37 1475.72 1556.94 1812.01 1860.37
6100.23 1598.02 1534.5 1849.34 1859.31
6103.09 1529.76 1586.02 1916.59 1872.14
6105.94 1630.27 1591.87 1850.5 1867.63
6108.8 1615.58 1622.57 1835.79 1843.67
6111.66 1621.86 1663.84 1844.72 1896.63
6114.52 1754.08 1650.59 2009.38 1895.47
6117.37 1575.83 1646.75 1832.32 1901.91
6120.23 1610.32 1608.8 1864.02 1859.89
6123.09 1640.25 1580.36 1883.33 1848.48
6125.94 1490.51 1567.68 1798.09 1828.5
6128.8 1572.27 1547.27 1804.07 1819.53
6131.66 1579.02 1557.97 1856.42 1844.52
6134.51 1522.64 1542.25 1873.06 1824.87
6137.37 1525.09 1505.54 1745.14 1818.91
6140.23 1468.89 1493.95 1838.55 1773.87
6143.08 1487.86 1476.56 1737.93 1802.85
6145.94 1472.92 1504.63 1832.08 1827.29
6148.79 1553.1 1558.43 1911.86 1862.17
6151.65 1649.28 1582.67 1842.57 1856.98
6154.5 1545.62 1594.81 1816.51 1835.27
6157.36 1589.55 1551.56 1846.74 1809.01
6160.22 1519.51 1542.65 1763.79 1795.01
6163.07 1518.89 1524.06 1774.5 1777.11
6165.93 1533.78 1485.41 1793.03 1772.53
6168.78 1403.57 1485.53 1750.05 1765.42
6171.64 1519.23 1488.92 1753.16 1794.57
6174.49 1543.97 1504.75 1880.51 1800.1
6177.34 1451.06 1513.53 1766.62 1809.59
6180.2 1545.55 1531.32 1781.64 1793.9
6183.05 1597.35 1554.32 1833.43 1786.85
6185.91 1520.05 1507.39 1745.49 1769.03
6188.76 1404.77 1520.5 1728.17 1774.33
6191.61 1636.68 1504.34 1849.32 1758.04
6194.47 1471.58 1556.83 1696.65 1813.38
6197.32 1562.22 1539.31 1894.19 1803.2
6200.18 1584.13 1576.89 1818.77 1847.77
6203.03 1584.34 1590.98 1830.36 1834.74
6205.88 1604.47 1601.84 1855.09 1834.9
6208.73 1616.7 1608.75 1819.26 1841.6
6211.59 1605.08 1612.94 1850.45 1829.62
6214.44 1617.05 1579.12 1819.15 1807.98
6217.29 1515.23 1565.92 1754.35 1796.93
6220.15 1565.48 1534.48 1817.28 1781.75
6223 1522.73 1515.09 1773.62 1813.79
6225.85 1457.05 1525.96 1850.47 1816.07
6228.7 1598.09 1549.83 1824.13 1826.91
6231.55 1594.34 1592.79 1806.14 1817.55
6234.41 1585.94 1561.82 1822.38 1790.22
6237.26 1505.18 1521.91 1742.14 1775.54
6240.11 1474.62 1466.46 1762.1 1751.29
6242.96 1419.59 1467.93 1749.62 1738.36
6245.81 1509.57 1467.4 1703.36 1714.48
6248.66 1473.05 1490.43 1690.47 1726.85
6251.51 1488.68 1515.91 1786.73 1764.05
6254.37 1585.98 1546.25 1814.96 1807.42
6257.22 1564.07 1564.34 1820.58 1802.46
6260.07 1542.96 1561.16 1771.85 1793.36
6262.92 1576.46 1514.9 1787.65 1747.21
6265.77 1425.27 1539.29 1682.15 1773.76
6268.62 1616.13 1487.58 1851.49 1773.06
6271.47 1421.34 1519.04 1785.54 1791.14
6274.32 1519.65 1424.92 1736.4 1733.7
6277.17 1333.79 1424.96 1679.17 1719.27
6280.02 1421.44 1397.95 1742.25 1700.46
6282.87 1438.63 1484.78 1679.95 1750.39
6285.72 1594.26 1499.23 1828.96 1738.23
6288.57 1464.8 1537.47 1705.78 1782.86
6291.41 1553.36 1544.48 1813.84 1765.51
6294.26 1615.27 1595.1 1776.89 1812.34
6297.11 1616.66 1587.02 1846.27 1796.02
6299.96 1529.13 1564.96 1764.89 1799.57
6302.81 1549.08 1570.48 1787.55 1796.89
6305.66 1633.24 1578.84 1838.23 1799.11
6308.51 1554.21 1576.43 1771.56 1793.66
6311.36 1541.84 1520.81 1771.2 1735.5
6314.2 1466.39 1526.77 1663.74 1734.97
6317.05 1572.07 1533.52 1769.96 1728.76
6319.9 1562.11 1571.99 1752.57 1774
6322.75 1581.78 1584.73 1799.47 1790.42
6325.59 1610.29 1539.98 1819.21 1811.64
6328.44 1427.87 1493.18 1816.25 1794.02
6331.29 1441.37 1456.53 1746.59 1757.58
6334.14 1500.36 1472.89 1709.91 1736.13
6336.98 1476.93 1474.24 1751.88 1736.78
6339.83 1445.43 1475.44 1748.56 1745.38
6342.68 1503.96 1532.51 1735.69 1771.4
6345.52 1648.14 1578.97 1829.95 1780.48
6348.37 1584.82 1611.55 1775.79 1799.67
6351.22 1601.68 1550.75 1793.27 1742.51
6354.06 1465.74 1537.53 1658.47 1729.94
6356.91 1545.18 1520.71 1738.08 1711.72
6359.75 1551.21 1545.95 1738.61 1726.6
6362.6 1541.46 1486.15 1703.11 1725.73
6365.44 1365.78 1426.76 1735.46 1731.16
6368.29 1373.03 1420.75 1754.9 1752.28
6371.14 1523.45 1445.5 1766.48 1762.09
6373.98 1440 1472.86 1764.89 1766.11
6376.83 1455.13 1467.58 1766.96 1747.07
6379.67 1507.61 1511.68 1709.35 1743.59
6382.52 1572.29 1542.16 1754.46 1734.69
6385.36 1546.59 1557.82 1740.25 1742.53
6388.2 1554.58 1531.04 1732.89 1711.76
6391.05 1491.96 1524.3 1662.15 1701.25
6393.89 1526.36 1523.94 1708.71 1699.69
6396.74 1553.51 1562.09 1728.21 1738.41
6399.58 1606.42 1575.08 1778.3 1752.61
6402.42 1565.3 1595.25 1751.32 1781.31
6405.27 1614.02 1581.84 1814.3 1771.33
6408.11 1566.21 1572.12 1748.36 1775.3
6410.96 1536.13 1526.15 1763.24 1752.38
6413.8 1476.12 1498.75 1745.53 1721.08
6416.64 1484 1500.5 1654.46 1705.05
6419.48 1541.39 1547.47 1715.16 1726.25
6422.33 1617.01 1516.92 1809.14 1740.32
6425.17 1392.37 1474.98 1696.65 1738.36
6428.01 1415.58 1433.43 1709.3 1715.19
6430.85 1492.33 1454.59 1739.61 1692.16
6433.7 1455.85 1494.97 1627.56 1697.63
6436.54 1536.72 1542.2 1725.72 1711.21
6439.38 1634.01 1565.19 1780.33 1733.46
6442.22 1524.85 1561.78 1694.33 1730.09
6445.06 1526.48 1518.28 1715.59 1691.64
6447.91 1503.52 1518.78 1665 1705.53
6450.75 1526.35 1538.12 1735.99 1718.03
6453.59 1584.49 1527.87 1753.11 1728.02
6456.43 1472.77 1536.82 1694.97 1730.67
6459.27 1553.19 1509.47 1743.92 1757.4
6462.11 1502.46 1539.57 1833.32 1764.52
6464.95 1563.06 1510.63 1716.31 1736.87
6467.79 1466.37 1476.67 1660.99 1697.98
6470.63 1400.59 1474.58 1716.63 1704.81
6473.47 1556.79 1506.21 1736.83 1730.46
6476.31 1561.26 1499.58 1737.92 1710.66
6479.15 1380.7 1498.32 1657.24 1704.76
6481.99 1553 1436.79 1719.12 1664.69
6484.83 1376.67 1484.21 1617.7 1673.91
6487.67 1522.96 1442.18 1684.91 1661.75
6490.51 1426.91 1480.39 1682.63 1670.55
6493.35 1491.28 1440.29 1644.09 1629.92
6496.19 1402.69 1484.21 1563.04 1652.88
6499.03 1558.66 1485.11 1751.5 1658.37
6501.87 1493.98 1531.26 1660.58 1708.06
6504.71 1541.13 1530.88 1712.11 1697.51
6507.54 1557.53 1528.35 1719.83 1727.57
6510.38 1486.38 1518.47 1750.77 1706.01
6513.22 1511.49 1520.05 1647.43 1714.57
6516.06 1562.28 1546.41 1745.51 1706.8
6518.9 1565.47 1545.99 1727.46 1721.94
6521.73 1510.2 1519.91 1692.86 1706.03
6524.57 1484.05 1552.12 1697.78 1753.18
6527.41 1662.1 1545.99 1868.9 1744.95
6530.25 1491.82 1568.51 1668.16 1765.58
6533.08 1551.63 1538.23 1759.67 1728.29
6535.92 1571.25 1545.51 1757.05 1735.91
6538.76 1513.65 1513.3 1691.01 1694.12
6541.59 1454.99 1480.58 1634.3 1659.87
6544.43 1473.09 1485.46 1654.3 1663.46
6547.27 1528.3 1508.53 1701.78 1664.32
6550.1 1524.18 1491.73 1636.89 1651.59
6552.94 1422.69 1487.16 1616.11 1648.44
6555.77 1514.59 1421.55 1692.33 1603.6
6558.61 1327.37 1409.23 1502.36 1574.24
6561.45 1385.74 1363.37 1528.02 1515.78
6564.28 1377.01 1406.97 1516.95 1561
6567.12 1458.15 1448.39 1638.04 1599.18
6569.95 1510.01 1459.38 1642.55 1658.69
6572.79 1409.99 1416.74 1695.48 1649.59
6575.62 1330.21 1439.61 1610.72 1689.7
6578.46 1578.62 1427.76 1762.9 1661.89
6581.29 1374.45 1483.56 1612.04 1668.64
6584.13 1497.62 1475.99 1630.99 1647.72
6586.96 1555.9 1526.83 1700.13 1665.46
6589.79 1526.96 1543.62 1665.26 1684.99
6592.63 1548.01 1505.06 1689.58 1653.45
6595.46 1440.22 1516.11 1605.5 1663.84
6598.3 1560.1 1496.55 1696.45 1652.36
6601.13 1489.32 1507.22 1655.13 1661.9
6603.96 1472.25 1504.47 1634.13 1659.38
6606.8 1551.84 1508.36 1688.87 1663.1
6609.63 1501 1516.49 1666.31 1685.46
6612.46 1496.64 1506.61 1701.18 1681.26
6615.29 1522.18 1486.24 1676.27 1661.2
6618.13 1439.89 1473.64 1606.16 1635.69
6620.96 1458.85 1453.68 1624.65 1641.27
6623.79 1462.31 1469.11 1693 1656.58
6626.62 1486.16 1482.54 1652.09 1663.97
6629.46 1499.15 1494.18 1646.8 1653.62
6632.29 1497.22 1443.27 1661.98 1611.98
6635.12 1333.43 1431.93 1527.15 1606.53
6637.95 1465.15 1419.05 1630.45 1592.66
6640.78 1458.56 1457.88 1620.39 1615.3
6643.61 1449.93 1444.88 1595.06 1621.17
6646.45 1426.16 1444.88 1648.08 1626.34
6649.28 1458.54 1474.95 1635.89 1647.33
6652.11 1540.15 1509.35 1658.02 1654.98
6654.94 1529.37 1526.54 1671.02 1659.23
6657.77 1510.11 1499.41 1648.64 1640.46
6660.6 1458.77 1486.07 1601.74 1636.87
6663.43 1489.34 1505.49 1660.24 1654.99
6666.26 1568.37 1528.14 1702.99 1675.02
6669.09 1526.71 1543.63 1661.82 1677.74
6671.92 1535.81 1503.08 1668.4 1637.51
6674.75 1446.73 1445.17 1582.3 1621.01
6677.58 1352.97 1406.06 1612.33 1609.78
6680.41 1418.49 1414.89 1634.72 1620.11
6683.24 1473.2 1432.26 1613.28 1621.1
6686.06 1405.1 1423.26 1615.31 1585.79
6688.89 1391.49 1424.12 1528.78 1587.39
6691.72 1475.77 1435.31 1618.09 1579.96
6694.55 1438.66 1455.19 1593.01 1606.25
6697.38 1451.12 1457.05 1607.65 1610.26
6700.21 1481.35 1462.65 1630.13 1645.01
6703.03 1455.47 1474.02 1697.23 1659.44
6705.86 1485.22 1508.4 1650.97 1693.18
6708.69 1584.52 1523.29 1731.34 1670.27
6711.52 1500.12 1533.55 1628.5 1661.18
6714.35 1516.01 1527.44 1623.7 1656.87
6717.17 1566.2 1513.94 1718.42 1639.87
6720 1459.6 1489.58 1577.49 1645.69
6722.83 1442.95 1473.53 1641.17 1622.9
6725.65 1518.04 1454.49 1650.03 1639.7
6728.48 1402.47 1512.68 1627.91 1662.41
6731.31 1617.52 1487.9 1709.27 1657.39
6734.13 1443.71 1542.46 1634.97 1681.56
6736.96 1566.14 1456.05 1700.43 1630.64
6739.78 1358.29 1478.84 1556.52 1622.1
6742.61 1512.08 1446.32 1609.34 1587.36
6745.44 1468.59 1472.92 1596.2 1597.9
6748.26 1438.09 1489.09 1588.15 1615.3
6751.09 1560.58 1508.03 1661.56 1630.85
6753.91 1525.41 1542.64 1642.83 1655.87
6756.74 1541.92 1482.65 1663.21 1621.51
6759.56 1380.63 1482.48 1558.48 1615.58
6762.39 1524.89 1447.23 1625.04 1606.34
6765.21 1436.17 1474.08 1635.51 1612.04
6768.03 1461.18 1430.63 1575.57 1574.31
6770.86 1394.54 1471 1511.84 1600.68
6773.68 1557.29 1475.94 1714.62 1607.4
6776.51 1475.98 1491.27 1595.73 1623.65
6779.33 1440.54 1430.16 1560.6 1577.2
6782.15 1373.97 1426.76 1575.28 1576.58
6784.98 1465.78 1432.64 1593.87 1575.64
6787.8 1458.17 1481.17 1557.77 1601.59
6790.62 1519.55 1479.96 1653.13 1597.7
6793.45 1462.15 1457.59 1582.22 1614.52
6796.27 1391.06 1448.01 1608.2 1598.51
6799.09 1490.81 1482.29 1605.12 1627.86
6801.91 1564.99 1520.35 1670.26 1630.44
6804.74 1505.25 1491.7 1615.94 1630.81
6807.56 1404.85 1445.55 1606.23 1578.36
6810.38 1426.55 1447.52 1512.9 1580.05
6813.2 1511.17 1481.81 1621.02 1585.44
6816.02 1507.72 1455.81 1622.41 1613.13
6818.85 1348.54 1452.58 1595.96 1605.69
6821.67 1501.47 1415.31 1598.7 1576.53
6824.49 1395.93 1452.04 1534.92 1568.2
6827.31 1458.72 1418.4 1570.99 1564.92
6830.13 1400.55 1303.94 1588.84 1550.23
6832.95 1052.55 1291.29 1490.87 1544.31
6835.77 1420.76 1288.37 1553.23 1551.91
6838.59 1391.8 1378.32 1611.63 1572.38
6841.41 1322.4 1298.46 1552.29 1542.67
6844.23 1181.19 1299.02 1464.08 1524.52
6847.05 1393.48 1303.32 1557.18 1512.62
6849.87 1335.3 1314.27 1516.6 1522.32
6852.69 1214.04 1286.96 1493.17 1495.54
6855.51 1311.56 1312.02 1476.84 1497.49
6858.33 1410.47 1348.43 1522.47 1491.6
6861.15 1323.25 1297.22 1475.48 1440.81
6863.97 1157.93 1199.46 1324.49 1353.37
6866.78 1117.21 1127.61 1260.13 1270.4
6869.6 1107.71 1087.58 1226.57 1225.88
6872.42 1037.82 1100.6 1190.92 1243.4
6875.24 1156.28 1134.01 1312.71 1284.56
6878.06 1207.94 1191.81 1350.05 1329.23
6880.88 1211.2 1219.18 1324.92 1352.27
6883.69 1238.39 1214.92 1381.85 1335.03
6886.51 1195.15 1176.51 1298.31 1340.4
6889.33 1095.99 1143.61 1341.06 1313.96
6892.14 1139.69 1146.06 1302.51 1328.2
6894.96 1202.49 1185.93 1341.03 1332.09
6897.78 1215.61 1198.23 1352.73 1354.63
6900.6 1176.58 1213.86 1370.15 1374.15
6903.41 1249.4 1210.71 1399.57 1371.23
6906.23 1206.14 1247.84 1343.96 1387.13
6909.04 1287.98 1288.15 1417.85 1414.06
6911.86 1370.32 1310.38 1480.36 1438.8
6914.68 1272.85 1298.73 1418.18 1441.8
6917.49 1253.01 1246.51 1426.86 1419.25
6920.31 1213.67 1266.27 1412.72 1440.78
6923.12 1332.12 1248.05 1482.75 1445.16
6925.94 1198.37 1260.12 1440 1450.52
6928.75 1249.88 1254.3 1428.79 1447.64
6931.57 1314.67 1274.62 1474.11 1432.91
6934.38 1259.3 1264.09 1395.84 1439.31
6937.2 1218.3 1230.96 1447.99 1426.27
6940.01 1215.28 1227.57 1434.99 1412.61
6942.82 1249.11 1267.78 1354.86 1404.53
6945.64 1338.95 1282.83 1423.75 1375.66
6948.45 1260.45 1286.11 1348.39 1396.2
6951.27 1258.94 1227.43 1416.45 1400.03
6954.08 1162.9 1242.14 1435.25 1440.58
6956.89 1304.57 1270.21 1470.03 1453.71
6959.71 1343.15 1317.53 1455.86 1448.2
6962.52 1304.85 1755.13 1418.7 1937.37
6965.33 2617.38 2448.88 2937.55 2771.9
6968.14 3424.42 2422.17 3959.45 2766.44
6970.96 1224.72 1978.64 1402.31 2262.41
6973.77 1286.78 1292.69 1425.46 1437.86
6976.58 1366.58 1247.45 1485.81 1413.4
6979.39 1089.01 1268.97 1328.94 1432.44
6982.2 1351.32 1277.87 1482.57 1445.78
6985.02 1393.29 1344.79 1525.83 1468.56
6987.83 1289.76 1342.21 1397.27 1463.18
6990.64 1343.58 1305.05 1466.44 1414.42
6993.45 1281.82 1319.61 1379.55 1428.73
6996.26 1333.44 1299.08 1440.2 1417.29
6999.07 1281.99 1226.15 1432.11 1390.15
7001.88 1063.02 1223.71 1298.14 1408.28
7004.69 1326.11 1188.08 1494.6 1385.81
7007.5 1175.1 1239.12 1364.7 1426.75
7010.31 1216.15 1217.97 1420.96 1386.02
7013.12 1262.67 1268.01 1372.4 1401.52
7015.93 1325.2 1307.81 1411.19 1403.35
7018.74 1335.56 1337.47 1426.45 1424.03
7021.55 1351.66 1309.44 1434.46 1438.77
7024.36 1241.11 1275.94 1455.42 1414.64
7027.17 1235.05 1211.5 1354.03 1389.57
7029.98 1158.33 1233.09 1359.26 1384.08
7032.79 1305.9 1242.09 1438.94 1390.88
7035.59 1262.06 1252.88 1374.43 1390.72
7038.4 1190.67 1239.49 1358.8 1355.1
7041.21 1265.74 1209.56 1332.07 1325.17
7044.02 1172.27 1238.15 1284.62 1326.4
7046.83 1276.45 1196.55 1362.49 1339.46
7049.63 1140.92 1222.61 1371.25 1357.73
7052.44 1250.46 1196.83 1339.45 1356.34
7055.25 1199.12 1244.71 1358.33 1358.13
7058.05 1284.56 1249.6 1376.59 1374.53
7060.86 1265.12 1235.38 1388.65 1370.72
7063.67 1156.46 1201.6 1346.9 1329.78
7066.47 1183.22 1207.08 1253.79 1317.87
7069.28 1281.56 1241.99 1352.93 1319.25
7072.09 1261.19 1278.02 1351.02 1356.88
7074.89 1291.3 1232.76 1366.68 1348.54
7077.7 1145.8 1225.96 1327.91 1335.23
7080.5 1240.8 1161.04 1311.12 1296.07
7083.31 1096.54 1155.15 1249.2 1289.9
7086.12 1128.12 1153.52 1309.37 1289.94
7088.92 1235.91 1217.64 1311.25 1321.9
7091.73 1288.88 1236.42 1345.08 1327.93
7094.53 1184.46 1206.43 1327.47 1327.34
7097.33 1145.95 1198.74 1309.47 1333.38
7100.14 1265.81 1197.54 1363.18 1310.18
7102.94 1180.87 1229.22 1257.87 1319.64
7105.75 1240.99 1201.86 1337.87 1287.53
7108.55 1183.72 1205.72 1266.84 1293.62
7111.35 1192.43 1204.59 1276.15 1286.6
7114.16 1237.61 1207.3 1316.82 1286.18
7116.96 1191.85 1225.69 1265.58 1313.02
7119.76 1247.62 1234.96 1356.68 1314.34
7122.57 1265.41 1238.09 1320.77 1321.27
7125.37 1201.24 1219.99 1286.37 1283.45
7128.17 1193.33 1193.3 1243.23 1262.33
7130.97 1185.33 1174.8 1257.41 1249.96
7133.78 1145.73 1181.69 1249.25 1265.23
7136.58 1214 1178.94 1289.03 1260.95
7139.38 1177.09 1184.69 1244.56 1258.41
7142.18 1162.99 1162.87 1241.63 1241.42
7144.98 1148.52 1162.82 1238.06 1226.75
7147.79 1176.94 1172.46 1200.57 1229.17
7150.59 1191.92 1167.76 1248.88 1222.94
7153.39 1134.44 1152.56 1219.35 1235.88
7156.19 1131.34 1149.95 1239.41 1231.07
7158.99 1184.08 1167 1234.46 1236.46
7161.79 1185.58 1166.31 1235.51 1217.87
7164.59 1129.26 1150.83 1183.64 1207.54
7167.39 1137.64 1102.47 1203.47 1179.86
7170.19 1040.51 1080.81 1152.47 1181.16
7172.99 1064.27 1045.66 1187.54 1147.87
7175.79 1032.2 1067.12 1103.61 1157.83
7178.59 1104.88 1058.4 1182.35 1119.88
7181.39 1038.1 1062.15 1073.68 1125.67
7184.19 1043.46 1020.22 1120.99 1084.43
7186.98 979.097 1026.2 1058.62 1090.68
7189.78 1056.04 1052.33 1092.42 1106.65
7192.58 1121.85 1078.55 1168.92 1110.61
7195.38 1057.76 1074.4 1070.49 1126.37
7198.18 1043.59 1033.37 1139.68 1086.39
7200.98 998.748 1043.69 1049.01 1112.26
7203.77 1088.74 1089.95 1148.1 1128.63
7206.57 1182.36 1123.86 1188.8 1162.48
7209.37 1100.47 1121.65 1150.54 1162.55
7212.16 1082.12 1095.38 1148.32 1144.63
7214.96 1103.55 1100.82 1135.02 1167.65
7217.76 1116.77 1119.15 1219.61 1180.63
7220.55 1137.12 1114.67 1187.28 1205.25
7223.35 1090.11 1132.24 1208.86 1203.31
7226.15 1169.5 1125.08 1213.79 1200.84
7228.94 1115.63 1123.19 1179.88 1192.59
7231.74 1084.44 1107.01 1184.1 1181.59
7234.53 1120.96 1111.42 1180.81 1167.22
7237.33 1128.85 1118.9 1136.74 1138.44
7240.13 1106.89 1053.93 1097.76 1100.27
7242.92 926.052 1056.45 1066.29 1114.44
7245.71 1136.42 1032.36 1179.26 1104.44
7248.51 1034.61 1057.81 1067.77 1104.25
7251.3 1002.39 1058.25 1065.72 1097.57
7254.1 1137.75 1067.48 1159.23 1092.99
7256.89 1062.31 1100.8 1054.02 1112.92
7259.69 1102.35 1077.34 1125.51 1097.6
7262.48 1067.35 1075.6 1113.26 1121.08
7265.27 1057.1 1028.76 1124.46 1084.71
7268.07 961.825 1041.61 1016.42 1080.24
7270.86 1105.9 1027.5 1099.83 1043.78
7273.65 1014.78 1071.05 1015.1 1050.54
7276.45 1092.47 1071.62 1036.69 1051.96
7279.24 1107.62 1093.8 1104.11 1082.41
7282.03 1081.32 1061.12 1106.42 1087.73
7284.82 994.432 985.695 1052.67 1062.22
7287.62 881.335 976.053 1027.58 1066.52
7290.41 1052.39 986.912 1119.32 1067.22
7293.2 1027.01 1058.79 1054.77 1074
7295.99 1096.98 1027.85 1047.92 1044.56
7298.78 959.551 1067.27 1030.98 1063.16
7301.57 1145.28 1036.66 1110.57 1088.18
7304.36 1005.16 1069.46 1122.99 1099.26
7307.15 1057.94 1046.13 1064.21 1094.68
7309.94 1075.31 1058.98 1096.84 1066.09
7312.73 1043.7 1074.46 1037.24 1095.01
7315.52 1104.38 982.941 1150.96 1072.67
7318.31 800.742 1009.73 1029.8 1104.71
7321.1 1124.07 987.586 1133.38 1084.99
7323.89 1037.95 1087.26 1091.8 1119.73
7326.68 1099.78 1097.22 1134.02 1130.91
7329.47 1153.94 1072.57 1166.91 1159.14
7332.26 963.998 1066.88 1176.48 1136.94
7335.05 1082.7 1048.19 1067.43 1127.92
7337.84 1097.86 1073.63 1139.84 1086.93
7340.63 1040.33 1039.51 1053.5 1086.98
7343.42 980.346 1008.64 1067.58 1054.24
7346.2 1005.24 1029.09 1041.64 1069.75
7348.99 1101.68 1085.57 1100.04 1088.47
7351.78 1149.79 1134.56 1123.72 1123.25
7354.57 1152.2 1102.16 1146.01 1095.34
7357.35 1004.5 1050.61 1016.29 1051.63
7360.14 995.136 1045.01 992.578 1055.37
7362.93 1135.39 1056.35 1157.24 1058.62
7365.71 1038.52 1124.69 1026.04 1102.51
7368.5 1200.16 1080.79 1124.25 1060.77
7371.29 1003.68 1058.83 1032.03 1085.61
7374.07 972.658 981.323 1100.56 1059.13
7376.86 967.63 1017.33 1044.8 1094.95
7379.64 1111.7 1022.02 1139.48 1076.97
7382.43 986.736 1064.4 1046.64 1089.24
7385.22 1094.76 1057.37 1081.61 1080.3
7388 1090.6 1082.31 1112.64 1080.62
7390.79 1061.58 1093.87 1047.62 1086.51
7393.57 1129.43 1085.85 1099.27 1061.88
7396.35 1066.54 1027.76 1038.77 1056.9
7399.14 887.314 1036.28 1032.67 1058.68
7401.92 1154.98 968.709 1104.61 1033.32
7404.71 863.83 1037.69 962.666 1050.51
7407.49 1094.24 988.252 1084.26 1011.3
7410.27 1006.68 1059.5 986.992 1042.37
7413.06 1077.56 1010.19 1055.86 1001.05
7415.84 946.332 1006.85 960.292 1011.32
7418.62 996.667 1017.92 1017.81 1039.7
7421.41 1110.76 1033.9 1140.99 1050.98
7424.19 994.275 1052.96 994.137 1052.3
7426.97 1053.83 1004.51 1021.78 994.833
7429.75 965.418 955.769 968.582 979.6
7432.54 848.056 947.092 948.437 974.841
7435.32 1027.8 971.549 1007.5 993.442
7438.1 1038.79 1027.54 1024.39 1025.26
7440.88 1016.04 1032.35 1043.88 1029.14
7443.66 1042.22 1047.41 1019.16 1047.67
7446.44 1083.97 1057.88 1079.96 1045.22
7449.22 1047.46 1088.57 1036.55 1074.94
7452 1134.27 1074.23 1108.32 1062.58
7454.78 1040.96 1048.64 1042.87 1046.13
7457.56 970.711 997.811 987.184 1015.84
7460.34 981.767 1017.2 1017.48 1025.59
7463.12 1099.12 1030.24 1072.12 1032.04
7465.9 1009.85 1033.97 1006.52 1030.13
7468.68 992.954 1026.81 1011.76 1027.22
7471.46 1077.63 1035.87 1063.38 1023.51
7474.24 1037.01 1017.55 995.387 1035.99
7477.02 938.002 948.1 1049.2 1012.28
7479.8 869.289 958.296 992.261 1027.35
7482.58 1067.6 999.81 1040.6 1023.72
7485.36 1062.54 1042.74 1038.3 1022.54
7488.13 998.069 997.905 988.726 1008.2
7490.91 933.1 1010.87 997.558 1016.57
7493.69 1101.45 1033.34 1063.41 1028.82
7496.47 1065.48 1064.08 1025.47 1026.84
7499.24 1025.3 1035.91 991.627 1015.54
7502.02 1016.93 994.356 1029.51 989.283
7504.8 940.832 1009.9 946.715 1002.59
7507.57 1071.95 992.159 1031.55 981.902
7510.35 963.695 1025.58 967.441 1016.35
7513.13 1041.11 1010.54 1050.04 991.246
7515.9 1026.8 1015.72 956.253 973.435
7518.68 979.245 941.19 914.008 947.187
7521.45 817.521 944.159 971.299 981.998
7524.23 1035.71 999.012 1060.69 1032.44
7527 1143.8 1057.47 1065.33 1024.29
7529.78 992.898 1044.59 946.862 997.357
7532.55 997.061 991.079 979.884 949.754
7535.33 983.279 990.351 922.516 948.836
7538.1 990.714 975.794 944.108 928.255
7540.88 953.388 979.105 918.141 938.98
7543.65 993.214 938.456 954.691 931.728
7546.42 868.766 950.266 922.353 948.873
7549.2 988.819 933.75 969.575 943.485
7551.97 943.664 982.462 938.527 961.267
7554.74 1014.9 996.307 975.7 958.175
7557.52 1030.36 1011.2 960.298 964.375
7560.29 988.339 988.282 957.128 950.605
7563.06 946.152 975.042 934.39 946.123
7565.83 990.636 957.689 946.851 928.093
7568.61 936.279 976.551 903.038 959.612
7571.38 1002.74 929.052 1028.95 945.651
7574.15 848.139 960.518 904.966 965.986
7576.92 1030.68 957.566 964.042 945.958
7579.69 993.882 954.595 968.865 939.546
7582.46 839.226 908.826 885.731 913.303
7585.23 893.371 877.913 885.313 866.785
7588 901.143 827.835 829.312 819.054
7590.78 688.991 715.104 742.538 731.922
7593.55 555.178 586.253 623.917 614.875
7596.32 514.59 482.696 478.17 487.161
7599.09 378.321 418.743 359.397 388.51
7601.85 363.319 346.487 327.962 331.619
7604.62 297.821 341.987 307.497 321.076
7607.39 364.82 371.271 327.768 353.08
7610.16 451.171 454.491 423.976 421.664
7612.93 547.48 543.18 513.247 507.235
7615.7 630.889 587.756 584.483 539.98
7618.47 584.898 583.833 522.209 544.512
7621.24 535.712 577.904 526.844 540.43
7624 613.103 562.736 572.237 533.755
7626.77 539.393 587.928 502.184 532.712
7629.54 611.287 552.338 523.715 504.597
7632.31 506.334 559.159 487.892 519.917
7635.07 559.856 533.611 548.143 513.893
7637.84 534.642 565.396 505.644 538.913
7640.61 601.689 584.183 562.951 550.072
7643.37 616.219 612.535 581.62 579.327
7646.14 619.698 628.699 593.411 592.596
7648.91 650.18 669.885 602.758 623.092
7651.67 739.778 695.933 673.108 640.547
7654.44 697.84 718.796 645.775 664.762
7657.2 718.77 725.483 675.402 678.835
7659.97 759.84 727.378 715.328 686.276
7662.73 703.522 730.128 668.099 696.631
7665.5 727.021 749.619 706.464 702.144
7668.26 818.315 777.806 731.87 718.011
7671.03 788.082 811.918 715.698 741.063
7673.79 829.358 819.324 775.621 759.064
7676.55 840.531 852.867 785.872 793.627
7679.32 888.713 855.039 819.389 786.671
7682.08 835.872 858.658 754.751 803.228
7684.85 851.388 853.599 835.545 796.21
7687.61 873.537 819.774 798.334 788.101
7690.37 734.395 819.273 730.425 767.077
7693.13 849.885 813.097 772.471 774.691
7695.9 855.011 831.916 821.177 796.633
7698.66 790.852 830.931 796.251 792.547
7701.42 846.929 845.994 760.212 789.235
7704.18 900.2 878.577 811.243 772.129
7706.94 888.602 888.931 744.931 770.516
7709.7 877.99 877.72 755.373 769.115
7712.47 866.57 878.398 807.041 794.874
7715.23 890.634 745.47 822.206 802.14
7717.99 479.205 736.087 777.174 799.188
7720.75 838.423 717.74 798.183 776.842
7723.51 835.593 826.939 755.169 769.953
7726.27 806.801 802.264 756.507 757.014
7729.03 764.397 795.854 759.364 764.144
7731.79 816.364 790.838 776.561 766.031
7734.55 791.751 814.506 762.168 776.616
7737.31 835.402 787.815 791.119 754.739
7740.07 736.293 794.384 710.931 756.557
7742.82 811.456 771.805 767.62 738.045
7745.58 767.666 783.487 735.583 741.33
7748.34 771.34 734.882 720.787 729.029
7751.1 665.64 728.331 730.716 732.211
7753.86 748.011 680.862 745.13 748.016
7756.62 628.936 722.262 768.203 743.879
7759.37 789.839 723.921 718.304 724.42
7762.13 752.989 772.608 686.753 722.184
7764.89 774.997 735.336 761.496 726.127
7767.64 678.023 754.624 730.133 753.619
7770.4 810.852 708.398 769.228 727.04
7773.16 636.317 713.899 681.76 700.805
7775.91 694.529 672.536 651.428 669.321
7778.67 686.761 687.891 674.776 679.723
7781.42 682.384 717.959 712.966 710.26
7784.18 784.731 750.864 743.038 734.442
7786.94 785.477 777.338 747.323 733.819
7789.69 761.805 766.849 711.097 710.258
7792.45 753.264 749.355 672.352 691.087
7795.2 732.996 760.465 689.813 689.843
7797.95 795.137 787.252 707.364 711.915
7800.71 833.622 786.159 738.568 720.705
7803.46 729.716 785.746 716.184 720.416
7806.22 793.9 778.13 706.494 704.785
7808.97 810.772 750.597 691.676 718.886
7811.72 647.12 707.235 758.489 712.258
7814.48 663.812 685.285 686.609 707.779
7817.23 744.923 652.366 678.24 683.442
7819.98 548.362 692.658 685.476 683.585
7822.73 784.688 662.216 687.038 689.808
7825.49 653.597 733.684 696.909 708.541
7828.24 762.766 735.342 741.677 736.764
7830.99 789.664 800.539 771.706 787.581
7833.74 849.186 847.703 849.359 821.609
7836.49 904.258 882.535 843.761 843.65
7839.24 894.159 887.379 837.829 813.625
7841.99 863.72 798.52 759.285 769.131
7844.75 637.68 773.524 710.28 723.029
7847.5 819.172 723.23 699.524 667.11
7850.25 712.838 777.247 591.526 648.29
7853 799.73 733.321 653.82 619.216
7855.75 687.395 747.03 612.303 640.156
7858.5 753.966 666.968 654.344 659.73
7861.24 559.542 701.546 712.544 692.904
7863.99 791.13 672.705 711.824 679.605
7866.74 667.444 735.035 614.449 667.195
7869.49 746.53 695.167 675.312 631.676
7872.24 671.528 692.89 605.267 641.447
7874.99 660.611 676.113 643.76 610.353
7877.74 696.2 681.132 582.032 615.271
7880.48 686.586 680.98 620.02 582.572
7883.23 660.155 717.709 545.665 598.512
7885.98 806.386 731.222 629.85 604.55
7888.73 727.126 710.364 638.137 637.276
7891.47 597.58 676.01 643.841 646.907
7894.22 703.326 657.682 658.744 633.466
7896.96 672.141 665.437 597.814 622.847
7899.71 620.844 652.282 611.984 608.222
7902.46 663.863 647.377 614.867 618.087
7905.2 657.426 670.049 627.409 591.935
7907.95 688.859 681.567 533.528 592.815
7910.69 698.417 695.057 617.507 555.009
7913.44 697.893 668.766 513.991 575.198
7916.18 609.988 639.885 594.096 563.913
7918.93 611.774 545.705 583.653 578.25
7921.67 415.353 523.05 557.001 587.857
7924.42 542.021 560.841 622.917 595.479
7927.16 725.147 639.437 606.52 602.847
7929.9 651.142 693.879 579.104 608.11
7932.65 705.347 671.714 638.705 604.363
7935.39 658.653 630.637 595.281 578.604
7938.13 527.911 627.153 501.827 566.786
7940.88 694.895 602.085 603.25 546.853
7943.62 583.449 629.907 535.482 554.842
7946.36 611.377 631.426 525.792 559.973
7949.1 699.453 690.418 618.644 601.669
7951.84 760.425 709.602 660.572 612.693
7954.59 668.929 683.518 558.863 589.68
7957.33 621.2 665.848 549.606 553.578
7960.07 707.414 656.936 552.264 558.445
7962.81 642.193 633.542 573.465 548.585
7965.55 551.019 593.924 520.027 533.265
7968.29 588.56 613.39 506.303 526.757
7971.03 700.59 658.691 553.942 538.453
7973.77 686.922 701.089 555.113 554.165
7976.51 715.756 692.027 553.439 556.547
7979.25 673.402 685.31 561.089 550.062
7981.99 666.77 659.863 535.659 546.572
7984.73 639.416 621.697 542.967 548.262
7987.47 558.905 596.889 566.161 545.941
7990.21 592.345 607.228 528.696 545.782
7992.94 670.435 669.91 542.49 584.82
7995.68 746.951 676.858 683.272 578.771
7998.42 613.188 657.004 510.549 568.934
8001.16 610.872 627.783 512.981 528.217
8003.9 659.291 638.975 561.121 538.551
8006.63 646.762 659.649 541.552 551.602
8009.37 672.895 612.917 552.133 528.499
8012.11 519.094 633.736 491.811 534.255
8014.84 709.218 636.993 558.82 532.353
8017.58 682.666 687.177 546.427 562.742
8020.32 669.646 686.676 582.98 567.815
8023.05 707.716 631.256 574.039 560.903
8025.79 516.407 622.982 525.69 524.387
8028.52 644.824 564.389 473.432 516.84
8031.26 531.935 636.117 551.398 532.799
8033.99 731.591 625.349 573.569 542.781
8036.73 612.521 678.782 503.378 542.975
8039.46 692.235 650.782 551.977 533.811
8042.2 647.591 675.002 546.078 553.715
8044.93 685.181 651.648 563.089 539.338
8047.66 622.172 636.345 508.847 511.301
8050.4 601.682 638.089 461.966 502.122
8053.13 690.413 646.937 535.553 500.008
8055.86 648.716 632.342 502.505 522.622
8058.6 557.898 617.66 529.808 518.036
8061.33 646.366 618.548 521.797 523.51
8064.06 651.381 632.644 518.927 523.469
8066.79 600.186 639.926 529.684 536.347
8069.52 668.211 630.425 560.43 523.652
8072.26 622.878 636.488 480.843 514.13
8074.99 618.376 625.016 501.117 504.87
8077.72 633.793 630.529 532.65 516.718
8080.45 639.419 637.784 516.386 520.359
8083.18 640.14 620.197 512.039 501.05
8085.91 581.032 583.703 474.724 484.855
8088.64 529.936 574.763 467.803 476.837
8091.37 613.32 593.252 487.984 480.146
8094.1 636.5 619.846 484.653 478.717
8096.83 609.718 608.172 463.514 472.033
8099.56 578.299 608.009 467.933 472.437
8102.29 636.009 589.878 485.865 473.772
8105.02 555.326 598.384 467.52 460.367
8107.74 603.817 590.495 427.716 464.906
8110.47 612.342 594.223 499.483 467.387
8113.2 566.512 602.002 474.963 483.903
8115.93 627.153 600.296 477.263 472.859
8118.66 607.222 609.349 466.349 468.628
8121.38 593.671 604.855 462.272 472.098
8124.11 613.673 614.523 487.674 485.333
8126.84 636.226 614.813 506.052 489.302
8129.56 594.54 575.554 474.179 458.327
8132.29 495.895 553.068 394.75 428.136
8135.02 568.77 531.679 415.48 422.51
8137.74 530.371 551.628 457.299 425.665
8140.47 555.744 545.725 404.216 427.358
8143.19 551.061 547.024 420.558 434.722
8145.92 534.266 538.783 479.391 438.537
8148.64 531.022 541.445 415.663 438.57
8151.37 559.047 552.733 420.656 427.945
8154.09 568.128 557.133 447.516 435.119
8156.81 544.223 539.42 437.185 433.293
8159.54 505.908 527.224 415.177 419.384
8162.26 531.541 522.455 405.79 412.273
8164.99 529.917 545.702 415.851 418.934
8167.71 575.649 549.472 435.162 414.549
8170.43 542.85 558.334 392.634 416.731
8173.15 556.505 537.462 422.398 402.216
8175.88 513.033 543.993 391.616 417.282
8178.6 562.443 532.458 437.832 408.582
8181.32 521.9 541.035 396.298 410.086
8184.04 538.761 533.621 396.13 400.127
8186.76 540.202 559.854 407.954 411.381
8189.49 600.6 576.423 430.06 431.8
8192.21 588.468 572.163 457.384 420.22
8194.93 527.421 543.991 373.215 407.286
8197.65 516.085 520.674 391.259 386.133
8200.37 518.516 547.489 393.925 408.192
8203.09 607.866 559.847 439.394 411.251
8205.81 553.16 561.742 400.435 416.567
8208.53 524.2 541.237 409.873 406.431
8211.25 546.35 532.999 408.985 410.136
8213.97 528.446 543.494 411.55 416.625
8216.68 555.687 534.744 429.339 407.24
8219.4 520.098 547.434 380.832 406.203
8222.12 566.516 536.916 408.44 387.387
8224.84 524.132 505.638 372.89 363.12
8227.56 426.265 499.046 308.031 361.702
8230.27 546.74 481.777 404.187 352.567
8232.99 472.327 521.417 345.485 380.586
8235.71 545.184 528.749 392.086 376.003
8238.42 568.737 540.262 390.438 389.053
8241.14 506.866 544.105 384.634 387.105
8243.86 556.712 551.799 386.243 393.57
8246.57 591.82 576.934 409.833 412.662
8249.29 582.271 587.651 441.91 426.799
8252 588.864 554.767 428.653 397.747
8254.72 493.167 547.815 322.677 380.69
8257.44 561.415 527.915 390.741 365.227
8260.15 529.163 546.648 382.262 395.071
8262.86 549.365 535.041 412.211 392.419
8265.58 526.594 533.043 382.784 395.088
8268.29 523.169 535.617 390.269 391.901
8271.01 557.088 532.52 402.649 397.713
8273.72 517.303 535.778 400.222 401.068
8276.43 532.944 535.785 400.332 380.022
8279.15 557.106 524.359 339.512 363.811
8281.86 483.026 488.4 351.59 305.594
8284.57 425.067 474.269 225.68 299.441
8287.28 514.715 423.463 321.054 289.857
8290 330.608 395.513 322.836 313.564
8292.71 341.215 402.269 296.802 323.159
8295.42 534.983 468.369 349.838 354.896
8298.13 528.908 474.024 418.048 320.34
8300.84 358.18 476.417 193.134 321.499
8303.55 542.164 436.941 353.316 302.553
8306.26 410.478 494.291 361.208 365.688
8308.97 530.231 458.727 382.539 355.633
8311.68 435.471 510.531 323.152 371.033
8314.39 565.891 501.428 407.408 364.154
8317.1 502.922 523.426 361.902 376.877
8319.81 501.465 516.738 361.319 363.739
8322.52 545.828 517.943 367.994 359.595
8325.23 506.535 522.93 349.472 355.411
8327.94 516.426 523.985 348.767 364.411
8330.65 548.995 534.47 394.994 368.208
8333.35 537.988 537.138 360.863 364.309
8336.06 524.432 543.129 337.071 342.698
8338.77 566.966 573.755 330.16 330.279
8341.48 629.867 591.631 323.606 333.687
8344.18 578.062 548.589 347.294 319.307
8346.89 437.838 403.087 287.019 308.739
8349.6 193.361 363.678 291.903 320.539
8352.3 459.835 352.636 382.696 324.993
8355.01 404.712 436.656 300.381 353.681
8357.71 445.422 439.279 377.967 366.349
8360.42 467.702 465.341 420.7 367.336
8363.12 482.9 495.421 303.341 352.995
8365.83 535.662 528.928 334.945 329.337
8368.53 568.221 531.266 349.724 350.203
8371.24 489.916 522.095 365.94 353.572
8373.94 508.149 487.183 345.053 351.086
8376.65 463.483 501.6 342.264 368.049
8379.35 533.169 508.309 416.832 360.545
8382.05 528.276 526.286 322.54 359.972
8384.76 517.414 505.31 340.544 327.025
8387.46 470.24 533.897 317.991 352.687
8390.16 614.037 554.202 399.525 373.98
8392.86 578.33 617.547 404.425 392.035
8395.57 660.274 1697.27 372.156 1152.53
8398.27 3853.22 2576.84 2681 1726.67
8400.97 3217.02 2470.29 2126.85 1693.31
8403.67 340.639 1329.87 272.061 910.173
8406.37 431.947 438.325 331.604 323.719
8409.07 542.39 464.333 367.493 338.253
8411.77 418.663 485.857 315.661 331.489
8414.47 496.517 434.849 311.312 321.251
8417.17 389.367 435.854 336.779 328.174
8419.87 421.678 421.644 336.43 329.428
8422.57 453.887 461.858 315.076 321.43
8425.27 510.008 419.689 312.784 302.328
8427.97 295.173 467.799 279.124 295.783
8430.67 598.214 336.907 295.44 280.342
8433.37 117.334 332.428 266.463 275.498
8436.07 281.736 221.387 264.59 237.745
8438.76 265.092 313.457 182.181 227.946
8441.46 393.544 355.315 237.066 232.832
8444.16 407.308 427.922 279.249 269.6
8446.86 482.914 460.476 292.486 295.261
8449.55 491.205 492.48 314.048 314.781
8452.25 503.323 473.095 337.809 320.673
8454.95 424.757 476.897 310.161 317.03
8457.64 502.61 475.68 303.119 315.291
8460.34 499.674 490.336 332.594 318.473
8463.03 468.724 516.006 319.706 327.093
8465.73 579.621 420.24 328.98 302.197
8468.42 212.374 391.644 257.904 297.016
8471.12 382.936 377.007 304.164 297.7
8473.81 535.711 467.858 331.032 307.858
8476.51 484.926 507.611 288.379 310.884
8479.2 502.195 506.996 313.24 317.089
8481.9 533.867 494.38 349.648 306.343
8484.59 447.078 506.113 256.14 310.264
8487.28 537.395 493.806 325.004 298.232
8489.98 496.946 488.837 313.552 319.944
8492.67 432.169 434.173 321.276 302.395
8495.36 373.404 431.303 272.358 282.059
8498.05 488.335 443.521 252.543 252.478
8500.74 468.822 481.674 232.532 263.922
8503.44 487.864 490.404 306.691 253.364
8506.13 514.524 488.799 220.868 258.867
8508.82 464.009 485.395 249.042 257.821
8511.51 477.652 493.056 303.554 282.316
8514.2 537.506 499.707 294.353 294.418
8516.89 483.965 512.112 285.347 296.713
8519.58 514.864 497.528 310.437 297.891
8522.27 493.754 503.997 297.887 298.098
8524.96 503.372 495.2 285.968 297.185
8527.65 488.473 484.458 307.698 290.42
8530.34 461.53 481.448 277.594 299.664
8533.03 494.34 475.642 313.7 306.015
8535.71 471.057 464.049 326.752 306.671
8538.4 426.751 444.352 279.561 295.859
8541.09 435.247 434.28 281.262 262.18
8543.78 440.841 448.721 225.717 253.108
8546.46 470.076 448.284 252.344 256.253
8549.15 433.936 463.54 290.699 288.526
8551.84 486.607 482.682 322.534 317.665
8554.53 527.504 501.237 339.762 337.128
8557.21 489.599 516.878 349.087 347.875
8559.9 533.532 512.57 354.776 337.725
8562.58 514.58 513.72 309.31 316.126
8565.27 493.049 500.468 284.29 303.129
8567.95 493.776 473.54 315.787 283.885
8570.64 433.794 489.709 251.578 295.413
8573.32 541.556 495.709 318.873 293.721
8576.01 511.776 521.692 310.71 309.18
8578.69 511.744 509.97 297.957 306.621
8581.38 506.391 503.496 311.197 287.311
8584.06 492.355 510.691 252.778 285.131
8586.74 533.329 523.245 291.417 285.991
8589.43 544.05 523.976 313.779 303.092
8592.11 494.549 514.655 304.08 305.468
8594.79 505.367 499.665 298.545 297.192
8597.47 499.08 512.478 288.951 310.43
8600.15 532.988 509.886 343.793 304.352
8602.84 497.59 504.554 280.311 309.964
8605.52 483.083 497.377 305.787 288.109
8608.2 511.46 477.508 278.228 285.028
8610.88 437.982 499.57 271.068 289.851
8613.56 549.267 493.592 320.259 288.275
8616.24 493.528 496.078 273.499 274.868
8618.92 445.439 480.296 230.845 262.654
8621.6 501.922 486.72 283.617 253.452
8624.28 512.799 514.287 245.894 280.164
8626.96 528.141 511.466 310.981 285.03
8629.64 493.457 535.102 298.216 299.643
8632.32 583.709 503.441 289.732 299.046
8634.99 433.158 497.438 309.19 271.702
8637.67 475.447 470.45 216.183 265.177
8640.35 502.746 487.714 270.158 259.023
8643.03 484.949 493.879 290.727 281.175
8645.71 493.941 477.303 282.642 292.628
8648.38 453.018 482.349 304.517 298.633
8651.06 500.089 467.019 308.74 307.446
8653.74 447.949 494.641 309.082 283.505
8656.41 535.886 473.454 232.692 257.297
8659.09 436.527 473.45 230.117 254.932
8661.76 447.937 446.444 301.987 257.408
8664.44 454.868 451.108 240.121 258.572
8667.11 450.517 500.347 233.609 247.938
8669.79 595.657 499.902 270.085 263.956
8672.46 453.532 502.591 288.175 282.652
8675.14 458.585 451.246 289.697 283.895
8677.81 441.621 459.004 273.813 275.832
8680.48 476.806 484.67 263.987 269.708
8683.16 535.583 488.1 271.325 270.873
8685.83 451.911 500.328 277.308 274.762
8688.5 513.489 481.211 275.652 266.176
8691.18 478.232 493.62 245.567 261.829
8693.85 489.14 494.836 264.268 260.378
8696.52 517.135 519.678 271.297 268.306
8699.19 552.758 506.432 269.352 271.881
8701.86 449.404 501.969 274.993 263.147
8704.53 503.744 488.271 245.097 261.786
8707.21 511.666 504.367 265.268 263.38
8709.88 497.69 503.083 279.775 275.465
8712.55 499.894 493.339 281.354 273.183
8715.22 482.433 506.251 258.42 270.076
8717.89 536.427 507.954 270.453 262.319
8720.56 505.001 511.611 258.083 261.444
8723.22 493.404 515.616 255.797 267.409
8725.89 548.444 509.461 288.346 271.385
8728.56 486.534 506.571 270.011 270.124
8731.23 484.737 491.07 252.015 257.774
8733.9 501.941 515.203 251.295 269.946
8736.57 558.932 516.778 306.529 278.666
8739.23 489.46 516.288 278.175 278.289
8741.9 500.473 491.824 250.164 256.053
8744.57 485.54 516.972 239.821 261.828
8747.23 564.903 511.05 295.498 260.037
8749.9 482.708 512.091 244.791 267.035
8752.57 488.664 513.986 260.815 271.493
8755.23 570.587 544.527 308.873 297.176
8757.9 574.33 534.101 321.841 277.841
8760.56 457.387 499.806 202.81 264.887
8763.23 467.7 445.769 270.01 224.28
8765.89 412.22 444.037 200.02 198.778
8768.56 452.19 455.526 126.306 208.912
8771.22 502.168 464.284 300.411 217.879
8773.89 438.494 509.421 226.921 265.919
8776.55 587.6 510.383 270.425 242.824
8779.21 505.056 522.389 231.126 227.427
8781.88 474.511 480.516 180.73 214.18
8784.54 461.98 475.921 230.685 205.411
8787.2 491.272 474.789 204.818 235.984
8789.86 471.114 472.06 272.451 242.7
8792.52 453.794 456.915 250.833 246.17
8795.19 445.838 441.314 215.227 215.172
8797.85 424.311 450.76 179.455 211.635
8800.51 482.131 484.844 240.222 223.114
8803.17 548.091 501.72 249.665 226.987
8805.83 474.937 496.012 191.076 229.297
8808.49 465.007 459.331 247.15 217.383
8811.15 438.049 473.255 213.923 238.22
8813.81 516.708 482.083 253.588 240.648
8816.47 491.493 499.657 254.432 253.616
8819.13 490.772 493.855 252.827 285.474
8821.79 499.302 509.144 349.162 286.444
8824.44 537.359 595.275 257.343 317.985
8827.1 749.164 573.914 347.449 250.621
8829.76 435.22 506.187 147.072 228.395
8832.42 334.178 401.031 190.664 152.625
8835.07 433.694 397.576 120.138 137.234
8837.73 424.857 446.666 100.901 131.564
8840.39 481.448 451.352 173.652 150.305
8843.04 447.751 449.879 176.363 186.665
8845.7 420.439 467.302 209.98 208.626
8848.36 533.715 473.55 239.535 232.147
8851.01 466.497 476.859 246.926 230.574
8853.67 430.363 468.456 205.262 221.448
8856.32 508.507 475.949 212.157 203.706
8858.98 488.978 484.785 193.7 207.153
8861.63 456.871 474.057 215.602 220.841
8864.28 476.32 460.459 253.22 235.182
8866.94 448.186 485.939 236.723 241.242
8869.59 533.311 483.153 233.784 226.044
8872.24 467.961 474.583 207.626 184.338
8874.9 422.477 467.875 111.605 175.186
8877.55 513.186 476.002 206.326 178.521
8880.2 492.344 521.496 217.631 245.563
8882.85 558.958 503.778 312.732 241.094
8885.51 460.032 493.785 192.919 230.982
8888.16 462.365 465.62 187.295 193.393
8890.81 474.461 423.34 199.966 150.321
8893.46 333.195 411.533 63.7018 141.558
8896.11 426.944 393.785 161.007 129.86
8898.76 421.216 437.259 164.871 202.646
8901.41 463.616 463.163 282.061 217.903
8904.06 504.656 435.657 206.778 204.688
8906.71 338.7 435.45 125.224 186.869
8909.36 462.994 433.744 228.606 176.727
8912.01 499.537 492.995 176.35 203.556
8914.66 516.455 495.253 205.712 203.035
8917.3 469.766 491.995 227.044 229.21
8919.95 489.765 494.776 254.873 213.832
8922.6 524.795 458.58 159.578 154.45
8925.25 361.178 413.421 48.898 91.5638
8927.89 354.288 376.064 66.2155 67.9994
8930.54 412.725 411.337 88.8846 97.0738
8933.19 466.999 444.77 136.121 139.942
8935.83 454.588 472.368 194.821 174.522
8938.48 495.518 469.856 192.623 204.682
8941.12 459.461 483.988 226.602 187.01
8943.77 496.985 467.511 141.804 188.312
8946.41 446.088 468.279 196.529 176.061
8949.06 461.765 421.144 189.849 180.044
8951.7 355.579 422.705 153.753 165.599
8954.35 450.771 442.917 153.196 167.169
8956.99 522.4 498.844 194.559 178.589
8959.63 523.361 477.293 188.012 167.836
8962.28 386.117 437.28 120.936 117.482
8964.92 402.361 394.17 43.4969 85.5308
8967.56 394.03 383.01 92.1593 80.5873
8970.2 352.639 386.148 106.106 110.302
8972.85 411.776 395.108 132.641 134.13
8975.49 420.909 447.369 163.642 150.325
8978.13 509.421 454.691 154.692 166.247
8980.77 433.743 445.256 180.407 171.954
8983.41 392.605 424.154 180.765 192.952
8986.05 446.114 412.888 217.686 186.637
8988.69 399.945 415.227 161.46 197.917
8991.33 399.621 371.202 214.604 192.154
8993.97 314.041 358.339 200.399 170.688
8996.61 361.354 371.151 97.0602 158.214
8999.25 438.058 398.901 177.183 148.554
9001.89 397.29 413.288 171.419 142.54
9004.53 404.515 396.331 79.0185 127.398
9007.16 387.187 379.174 131.758 113.847
9009.8 345.821 390.421 130.764 133.704
9012.44 438.254 387.814 138.589 135.475
9015.08 379.367 413.789 137.074 151.255
9017.71 423.746 403.85 178.103 159.594
9020.35 408.438 419.332 163.606 164.383
9022.99 425.812 416.637 151.439 158.092
9025.62 415.662 415.291 159.232 155.38
9028.26 404.399 408.996 155.469 148.477
9030.89 406.926 425.178 130.73 153.742
9033.53 464.21 437.953 175.026 159.11
9036.16 442.723 453.024 171.575 175.997
9038.8 452.138 451.163 181.389 181.492
9041.43 458.629 435.448 191.514 178.351
9044.07 395.577 441.905 162.152 177.736
9046.7 471.509 431.914 179.542 168.494
9049.33 428.656 425.275 163.788 159.901
9051.96 375.662 399.598 136.375 160.56
9054.6 394.476 390.934 181.518 136.627
9057.23 402.664 383.074 91.9891 132.845
9059.86 352.082 396.585 125.029 125.83
9062.49 435.008 402.346 160.471 154.888
9065.12 419.949 411.758 179.164 162.827
9067.76 380.318 362.162 148.845 135.494
9070.39 286.218 296.663 78.4735 100.866
9073.02 223.454 169.891 75.2782 51.2506
