wavelength spec_sum spec_optimal
3529.22 23.3228 19.1213
3532.14 35.7499 25.9234
3535.05 24.6454 15.3157
3537.96 29.6321 26.7286
3540.88 33.254 27.9026
3543.79 27.8341 25.7889
3546.7 36.6527 30.4521
3549.62 40.8427 35.3711
3552.53 29.8853 24.3426
3555.45 30.8496 29.3462
3558.36 33.2227 34.1085
3561.27 38.7091 23.6119
3564.19 31.5847 24.4958
3567.1 23.0374 22.6946
3570.02 26.5931 21.2773
3572.93 25.428 24.7546
3575.84 26.8939 24.5495
3578.76 30.4953 23.4985
3581.67 24.528 14.7974
3584.58 23.434 21.9771
3587.5 27.1758 20.3147
3590.41 25.2981 27.1415
3593.33 37.6422 32.9475
3596.24 34.5575 34.8929
3599.15 38.447 31.0089
3602.07 32.1363 24.0224
3604.98 26.7706 27.0461
3607.9 26.3379 19.755
3610.81 33.554 25.6826
3613.72 34.1909 31.9322
3616.64 30.2954 27.529
3619.55 32.8874 25.1574
3622.46 39.768 38.3727
3625.38 36.0024 35.2265
3628.29 48.3157 45.9647
3631.2 36.371 33.4324
3634.12 37.5614 32.8239
3637.03 44.0633 45.1491
3639.95 34.0376 29.4526
3642.86 30.5062 25.8379
3645.77 35.8929 30.6353
3648.69 37.3647 31.5757
3651.6 37.6148 32.618
3654.51 34.5133 31.9427
3657.43 36.925 35.2981
3660.34 39.5513 37.3453
3663.25 35.9051 34.7301
3666.17 36.3674 31.9566
3669.08 38.9182 30.3288
3672 29.1443 30.1361
3674.91 37.3382 37.0979
3677.82 39.1993 34.539
3680.74 31.059 31.436
3683.65 31.4721 24.9576
3686.56 38.5215 30.0137
3689.48 32.3545 31.6705
3692.39 35.8334 32.0301
3695.3 35.75 34.7673
3698.22 39.2607 30.5759
3701.13 30.9304 28.0622
3704.04 36.6147 29.4263
3706.96 38.5998 35.4482
3709.87 42.3999 37.707
3712.78 40.149 38.2155
3715.7 35.8714 26.8505
3718.61 38.1033 32.2011
3721.52 39.3911 32.497
3724.44 30.8547 32.3826
3727.35 30.3125 27.2433
3730.26 41.455 34.8661
3733.18 31.5712 32.9232
3736.09 40.655 33.1972
3739 28.7463 27.6848
3741.92 36.1461 34.3521
3744.83 36.6814 31.7804
3747.74 35.036 31.6037
3750.66 38.9058 37.984
3753.57 37.6089 35.7296
3756.48 33.6951 32.2805
3759.4 40.9259 34.8156
3762.31 41.2784 37.3009
3765.22 32.5908 29.9012
3768.14 34.9929 34.1559
3771.05 45.2301 40.6666
3773.96 39.9057 37.2647
3776.88 42.5379 41.0133
3779.79 42.4061 36.5498
3782.7 43.6896 42.83
3785.61 49.7006 47.192
3788.53 37.3379 36.254
3791.44 40.6992 36.4263
3794.35 37.8784 38.1922
3797.27 42.1403 37.158
3800.18 42.3521 42.5393
3803.09 48.8536 44.9029
3806.01 41.3569 36.7468
3808.92 42.7562 39.8585
3811.83 49.4286 45.658
3814.74 47.5932 43.2246
3817.66 44.126 43.5662
3820.57 42.1571 35.8987
3823.48 38.89 34.9599
3826.4 38.3872 35.0572
3829.31 33.8782 31.3401
3832.22 32.089 29.3413
3835.13 34.5923 32.8536
3838.05 37.2058 35.8292
3840.96 38.3572 36.0261
3843.87 43.211 39.7374
3846.78 44.4234 40.3061
3849.7 40.4318 40.2703
3852.61 39.7622 38.6425
3855.52 35.5585 29.5391
3858.44 41.6311 37.9693
3861.35 37.2489 33.5664
3864.26 40.8485 38.1749
3867.17 37.6091 35.2259
3870.09 39.0194 37.1349
3873 37.8346 33.2963
3875.91 35.9692 33.8196
3878.82 39.3403 35.2708
3881.74 36.1456 32.7555
3884.65 31.3272 28.3526
3887.56 41.8934 36.8645
3890.47 37.7176 34.719
3893.39 39.7009 36.2451
3896.3 37.9289 33.9354
3899.21 40.3074 38.5029
3902.12 40.8427 36.2417
3905.03 44.8748 44.3095
3907.95 40.4644 41.2908
3910.86 45.3337 42.325
3913.77 44.7963 40.8984
3916.68 39.1235 36.9867
3919.6 38.0791 37.1983
3922.51 37.2352 34.7368
3925.42 38.1099 35.8652
3928.33 34.7461 31.5447
3931.24 32.0983 29.2924
3934.16 31.2344 26.1022
3937.07 36.5993 34.2574
3939.98 34.3267 29.6267
3942.89 42.086 40.806
3945.8 38.5454 34.6144
3948.72 40.8538 37.411
3951.63 43.2209 39.252
3954.54 42.6378 42.6359
3957.45 37.7066 33.7262
3960.36 37.6257 33.661
3963.28 30.6272 27.9681
3966.19 32.9684 27.8995
3969.1 34.5723 33.3324
3972.01 38.8492 34.3987
3974.92 44.8417 42.1582
3977.84 44.7211 39.5074
3980.75 44.3224 40.1251
3983.66 45.7727 45.5622
3986.57 53.7699 52.7946
3989.48 50.3872 46.4334
3992.39 56.2984 53.2336
3995.31 61.9741 59.5618
3998.22 55.0418 47.6829
4001.13 52.2822 46.278
4004.04 52.479 49.7078
4006.95 57.5389 53.2142
4009.86 57.8255 49.7788
4012.77 56.7921 53.5394
4015.69 57.1737 54.9279
4018.6 57.9162 54.1019
4021.51 57.7743 54.4758
4024.42 57.176 53.5543
4027.33 58.3918 53.7852
4030.24 59.6966 58.7177
4033.15 58.5212 58.8354
4036.07 55.3348 51.1168
4038.98 63.719 58.8974
4041.89 49.6596 46.1402
4044.8 55.9571 52.6109
4047.71 61.8431 56.874
4050.62 54.2908 55.5489
4053.53 60.8682 58.2291
4056.44 53.729 50.5284
4059.35 61.0058 56.8368
4062.27 50.9655 51.2519
4065.18 59.291 56.1716
4068.09 56.5488 54.9375
4071 55.3931 51.4989
4073.91 54.5851 52.7607
4076.82 51.6548 50.1208
4079.73 52.8916 49.3272
4082.64 55.1933 52.4484
4085.55 50.6589 50.3497
4088.46 62.4419 55.7096
4091.37 62.8914 60.862
4094.29 58.2446 55.7025
4097.2 60.2238 54.7309
4100.11 58.7624 56.0892
4103.02 57.9869 55.789
4105.93 52.5202 49.481
4108.84 59.9558 55.8981
4111.75 58.5809 55.6991
4114.66 53.81 48.3656
4117.57 55.334 50.6491
4120.48 62.7453 61.3737
4123.39 62.0986 60.2581
4126.3 62.4003 59.0641
4129.21 56.065 50.7494
4132.12 60.9517 60.0241
4135.03 63.0078 61.923
4137.94 63.4085 60.8505
4140.85 58.8355 56.0938
4143.76 64.098 60.393
4146.67 63.2125 60.9394
4149.58 58.7841 53.3845
4152.49 64.797 62.6097
4155.4 61.6989 57.8141
4158.31 64.1067 57.4794
4161.22 63.7849 60.2439
4164.13 60.335 59.4313
4167.04 56.632 54.3124
4169.95 61.4199 59.4452
4172.86 62.9713 57.9449
4175.77 65.2174 57.1647
4178.68 58.0478 53.1292
4181.59 58.2575 54.4214
4184.5 55.414 52.4304
4187.41 56.6493 53.455
4190.32 65.3498 60.061
4193.23 59.3241 54.8534
4196.14 57.7454 52.1319
4199.05 57.7688 56.7466
4201.96 57.6394 55.1373
4204.87 56.4546 51.1703
4207.78 62.0658 59.3284
4210.69 53.9391 49.6966
4213.6 61.274 57.8791
4216.51 53.5308 52.3962
4219.42 60.5512 60.3585
4222.33 55.1596 49.4386
4225.24 52.1769 50.5995
4228.15 57.12 52.9488
4231.05 56.0781 51.9803
4233.96 61.9069 59.0616
4236.87 54.4718 51.063
4239.78 59.9135 58.9199
4242.69 51.3641 47.3381
4245.6 50.7187 48.8466
4248.51 61.6207 56.98
4251.42 62.1913 57.7034
4254.33 54.0855 52.7249
4257.24 57.6746 54.1019
4260.15 58.222 55.6671
4263.05 57.8304 56.242
4265.96 56.3122 52.7755
4268.87 55.401 51.7456
4271.78 55.9129 53.3695
4274.69 54.6208 50.634
4277.6 59.9855 57.1652
4280.51 57.5861 56.2004
4283.42 54.7701 52.0351
4286.32 52.56 50.6146
4289.23 54.5324 50.358
4292.14 54.5132 50.2178
4295.05 51.1553 47.6173
4297.96 47.9631 45.4711
4300.87 49.6509 48.7083
4303.77 43.1574 41.1457
4306.68 47.8446 45.869
4309.59 48.7718 45.5259
4312.5 54.1242 53.288
4315.41 56.0448 52.9914
4318.32 56.1557 52.9107
4321.22 52.6714 49.2495
4324.13 55.9982 52.9048
4327.04 59.479 58.2414
4329.95 58.0222 53.7567
4332.86 55.3695 53.3774
4335.76 54.0422 53.3531
4338.67 62.5982 59.5946
4341.58 60.4569 60.3302
4344.49 59.7024 57.2598
4347.39 60.8941 59.363
4350.3 60.0403 59.3293
4353.21 60.2931 59.5328
4356.12 59.846 56.4897
4359.03 55.5443 53.0876
4361.93 60.2333 58.3253
4364.84 56.9098 55.6356
4367.75 60.4683 60.7694
4370.66 58.844 58.1676
4373.56 57.5328 55.9287
4376.47 55.4392 52.9084
4379.38 56.9284 57.0696
4382.28 52.8204 47.0157
4385.19 58.8638 57.3515
4388.1 59.7355 58.2328
4391.01 56.3164 54.2784
4393.91 60.1868 59.7169
4396.82 61.7776 60.8486
4399.73 59.1904 54.9103
4402.63 55.8001 55.1278
4405.54 59.4343 59.8421
4408.45 65.2626 67.8249
4411.36 63.5738 61.9846
4414.26 61.215 61.7802
4417.17 63.5814 60.5179
4420.08 63.0387 64.0676
4422.98 60.1167 57.5257
4425.89 65.1112 63.8888
4428.8 65.7521 65.7936
4431.7 58.3901 59.0656
4434.61 66.6207 64.7347
4437.51 63.0765 64.0415
4440.42 63.5223 64.0983
4443.33 67.0086 66.3675
4446.23 66.6626 66.1822
4449.14 69.4585 67.8377
4452.05 66.1601 65.5155
4454.95 66.9926 66.8859
4457.86 63.7254 63.2175
4460.76 64.8408 64.7052
4463.67 63.8115 62.0876
4466.58 66.2608 65.1193
4469.48 64.8325 63.2819
4472.39 65.2729 63.129
4475.29 66.1716 64.4956
4478.2 68.198 65.6295
4481.11 64.7009 60.6143
4484.01 63.0076 61.9618
4486.92 69.7092 66.8444
4489.82 68.6383 65.0586
4492.73 65.8986 61.4619
4495.63 66.9001 60.9208
4498.54 69.6973 67.8777
4501.45 72.8964 70.1249
4504.35 71.7798 69.5336
4507.26 69.0489 66.8268
4510.16 66.3728 61.5201
4513.07 69.0324 64.9723
4515.97 69.4744 64.0615
4518.88 70.2999 62.5032
4521.78 62.5605 53.2899
4524.69 67.2071 62.3424
4527.59 63.8606 56.7135
4530.5 65.4751 60.9467
4533.4 63.7845 59.1141
4536.31 64.7447 62.272
4539.21 66.4178 63.5684
4542.12 62.8423 55.9752
4545.02 66.8432 62.3848
4547.93 66.3895 62.4563
4550.83 67.5319 66.3962
4553.74 69.1756 67.1643
4556.64 69.9542 68.4006
4559.55 67.271 64.7933
4562.45 65.9678 64.826
4565.35 70.2432 66.0003
4568.26 68.9734 65.3564
4571.16 72.406 73.3173
4574.07 67.2512 66.908
4576.97 66.0434 64.5231
4579.88 71.5257 69.156
4582.78 67.7528 66.0433
4585.68 68.7127 67.2794
4588.59 67.2766 63.4308
4591.49 64.1215 63.6291
4594.4 70.5384 70.8528
4597.3 63.4772 59.9503
4600.2 67.204 65.7797
4603.11 72.6883 74.7794
4606.01 73.0097 72.4181
4608.91 70.8995 68.2851
4611.82 73.1376 73.8102
4614.72 72.942 73.698
4617.62 65.2397 65.9406
4620.53 69.0251 66.747
4623.43 69.035 67.4958
4626.33 75.2173 73.72
4629.24 68.5501 65.5974
4632.14 67.4091 65.6141
4635.04 64.7435 64.7953
4637.95 66.2956 65.6055
4640.85 64.4926 64.932
4643.75 68.2951 66.7883
4646.66 69.9098 69.6711
4649.56 66.0277 66.1085
4652.46 67.902 68.782
4655.37 68.1198 69.7535
4658.27 71.008 70.5763
4661.17 71.433 70.3105
4664.07 65.9568 68.1914
4666.98 66.9299 67.6134
4669.88 68.825 70.5178
4672.78 65.0792 62.8931
4675.68 67.8879 70.5761
4678.59 64.7658 65.8541
4681.49 70.5671 71.6523
4684.39 71.6198 72.4612
4687.29 69.888 70.2786
4690.2 69.4276 70.8929
4693.1 69.137 68.23
4696 65.287 66.4733
4698.9 55.2388 65.7863
4701.8 56.296 68.9328
4704.7 59.1273 67.0014
4707.61 62.7666 72.8966
4710.51 62.3865 72.0472
4713.41 61.2692 67.765
4716.31 60.5163 69.726
4719.21 59.6583 75.8775
4722.12 59.8761 66.3855
4725.02 58.8594 73.8084
4727.92 60.0451 71.5295
4730.82 54.6036 69.1487
4733.72 61.3094 70.7718
4736.62 60.75 72.3655
4739.52 60.7262 71.7494
4742.42 57.7518 71.9067
4745.33 63.2803 71.2223
4748.23 64.5558 75.7176
4751.13 61.9757 73.2508
4754.03 60.2383 71.7155
4756.93 62.5305 74.1213
4759.83 59.8438 71.6957
4762.73 59.932 72.2121
4765.63 62.2156 73.3081
4768.53 59.0646 65.353
4771.43 60.9877 71.9694
4774.33 62.7556 71.6816
4777.23 63.5092 71.7114
4780.13 63.0191 73.5376
4783.03 60.011 70.5628
4785.93 62.3017 69.7601
4788.83 58.2046 68.1764
4791.73 61.3596 70.9346
4794.63 59.9084 67.6595
4797.53 60.1539 69.7592
4800.43 57.4382 63.8945
4803.33 58.9529 67.9996
4806.23 55.9378 70.1376
4809.13 59.9252 67.0702
4812.03 58.3145 68.6666
4814.93 59.2932 69.6221
4817.83 60.5173 69.1772
4820.73 58.7332 68.7451
4823.63 63.3663 74.1421
4826.53 62.2996 70.4935
4829.43 53.9013 68.4409
4832.33 61.0951 69.844
4835.23 59.5561 69.4073
4838.13 56.8682 72.7745
4841.03 61.561 72.6281
4843.93 61.088 72.03
4846.83 58.2502 74.9138
4849.72 59.2002 69.678
4852.62 63.3728 74.6199
4855.52 56.5141 64.8882
4858.42 58.4134 67.2121
4861.32 54.105 62.9493
4864.22 59.6214 67.0873
4867.12 62.8223 70.873
4870.02 58.891 69.5971
4872.91 56.712 66.204
4875.81 63.1833 74.1886
4878.71 64.4636 75.4669
4881.61 63.9954 75.0902
4884.51 62.6409 72.8828
4887.4 63.5995 75.061
4890.3 66.9138 76.2094
4893.2 68.6379 80.0414
4896.1 58.603 74.2123
4899 62.0314 76.4165
4901.89 60.5069 70.4889
4904.79 66.056 77.2637
4907.69 64.6997 72.8303
4910.59 65.3719 76.3916
4913.48 65.5173 77.8391
4916.38 64.9939 76.3131
4919.28 64.3004 75.22
4922.18 64.8611 76.7808
4925.07 61.8211 71.65
4927.97 59.2338 73.179
4930.87 57.5363 73.0889
4933.77 62.1774 73.1235
4936.66 64.6047 75.9411
4939.56 61.0272 71.8411
4942.46 64.7425 76.245
4945.35 59.8857 66.407
4948.25 64.8415 77.4517
4951.15 62.6602 71.1476
4954.04 57.5021 64.9785
4956.94 62.4579 73.1084
4959.84 66.5464 79.5249
4962.73 64.2587 75.7341
4965.63 62.8786 74.8698
4968.52 61.3247 70.0011
4971.42 56.9181 69.4568
4974.32 61.3399 68.1271
4977.21 61.2272 68.84
4980.11 59.2499 70.3471
4983 63.5191 75.0943
4985.9 59.359 70.4638
4988.8 58.7022 71.4761
4991.69 60.7478 71.5271
4994.59 59.1984 69.375
4997.48 62.7432 74.2487
5000.38 57.6017 73.3192
5003.27 60.7955 71.7387
5006.17 58.3661 70.1015
5009.06 55.203 71.8296
5011.96 60.223 72.0195
5014.86 62.1724 73.4751
5017.75 60.744 71.9086
5020.65 56.7159 70.4161
5023.54 59.859 72.0513
5026.43 63.9962 75.6756
5029.33 57.8122 73.5347
5032.22 58.3603 69.0617
5035.12 57.8628 71.3829
5038.01 62.85 75.3107
5040.91 63.0403 74.7691
5043.8 60.4604 70.986
5046.7 63.4988 74.2552
5049.59 61.3753 72.9785
5052.49 63.8435 75.3605
5055.38 62.1089 73.652
5058.27 64.7019 74.1375
5061.17 58.8147 72.985
5064.06 65.8532 78.5295
5066.96 63.8988 76.395
5069.85 62.9276 75.1581
5072.74 61.3046 70.634
5075.64 58.9617 75.7625
5078.53 63.7678 77.6825
5081.42 62.5086 71.5484
5084.32 64.3521 75.5608
5087.21 60.0197 70.1083
5090.1 60.3229 69.1183
5093 62.887 71.7861
5095.89 58.1736 73.667
5098.78 59.9032 70.3668
5101.68 60.9808 70.5363
5104.57 57.494 73.5064
5107.46 59.694 68.2661
5110.35 60.4384 75.7063
5113.25 58.3694 74.6218
5116.14 61.084 72.6896
5119.03 60.021 73.0846
5121.92 62.2281 74.4511
5124.82 59.9271 70.4844
5127.71 61.6861 71.3378
5130.6 58.4525 71.3595
5133.49 60.9792 72.0257
5136.39 59.501 71.8191
5139.28 54.382 65.8293
5142.17 53.2298 68.4229
5145.06 60.4331 72.0753
5147.95 61.6048 73.4976
5150.84 63.1741 76.7717
5153.74 63.225 75.949
5156.63 67.4549 79.9912
5159.52 62.0957 71.1586
5162.41 57.2442 67.4096
5165.3 56.7219 65.8909
5168.19 58.2395 68.6759
5171.08 59.5815 67.898
5173.97 59.8702 69.8272
5176.87 55.9994 63.3644
5179.76 59.6397 70.3892
5182.65 59.0504 66.5846
5185.54 55.713 67.7614
5188.43 59.9058 67.6203
5191.32 57.5065 72.7053
5194.21 65.2889 77.6878
5197.1 63.0774 74.6889
5199.99 58.908 72.4645
5202.88 62.6569 70.3821
5205.77 63.3625 72.0041
5208.66 63.6265 75.1764
5211.55 63.0429 81.2673
5214.44 63.5923 75.6872
5217.33 68.5406 85.6131
5220.22 67.7485 77.9814
5223.11 66.4324 79.7927
5226 68.1796 79.231
5228.89 69.2429 81.8863
5231.78 68.9259 82.8824
5234.67 70.567 83.4934
5237.56 70.0561 78.9344
5240.45 72.1459 81.9781
5243.34 68.5351 81.1263
5246.22 71.8254 81.3456
5249.11 74.2195 86.1358
5252 68.9542 86.2622
5254.89 73.6555 82.9608
5257.78 71.44 79.8079
5260.67 68.6503 77.1336
5263.56 71.4774 79.205
5266.45 68.2658 76.6583
5269.33 68.6941 78.9664
5272.22 68.622 76.821
5275.11 73.8626 83.3509
5278 69.4045 81.061
5280.89 72.7967 85.7916
5283.77 62.2564 79.157
5286.66 74.4477 87.469
5289.55 70.7969 82.8083
5292.44 69.4357 78.3926
5295.33 71.3135 79.0454
5298.21 69.1597 80.399
5301.1 71.2605 84.4241
5303.99 65.4226 79.6457
5306.88 69.6921 86.8598
5309.76 69.3451 78.8633
5312.65 69.3725 78.2961
5315.54 73.7627 84.1355
5318.42 71.9283 82.0605
5321.31 71.0394 80.2105
5324.2 69.5548 80.4017
5327.08 68.2909 80.8302
5329.97 64.7436 80.2284
5332.86 71.6337 83.3979
5335.74 69.4907 80.3182
5338.63 69.0853 79.4656
5341.52 69.9807 79.8136
5344.4 71.5722 84.4341
5347.29 71.3483 82.3114
5350.17 72.8907 81.0759
5353.06 73.1046 82.0334
5355.95 74.3234 86.6347
5358.83 67.7429 84.3667
5361.72 69.836 78.8858
5364.6 69.3359 81.9046
5367.49 70.9782 81.3206
5370.37 71.6758 81.1855
5373.26 72.0183 82.3637
5376.15 68.5028 87.4625
5379.03 75.401 87.7334
5381.92 72.2244 81.7583
5384.8 73.2905 85.3582
5387.69 72.3248 83.6996
5390.57 72.1742 81.9293
5393.45 71.7205 83.7062
5396.34 72.7438 81.2261
5399.22 70.1066 82.0947
5402.11 69.646 78.9424
5404.99 70.073 82.8317
5407.88 71.6293 84.1677
5410.76 66.8712 81.6837
5413.65 73.8641 86.9435
5416.53 72.0017 83.7434
5419.41 70.1166 81.5325
5422.3 72.0484 84.9536
5425.18 72.8072 85.9474
5428.06 69.6941 81.4057
5430.95 61.048 77.9156
5433.83 72.3166 84.0944
5436.71 70.2223 82.0276
5439.6 72.9389 82.9755
5442.48 66.3429 77.3637
5445.36 68.5967 85.2196
5448.25 66.1778 82.0278
5451.13 70.1548 81.9093
5454.01 65.7311 81.1695
5456.9 70.5676 81.3059
5459.78 67.8337 80.4994
5462.66 71.9472 84.9046
5465.54 70.0084 82.7912
5468.43 71.7439 84.6972
5471.31 67.7966 84.4433
5474.19 70.2614 84.4528
5477.07 68.6982 80.0803
5479.95 67.6473 78.4584
5482.84 66.9403 78.7612
5485.72 70.7573 83.5294
5488.6 70.7458 82.3955
5491.48 71.2667 82.5757
5494.36 70.3475 80.9355
5497.24 74.871 88.5227
5500.12 73.5278 83.8873
5503.01 71.3078 82.7121
5505.89 69.4693 79.6245
5508.77 71.2992 84.7376
5511.65 69.7547 82.6219
5514.53 65.1857 80.3286
5517.41 72.046 86.7291
5520.29 71.5213 84.059
5523.17 67.225 78.1871
5526.05 67.8887 79.7287
5528.93 70.9395 83.0145
5531.81 69.5765 81.0693
5534.69 67.5284 79.6073
5537.57 72.5553 84.2806
5540.45 67.3414 86.5604
5543.33 70.0182 82.8231
5546.21 62.6907 80.9283
5549.09 69.3153 81.8887
5551.97 72.8622 84.3778
5554.85 72.0932 84.656
5557.73 69.7865 81.6103
5560.61 66.3257 86.3845
5563.49 70.4534 80.9116
5566.37 65.4599 83.433
5569.25 70.5572 82.0922
5572.13 73.721 84.7605
5575.01 50.1732 78.936
5577.88 72.6415 83.4352
5580.76 69.5879 80.7842
5583.64 54.1051 80.1393
5586.52 69.2335 81.7448
5589.4 67.3872 79.3394
5592.28 73.1084 86.1221
5595.15 71.0812 81.7155
5598.03 69.1635 79.692
5600.91 72.1703 84.3538
5603.79 75.6848 88.2873
5606.67 72.235 83.761
5609.54 69.639 84.0245
5612.42 69.3793 83.4781
5615.3 67.7007 78.8945
5618.18 67.5748 78.89
5621.05 67.5468 84.8858
5623.93 69.0895 81.2149
5626.81 67.4835 80.3257
5629.68 72.2 83.8944
5632.56 72.7244 84.6475
5635.44 71.1088 82.7343
5638.31 64.5925 80.9595
5641.19 62.4834 79.8947
5644.07 67.622 83.8428
5646.94 69.285 81.8072
5649.82 69.3935 80.8724
5652.7 65.4138 81.192
5655.57 70.4414 83.8212
5658.45 67.8323 79.5304
5661.32 70.4514 82.6362
5664.2 70.0796 81.9358
5667.08 63.0559 77.7203
5669.95 69.8618 79.2411
5672.83 72.0747 83.6065
5675.7 66.702 84.4557
5678.58 68.0216 81.8528
5681.45 63.2966 81.7371
5684.33 66.6591 78.1063
5687.2 67.2344 79.4047
5690.08 72.2844 83.4319
5692.95 69.6379 79.5944
5695.83 64.3521 79.8358
5698.7 74.2287 87.3516
5701.57 65.2337 77.2857
5704.45 73.1862 86.5525
5707.32 66.414 77.8314
5710.2 63.6913 80.5973
5713.07 63.673 79.63
5715.95 64.1163 82.6507
5718.82 71.0521 82.9754
5721.69 65.3638 77.8601
5724.57 64.6268 80.8405
5727.44 74.9584 88.8513
5730.31 69.9341 81.6264
5733.19 71.0068 83.5077
5736.06 73.7385 87.561
5738.93 64.8451 82.6034
5741.81 68.2588 80.4541
5744.68 66.4501 83.1918
5747.55 71.733 83.7521
5750.42 69.7248 82.4464
5753.3 62.7783 79.2804
5756.17 72.1889 84.8276
5759.04 68.0128 79.534
5761.91 66.7905 84.0142
5764.78 67.5257 79.875
5767.66 64.3594 81.6262
5770.53 70.5809 82.1845
5773.4 72.9006 86.6082
5776.27 71.0407 82.9716
5779.14 69.8704 80.0387
5782.01 63.1995 80.5609
5784.89 64.7314 81.8605
5787.76 65.1789 81.6057
5790.63 69.5785 82.2622
5793.5 67.1854 78.6626
5796.37 72.0435 83.9109
5799.24 65.8944 77.7489
5802.11 70.5539 82.9891
5804.98 64.4755 81.0427
5807.85 68.9539 80.5165
5810.72 71.2656 82.8286
5813.59 65.8502 82.5355
5816.46 69.7605 82.028
5819.33 71.968 83.1659
5822.2 61.8508 79.1097
5825.07 74.6825 86.898
5827.94 73.6205 84.6199
5830.81 68.9854 81.7911
5833.68 73.3738 85.2682
5836.55 68.1347 81.9371
5839.42 73.8377 88.823
5842.29 71.9055 84.4711
5845.16 64.3757 83.2041
5848.03 65.4642 82.1786
5850.9 62.768 81.4214
5853.76 59.5087 84.9477
5856.63 57.3364 83.2271
5859.5 61.8101 82.5488
5862.37 59.2529 85.666
5865.24 57.2877 84.8458
5868.11 61.2027 81.0624
5870.97 62.8923 84.8748
5873.84 60.6703 80.9232
5876.71 58.9487 82.2023
5879.58 57.1728 76.8248
5882.44 58.4365 78.594
5885.31 57.3576 76.7686
5888.18 53.1933 70.3064
5891.05 60.4691 79.5113
5893.91 49.545 78.5637
5896.78 55.9809 75.372
5899.65 60.3902 79.1203
5902.51 54.2096 81.1222
5905.38 61.4808 79.3974
5908.25 57.1935 78.9695
5911.11 58.7223 78.6034
5913.98 64.7995 82.0919
5916.85 56.1602 82.0388
5919.71 58.9772 77.7501
5922.58 62.5483 79.4487
5925.44 61.6845 80.8281
5928.31 54.4128 77.603
5931.17 58.1946 76.0206
5934.04 64.4602 82.5045
5936.91 59.9606 77.0149
5939.77 61.5055 79.2625
5942.64 57.5156 83.4091
5945.5 60.8636 78.2081
5948.37 59.9277 77.2244
5951.23 63.0346 81.2111
5954.1 63.0947 82.9791
5956.96 62.3264 80.0596
5959.82 60.9206 78.1282
5962.69 59.2814 78.6846
5965.55 61.4011 81.4231
5968.42 64.8996 82.84
5971.28 62.7625 81.2796
5974.14 63.1859 80.6219
5977.01 64.8194 83.8529
5979.87 57.7915 81.6783
5982.74 63.4293 82.0421
5985.6 61.659 80.1578
5988.46 61.1672 79.8473
5991.32 59.6146 79.6982
5994.19 60.0622 78.6272
5997.05 55.1644 78.308
5999.91 60.5628 78.5263
6002.78 59.8019 77.9042
6005.64 60.6781 78.9333
6008.5 62.6338 79.6047
6011.36 59.206 78.0583
6014.23 55.9672 78.4684
6017.09 55.1918 78.2376
6019.95 57.3152 74.5163
6022.81 58.2304 77.2003
6025.67 59.5519 77.47
6028.53 62.0847 80.6393
6031.4 61.5653 79.7796
6034.26 62.1751 80.1441
6037.12 62.159 80.5567
6039.98 57.1172 75.1289
6042.84 64.1893 82.2496
6045.7 61.4302 79.312
6048.56 60.4097 76.5415
6051.42 57.3784 80.615
6054.28 61.8735 79.8674
6057.14 58.0721 79.8638
6060 62.1491 78.7706
6062.86 59.5138 76.4061
6065.72 62.2774 79.3959
6068.58 61.2109 78.5519
6071.44 57.4647 73.5497
6074.3 61.8786 79.7421
6077.16 63.2004 80.3157
6080.02 56.2866 76.6281
6082.88 60.9874 77.4857
6085.74 58.574 81.3739
6088.6 61.1595 78.1096
6091.46 61.2363 77.555
6094.32 61.1677 80.4875
6097.17 53.7679 75.9607
6100.03 59.9181 77.5115
6102.89 61.6106 80.3106
6105.75 61.0645 77.5171
6108.61 60.389 76.8714
6111.47 60.7574 77.2095
6114.32 65.5512 84.0553
6117.18 59.9139 76.5999
6120.04 61.6034 77.8688
6122.9 61.9537 78.6132
6125.75 58.717 74.9922
6128.61 58.9645 75.1758
6131.47 59.0864 77.2884
6134.32 57.3255 77.9123
6137.18 57.9429 72.5284
6140.04 59.8371 76.3473
6142.9 56.2677 72.1133
6145.75 54.8229 75.9671
6148.61 61.4631 79.2271
6151.46 56.087 76.3179
6154.32 58.3745 75.2105
6157.18 59.817 76.4448
6160.03 56.4389 73.0063
6162.89 56.5562 73.458
6165.74 57.3597 74.248
6168.6 56.8429 72.5064
6171.45 56.8751 72.6901
6174.31 56.5927 78.0491
6177.16 58.4115 73.4158
6180.02 58.0425 74.1562
6182.87 60.5568 76.4546
6185.73 57.5961 72.948
6188.58 57.244 72.408
6191.44 61.9687 77.7091
6194.29 57.1319 71.5234
6197.15 59.2985 80.1326
6200 60.4986 77.2335
6202.85 61.7473 78.0389
6205.71 63.2196 79.4302
6208.56 62.2913 78.2414
6211.41 58.1562 79.9482
6214.27 62.8643 78.9683
6217.12 61.2839 76.5226
6219.97 57.797 79.6552
6222.83 62.0448 78.1263
6225.68 63.4332 81.9141
6228.53 64.1823 81.1451
6231.39 63.4757 80.7367
6234.24 58.759 81.8513
6237.09 62.2363 78.6111
6239.94 61.7634 79.8689
6242.79 63.4793 79.6442
6245.65 61.0923 77.8554
6248.5 61.3247 77.5606
6251.35 61.8803 82.265
6254.2 60.4077 83.8303
6257.05 67.2823 84.326
6259.9 59.2871 82.266
6262.75 65.6738 83.164
6265.61 61.414 78.3802
6268.46 62.9371 86.3748
6271.31 65.6908 83.3696
6274.16 60.779 81.1185
6277.01 61.0723 78.4633
6279.86 65.117 81.4079
6282.71 60.9365 78.4747
6285.56 68.2524 85.3924
6288.41 63.3144 79.5859
6291.26 66.632 84.5546
6294.11 55.8402 82.7491
6296.96 70.0648 85.8841
6299.81 65.7093 81.9996
6302.66 65.8164 82.9474
6305.51 69.6699 85.1882
6308.35 64.9152 81.9914
6311.2 57.8337 81.8688
6314.05 62.1498 76.8056
6316.9 64.6124 81.6126
6319.75 58.6252 80.7228
6322.6 65.6119 82.8026
6325.44 67.8632 83.6421
6328.29 59.6304 83.4512
6331.14 58.2467 80.2135
6333.99 63.3227 78.5088
6336.84 64.9595 80.4306
6339.68 59.486 80.2875
6342.53 62.7141 79.719
6345.38 68.3981 84.0847
6348.23 60.0132 81.6429
6351.07 62.1626 82.5039
6353.92 60.6756 76.364
6356.77 66.0539 80.1025
6359.61 58.0979 80.2064
6362.46 64.8166 78.6526
6365.3 65.5976 80.2366
6368.15 65.581 81.2305
6371 65.7207 81.8649
6373.84 66.6438 81.8908
6376.69 66.0593 82.0874
6379.53 63.9705 79.5073
6382.38 66.4126 81.703
6385.22 66.0299 81.1347
6388.07 66.2463 80.8809
6390.91 64.3891 77.6597
6393.76 64.3879 79.9119
6396.6 65.6116 80.8939
6399.45 68.3645 83.302
6402.29 65.9155 82.0906
6405.14 68.9452 85.0864
6407.98 63.5707 82.026
6410.82 67.899 82.7469
6413.67 66.3614 81.9293
6416.51 59.669 77.6596
6419.36 65.857 80.5058
6422.2 70.0546 84.9061
6425.04 65.216 79.6097
6427.89 64.5584 80.1796
6430.73 68.6109 81.5714
6433.57 63.6067 76.2842
6436.41 65.8674 80.8449
6439.26 65.1694 83.3571
6442.1 65.1551 79.2829
6444.94 66.0251 80.2261
6447.78 65.3059 77.8075
6450.63 66.4138 81.0671
6453.47 63.2296 81.8064
6456.31 64.0456 79.0338
6459.15 66.663 81.254
6461.99 69.7355 85.3534
6464.83 66.6801 79.844
6467.67 65.2176 77.2112
6470.51 64.9035 79.7373
6473.36 61.001 80.6157
6476.2 67.0022 80.6084
6479.04 63.0352 76.8127
6481.88 66.0255 79.6269
6484.72 62.4601 74.8801
6487.56 64.8619 77.9415
6490.4 59.7861 77.7881
6493.24 63.1357 75.961
6496.08 59.2943 72.1746
6498.92 65.708 80.8318
6501.76 62.8387 76.5946
6504.59 59.934 78.9305
6507.43 65.3628 79.2467
6510.27 61.5473 80.6334
6513.11 62.2526 75.8387
6515.95 61.4968 80.318
6518.79 61.7244 79.4534
6521.63 63.7307 77.83
6524.47 59.5957 78.0255
6527.3 69.7367 85.8576
6530.14 57.5052 76.608
6532.98 67.5986 80.7829
6535.82 65.5188 80.6364
6538.65 59.811 77.5818
6541.49 63.117 74.9581
6544.33 56.8195 75.8544
6547.17 64.4208 78.0112
6550 62.9161 75.0184
6552.84 61.7576 74.0491
6555.68 65.4637 77.5249
6558.51 57.6423 68.8089
6561.35 51.8088 69.9713
6564.18 57.5232 69.4528
6567.02 62.6227 74.9853
6569.86 63.344 75.1813
6572.69 66.6459 77.5944
6575.53 62.3892 73.7072
6578.36 67.9147 80.6632
6581.2 57.1546 73.7544
6584.03 64.0363 74.6163
6586.87 65.4674 77.775
6589.7 63.4839 76.1767
6592.54 61.4735 77.2869
6595.37 60.5773 73.4396
6598.21 66.2825 77.5997
6601.04 62.6388 75.7103
6603.87 57.8307 74.7513
6606.71 65.8005 77.2579
6609.54 59.5604 76.2294
6612.37 64.4266 77.8291
6615.21 63.3284 76.6948
6618.04 61.6867 73.4929
6620.87 61.7812 74.3458
6623.71 65.5409 77.4816
6626.54 63.5866 75.618
6629.37 64.7321 75.3853
6632.2 64.0266 76.0904
6635.04 60.0746 69.9276
6637.87 63.5826 74.669
6640.7 62.8062 74.2201
6643.53 62.2568 73.072
6646.36 64.9498 75.5139
6649.2 59.5853 74.9687
6652.03 65.2252 75.9966
6654.86 60.9315 76.6066
6657.69 60.4633 75.5947
6660.52 62.9811 73.4581
6663.35 61.6055 76.1555
6666.18 66.0794 78.1313
6669.01 65.1278 76.2569
6671.84 66.4559 76.5733
6674.67 58.0273 72.6352
6677.5 63.1899 74.0273
6680.33 63.4837 75.0687
6683.16 63.351 74.0971
6685.99 63.5915 74.203
6688.82 57.2849 70.2395
6691.65 63.8264 74.3545
6694.48 62.4829 73.2129
6697.31 62.5726 73.8961
6700.14 60.6435 74.9392
6702.97 67.103 78.033
6705.79 64.19 75.9138
6708.62 67.3371 79.616
6711.45 63.4029 74.8916
6714.28 65.1751 74.6739
6717.11 67.4176 79.0311
6719.93 57.7219 72.5486
6722.76 64.53 75.4737
6725.59 60.8718 75.875
6728.42 59.6872 74.8491
6731.24 64.213 78.5777
6734.07 65.7482 75.1471
6736.9 66.3406 78.1368
6739.72 58.5823 71.5032
6742.55 64.5832 73.9045
6745.38 62.6873 73.2723
6748.2 63.1966 72.8703
6751.03 65.416 76.2001
6753.85 66.4645 75.2987
6756.68 64.6107 76.185
6759.5 58.3348 71.3384
6762.33 65.7048 74.3286
6765.15 65.0001 74.7455
6767.98 62.4502 71.9411
6770.8 60.2534 68.9642
6773.63 67.6956 78.1331
6776.45 59.8049 72.6363
6779.28 61.634 70.9561
6782.1 61.8275 71.5392
6784.92 63.7543 72.2958
6787.75 62.2074 70.5707
6790.57 66.1499 74.7968
6793.4 61.3244 71.4976
6796.22 58.6565 72.5794
6799.04 64.3035 72.3487
6801.87 65.5808 75.1901
6804.69 64.1811 72.6549
6807.51 63.8111 72.131
6810.33 59.7296 67.8599
6813.16 63.5244 72.6265
6815.98 63.0389 72.6096
6818.8 61.3833 71.3518
6821.62 63.2668 71.4046
6824.44 59.6779 68.4937
6827.26 61.3551 70.045
6830.09 55.357 70.7875
6832.91 40.9434 66.3788
6835.73 54.1897 69.1162
6838.55 55.6013 71.6818
6841.37 52.9876 69.0179
6844.19 46.9733 65.0794
6847.01 55.3136 69.2072
6849.83 53.5244 67.3999
6852.65 51.3687 66.3611
6855.47 52.427 65.6438
6858.29 54.8009 67.6867
6861.11 51.4478 65.6174
6863.93 46.4755 58.9253
6866.75 36.5516 56.088
6869.57 42.8787 54.6238
6872.39 42.1338 53.0687
6875.2 42.2995 58.5358
6878.02 43.9253 60.2463
6880.84 47.7216 59.1733
6883.66 48.7628 61.7704
6886.48 47.4655 58.0907
6889.29 47.6973 60.0633
6892.11 45.7981 58.3981
6894.93 47.4404 60.1916
6897.75 44.5283 60.7869
6900.56 47.2298 61.6433
6903.38 50.1201 63.0451
6906.2 43.8186 60.6178
6909.01 50.2798 64.0347
6911.83 54.3322 66.9485
6914.65 49.9178 64.2254
6917.46 50.2853 64.7096
6920.28 51.8515 64.1607
6923.1 53.9783 67.4399
6925.91 54.2591 65.5924
6928.73 51.6596 65.1796
6931.54 52.5582 67.3487
6934.36 47.1467 63.8702
6937.17 54.3258 66.3579
6939.99 47.5249 65.8635
6942.8 51.0728 62.2814
6945.62 54.0268 65.5492
6948.43 51.3716 62.1749
6951.24 52.2962 65.4129
6954.06 53.2541 66.3821
6956.87 50.5235 68.093
6959.68 51.1693 67.537
6962.5 54.3213 65.9103
6965.31 115.017 136.671
6968.12 152.345 184.477
6970.94 54.8338 65.4272
6973.75 53.5526 66.5979
6976.56 55.9286 69.5095
6979.37 50.7562 62.2509
6982.19 56.6209 69.5341
6985 55.3445 71.6491
6987.81 50.3405 65.688
6990.62 52.5272 69.016
6993.43 53.7037 64.9954
6996.25 56.4107 67.9219
6999.06 53.3428 67.606
7001.87 48.7955 61.3388
7004.68 54.6198 70.685
7007.49 52.1803 64.5971
7010.3 55.7007 67.3157
7013.11 54.1459 65.067
7015.92 56.6955 66.9575
7018.73 51.8549 67.7318
7021.54 57.2825 68.161
7024.35 56.0671 69.2052
7027.16 52.3804 64.4277
7029.97 48.9731 64.7194
7032.78 54.8784 68.5576
7035.59 54.6286 65.5257
7038.39 54.6622 64.8209
7041.2 54.5032 63.5851
7044.01 50.399 61.3578
7046.82 53.8651 65.117
7049.63 53.2229 65.5757
7052.43 54.2613 64.0942
7055.24 53.1592 65.038
7058.05 55.2973 65.9536
7060.86 51.3688 66.574
7063.66 53.2649 64.6148
7066.47 50.932 60.1894
7069.28 55.1974 64.9957
7072.08 53.9468 64.9536
7074.89 52.1466 65.7603
7077.7 52.6471 63.951
7080.5 53.012 63.202
7083.31 50.1754 60.2788
7086.11 53.6001 63.2519
7088.92 53.6861 63.4186
7091.73 53.4242 65.1394
7094.53 49.1646 64.3768
7097.34 49.2993 63.6007
7100.14 52.3233 66.3184
7102.94 49.035 61.3039
7105.75 55.4682 65.3285
7108.55 49.2632 61.9883
7111.36 49.9351 62.5838
7114.16 50.5157 64.7334
7116.96 53.6549 62.3751
7119.77 53.16 67.0508
7122.57 57.2029 65.4696
7125.37 54.6336 63.9668
7128.18 53.4374 62.0319
7130.98 52.7877 62.9655
7133.78 54.1473 62.7945
7136.59 54.4318 65.0524
7139.39 55.3 63.0674
7142.19 53.1707 63.187
7144.99 54.2681 63.2809
7147.79 50.0427 61.6387
7150.59 50.8562 64.4099
7153.4 54.0239 63.1764
7156.2 53.902 64.512
7159 54.5866 64.5511
7161.8 56.4625 64.9032
7164.6 52.6865 62.4618
7167.4 54.1345 63.7936
7170.2 50.3838 61.3592
7173 52.9597 63.4975
7175.8 52.4831 59.2547
7178.6 54.1256 63.7353
7181.4 46.4509 58.097
7184.2 52.0449 60.8741
7187 50.972 57.679
7189.8 51.3353 59.7032
7192.59 56.4869 64.0607
7195.39 51.6929 58.8105
7198.19 54.2012 62.7436
7200.99 45.7175 57.8535
7203.79 55.5422 63.4091
7206.59 58.8776 65.731
7209.38 56.3862 63.6693
7212.18 55.121 63.584
7214.98 52.2221 62.8701
7217.77 56.6642 67.5657
7220.57 56.5204 65.7723
7223.37 55.1328 66.9548
7226.16 58.5571 67.2057
7228.96 56.9236 65.2993
7231.76 55.1202 65.4983
7234.55 54.9646 65.2779
7237.35 55.42 62.8021
7240.14 56.9079 60.6098
7242.94 33.5731 58.8352
7245.73 54.0605 65.03
7248.53 52.214 58.8503
7251.32 52.0753 58.7108
7254.12 59.3502 63.8402
7256.91 48.99 58.0337
7259.71 55.6144 61.9662
7262.5 53.664 61.2991
7265.3 53.1119 61.9359
7268.09 48.64 56.0157
7270.88 54.6749 60.6598
7273.68 50.6066 56.0426
7276.47 53.952 57.3028
7279.26 55.5025 61.1134
7282.05 54.4093 61.3355
7284.85 52.2332 58.4547
7287.64 50.4702 57.1653
7290.43 53.1136 62.3894
7293.22 53.7041 58.9109
7296.02 50.7127 58.6525
7298.81 54.8718 57.83
7301.6 52.8861 62.4329
7304.39 55.7653 63.2733
7307.18 54.3697 60.0972
7309.97 55.0902 62.0797
7312.76 53.1564 58.8376
7315.55 58.8324 65.4315
7318.34 51.3598 58.6684
7321.13 56.4652 64.702
7323.92 54.095 62.4502
7326.71 58.3532 64.9845
7329.5 52.7959 66.9834
7332.29 58.9593 67.6376
7335.08 58.4466 61.453
7337.87 43.4077 65.7
7340.66 53.253 60.7842
7343.45 52.0529 61.6474
7346.23 55.214 60.1895
7349.02 58.1912 63.5973
7351.81 59.0304 64.9922
7354.6 62.1096 66.3005
7357.38 45.2964 58.8073
7360.17 53.2381 57.442
7362.96 61.8858 66.9753
7365.75 56.0628 59.3831
7368.53 52.5527 65.0666
7371.32 42.3362 59.7283
7374.11 59.7143 63.6938
7376.89 51.4302 60.4676
7379.68 59.1675 65.9508
7382.46 55.7883 60.5842
7385.25 54.3539 62.6201
7388.03 60.4224 64.4345
7390.82 56.5735 60.6925
7393.6 60.4122 63.7172
7396.39 56.8672 60.2498
7399.17 58.4276 59.9444
7401.96 60.5104 64.1838
7404.74 52.7297 56.0019
7407.53 57.6183 63.1633
7410.31 54.806 57.5887
7413.09 52.6461 61.7168
7415.88 49.6572 56.2405
7418.66 53.8967 59.7342
7421.44 60.8392 67.1123
7424.22 48.7212 58.6107
7427.01 57.0852 60.3863
7429.79 47.9556 57.3841
7432.57 52.4753 56.3321
7435.35 56.8414 59.9921
7438.14 57.2155 61.1531
7440.92 59.361 62.4732
7443.7 56.87 61.1443
7446.48 59.1153 64.9475
7449.26 57.041 62.4807
7452.04 62.8553 66.9535
7454.82 57.4648 63.1294
7457.6 54.1806 59.872
7460.38 56.2251 61.8153
7463.16 61.4146 65.2332
7465.94 56.8403 61.3202
7468.72 56.8924 61.7029
7471.5 60.7971 64.8998
7474.28 58.4375 60.7777
7477.06 53.2288 64.0721
7479.84 55.2974 60.5837
7482.62 52.803 63.5043
7485.39 60.9666 63.3157
7488.17 50.5294 60.2313
7490.95 57.1946 60.693
7493.73 62.1709 64.6046
7496.51 60.8596 62.1964
7499.28 54.4803 60.0342
7502.06 57.1495 62.2045
7504.84 53.6044 57.0817
7507.61 60.081 62.06
7510.39 50.2318 58.0699
7513.17 59.3825 62.8796
7515.94 56.2222 57.1268
7518.72 54.6419 54.4712
7521.49 42.8187 57.7463
7524.27 59.2245 62.9099
7527.04 62.8624 63.037
7529.82 54.1126 55.8986
7532.59 49.4452 57.7205
7535.37 53.2912 54.2264
7538.14 54.6267 55.3854
7540.92 53.4774 53.7621
7543.69 52.5078 55.8078
7546.47 50.265 53.8354
7549.24 54.5319 56.5162
7552.01 50.2517 54.6433
7554.79 54.0397 56.7518
7557.56 51.9864 55.8107
7560.33 52.7311 55.5907
7563.1 52.5582 54.2439
7565.88 54.0636 54.9495
7568.65 49.5642 52.3981
7571.42 46.2778 59.7029
7574.19 52.5576 52.5158
7576.96 55.4869 55.9592
7579.73 52.8305 56.2624
7582.51 51.3276 51.4631
7585.28 48.0261 51.4738
7588.05 49.7032 48.2569
7590.82 39.9772 43.2481
7593.59 32.4852 36.3777
7596.36 26.6584 27.9127
7599.13 20.1821 21.0066
7601.9 18.5421 19.1962
7604.67 17.0894 18.0257
7607.44 20.0883 19.2452
7610.21 22.2372 24.9371
7612.97 29.7079 30.2427
7615.74 35.1701 34.5064
7618.51 33.1823 30.8921
7621.28 30.7768 31.2319
7624.05 29.391 33.9973
7626.81 29.9274 29.903
7629.58 30.6309 31.2586
7632.35 27.2952 29.1914
7635.12 31.3936 32.8786
7637.88 29.6986 30.4074
7640.65 34.1753 33.9432
7643.42 35.8496 35.1639
7646.18 36.0052 35.9759
7648.95 38.4008 36.6459
7651.71 41.2104 41.0405
7654.48 39.8682 39.4895
7657.25 40.2998 41.4243
7660.01 43.6072 44.0053
7662.78 42.3202 41.2258
7665.54 43.4146 43.7278
7668.31 44.6824 45.4423
7671.07 46.045 44.5782
7673.83 48.4386 48.4641
7676.6 49.4446 49.2622
7679.36 52.9301 51.5283
7682.12 49.7009 47.6167
7684.89 49.4633 52.8853
7687.65 52.6088 50.6941
7690.41 44.9084 46.5325
7693.18 50.9413 49.3713
7695.94 49.5317 52.6543
7698.7 51.0192 51.2208
7701.46 52.535 49.0597
7704.22 55.0213 52.5202
7706.99 53.2262 48.3807
7709.75 52.9204 49.2131
7712.51 56.1323 52.743
7715.27 54.311 53.8994
7718.03 43.8376 51.1019
7720.79 48.2537 52.6403
7723.55 48.7455 49.9499
7726.31 47.6014 50.1828
7729.07 44.2967 50.5147
7731.83 48.6737 51.8013
7734.59 46.2656 50.9781
7737.35 48.0786 53.0531
7740.11 42.7456 47.7968
7742.87 47.2804 51.7349
7745.62 46.0088 49.6927
7748.38 44.0102 48.804
7751.14 37.9032 49.5841
7753.9 45.8432 50.6671
7756.66 49.6966 52.3389
7759.41 46.5718 49.0299
7762.17 46.4235 46.9589
7764.93 45.3378 52.1566
7767.68 43.3229 50.0873
7770.44 49.9966 52.8485
7773.2 44.4252 46.9061
7775.95 43.4005 44.8802
7778.71 41.6879 46.5494
7781.47 47.6012 49.2457
7784.22 47.1275 51.3847
7786.98 48.5825 51.7416
7789.73 45.9256 49.2895
7792.49 45.1537 46.6561
7795.24 47.6922 47.9205
7797.99 49.0438 49.1934
7800.75 49.4186 51.4198
7803.5 46.0775 49.9162
7806.26 49.415 49.2958
7809.01 49.6379 48.3166
7811.76 47.1891 53.0453
7814.52 47.6033 48.0761
7817.27 50.848 47.5492
7820.02 49.3215 48.1186
7822.77 48.6274 48.2935
7825.52 42.5287 49.0569
7828.28 47.6174 52.286
7831.03 52.2383 54.4872
7833.78 56.4122 60.0663
7836.53 56.3275 59.7692
7839.28 56.0508 59.45
7842.03 55.158 53.9706
7844.78 46.8598 50.5771
7847.53 52.3798 49.9012
7850.28 43.6719 42.2743
7853.03 51.9435 46.8127
7855.78 44.511 43.9218
7858.53 45.6236 47.0252
7861.28 47.1682 51.3036
7864.03 49.311 51.3474
7866.78 43.5026 44.4055
7869.53 48.4219 48.8938
7872.28 44.5492 43.9021
7875.02 43.0419 46.7774
7877.77 45.5533 42.3664
7880.52 45.2328 45.209
7883.27 43.6939 39.8538
7886.01 50.9793 46.0767
7888.76 47.5819 46.7558
7891.51 46.9706 47.2443
7894.25 47.1115 48.4066
7897 45.7585 43.989
7899.74 42.7347 45.0901
7902.49 44.0417 45.3594
7905.24 49.3632 46.341
7907.98 46.735 39.4537
7910.73 43.8036 45.7175
7913.47 49.2089 38.0981
7916.22 40.1811 44.0876
7918.96 44.4929 43.3642
7921.7 44.1828 41.4344
7924.45 50.1122 46.3962
7927.19 48.0375 45.234
7929.93 45.1928 43.2483
7932.68 45.7481 47.7682
7935.42 45.0891 44.5882
7938.16 40.9493 37.6489
7940.91 46.7598 45.336
7943.65 44.8315 40.3169
7946.39 40.7468 39.665
7949.13 49.4236 46.7676
7951.87 50.8525 50.0497
7954.62 44.1427 42.4461
7957.36 48.9578 41.8512
7960.1 47.4837 42.1704
7962.84 44.6323 43.9197
7965.58 41.0357 39.9536
7968.32 40.0727 39.0301
7971.06 48.9245 42.8539
7973.8 47.0704 43.1037
7976.54 49.5122 43.1397
7979.28 47.1001 43.9111
7982.02 46.8887 42.0942
7984.75 45.8048 42.8491
7987.49 50.1189 44.874
7990.23 43.6056 42.0907
7992.97 47.6356 43.3842
7995.71 54.1409 54.8935
7998.44 45.8303 41.2066
8001.18 46.6775 41.5965
8003.92 48.5133 45.7139
8006.66 49.6742 44.3274
8009.39 49.2112 45.4053
8012.13 46.7994 40.6342
8014.87 52.9517 46.3852
8017.6 52.8058 45.5644
8020.34 53.3401 48.8329
8023.07 52.4006 48.2973
8025.81 53.5561 44.4221
8028.54 50.2679 40.1752
8031.28 49.7822 46.9838
8034.01 54.6493 49.0664
8036.75 48.3837 43.2271
8039.48 53.4539 47.5754
8042.21 52.0148 47.2343
8044.95 53.8451 48.8732
8047.68 52.3471 44.3108
8050.41 48.0669 40.3558
8053.15 53.1532 46.9271
8055.88 52.2263 44.1599
8058.61 51.5363 46.6896
8061.34 54.3554 46.1069
8064.08 51.6256 45.9713
8066.81 52.335 47.0392
8069.54 53.3018 49.8861
8072.27 53.5715 42.8972
8075 50.3781 44.8009
8077.73 50.833 47.7162
8080.46 51.6938 46.348
8083.19 51.7891 46.0416
8085.92 47.096 42.76
8088.65 46.6438 42.2054
8091.38 49.9805 44.0941
8094.11 53.2609 43.857
8096.84 51.0635 42.0017
8099.57 49.1697 42.457
8102.3 51.7373 44.1376
8105.03 50.7929 42.5199
8107.75 50.9536 38.9418
8110.48 49.9997 45.5225
8113.21 49.9935 43.33
8115.94 51.3981 43.5803
8118.66 49.0782 42.6216
8121.39 48.7136 42.2853
8124.12 51.8833 44.6461
8126.84 53.7184 46.3662
8129.57 50.7906 43.4808
8132.3 42.047 36.2262
8135.02 48.2989 38.1588
8137.75 47.7505 42.0333
8140.47 47.9179 37.1843
8143.2 47.1229 38.72
8145.92 46.6797 44.1746
8148.65 45.5047 38.3365
8151.37 47.6253 38.8332
8154.09 48.1067 41.3532
8156.82 45.879 40.4404
8159.54 44.5993 38.4464
8162.26 46.2413 37.6206
8164.99 45.1019 38.601
8167.71 48.7963 40.4463
8170.43 48.436 36.5442
8173.15 45.2107 39.3718
8175.88 44.9367 36.5583
8178.6 47.8355 40.9368
8181.32 44.7224 37.1132
8184.04 44.3609 37.1584
8186.76 45.9186 38.3314
8189.48 49.1536 40.4764
8192.2 51.1711 43.1205
8194.92 45.1745 35.2444
8197.64 44.2574 37.0098
8200.36 45.7215 37.3229
8203.08 52.2462 41.6975
8205.8 47.432 38.0594
8208.52 44.5019 39.0148
8211.24 47.5309 38.9859
8213.96 52.0977 39.2836
8216.68 47.4371 41.0335
8219.39 44.1959 36.44
8222.11 48.8223 39.1233
8224.83 45.2975 35.7518
8227.55 37.622 29.5575
8230.26 47.4636 38.8106
8232.98 41.692 33.1917
8235.7 49.213 37.6829
8238.41 49.0887 37.5327
8241.13 48.3916 36.9774
8243.84 49.6292 37.1299
8246.56 51.7899 39.3905
8249.28 51.7237 42.4614
8251.99 51.2247 41.172
8254.71 45.5649 30.9788
8257.42 49.2807 37.4938
8260.13 47.5213 36.659
8262.85 51.5798 39.5067
8265.56 46.4085 36.6628
8268.28 48.1754 37.355
8270.99 49.1777 38.5146
8273.7 47.8258 38.2577
8276.41 48.8219 38.2445
8279.13 48.1945 32.4152
8281.84 39.291 33.5505
8284.55 38.5855 21.5254
8287.26 42.7972 30.6102
8289.97 47.6332 30.7708
8292.69 46.6438 28.2837
8295.4 44.0464 33.3349
8298.11 46.5119 39.8361
8300.82 37.4296 18.4072
8303.53 47.5664 33.6852
8306.24 42.5699 34.4546
8308.95 47.551 36.5126
8311.66 46.295 30.868
8314.37 51.1181 38.9509
8317.07 42.3951 34.6347
8319.78 48.2432 34.6167
8322.49 48.8238 35.2977
8325.2 43.92 33.5629
8327.91 46.6174 33.539
8330.62 48.7951 38.0357
8333.32 47.2851 34.797
8336.03 47.4434 32.5484
8338.74 50.6063 31.9261
8341.44 49.8887 31.3362
8344.15 49.9855 33.6766
8346.86 43.4152 27.8696
8349.56 46.5466 28.3809
8352.27 43.5799 37.2551
8354.97 37.6239 29.2763
8357.68 48.8858 36.8786
8360.38 51.0165 41.0892
8363.09 44.0596 29.6533
8365.79 49.4865 32.7679
8368.5 51.3172 34.2354
8371.2 45.5294 35.84
8373.9 47.0612 33.8054
8376.61 44.8347 33.5384
8379.31 48.5633 40.8473
8382.01 49.1687 31.6049
8384.71 47.6985 33.3629
8387.42 42.9442 31.1445
8390.12 55.1672 39.1153
8392.82 52.2491 39.577
8395.52 55.9807 36.4001
8398.22 395.274 262.073
8400.92 308.452 207.774
8403.62 46.6932 26.5602
8406.32 50.0082 32.3509
8409.02 50.7068 35.827
8411.72 44.4954 30.7521
8414.42 47.9738 30.3072
8417.12 46.5482 32.7642
8419.82 50.3058 32.7089
8422.52 44.2748 30.6139
8425.22 46.8895 30.3741
8427.92 46.2243 27.0917
8430.62 47.84 28.6629
8433.31 34.3555 25.8425
8436.01 40.558 25.6542
8438.71 24.0432 17.6611
8441.41 31.8431 22.9806
8444.1 34.8677 27.0709
8446.8 43.1794 28.3578
8449.49 51.7292 30.4546
8452.19 45.7464 32.7677
8454.89 49.0571 30.0957
8457.58 46.6154 29.4234
8460.28 44.7513 32.2977
8462.97 46.9232 31.0596
8465.67 50.49 31.9749
8468.36 38.3669 25.0781
8471.05 46.2263 29.5895
8473.75 49.0128 32.2172
8476.44 45.42 28.0775
8479.13 46.7354 30.5092
8481.83 50.4023 34.0663
8484.52 42.0781 24.9624
8487.21 47.2773 31.6799
8489.91 47.0578 30.5673
8492.6 45.6957 31.3213
8495.29 40.4478 26.5505
8497.98 43.8895 24.6146
8500.67 43.6591 22.6575
8503.36 47.6684 29.8709
8506.05 49.7018 21.4999
8508.74 44.9748 24.2254
8511.43 41.3343 29.5034
8514.12 48.8501 28.5817
8516.81 46.6061 27.6775
8519.5 46.3658 30.0759
8522.19 47.0702 28.8236
8524.88 47.436 27.6331
8527.57 43.7992 29.6909
8530.26 43.1302 26.7467
8532.94 44.5869 30.1799
8535.63 46.7871 31.3867
8538.32 40.9826 26.8112
8541.01 41.5264 26.9311
8543.69 38.9712 21.5781
8546.38 42.1448 24.0849
8549.07 37.0157 27.7016
8551.75 40.1868 30.6873
8554.44 41.9956 32.277
8557.12 41.8165 33.1137
8559.81 42.345 33.6051
8562.49 42.5368 29.2585
8565.18 38.6114 26.8569
8567.86 40.7339 29.7964
8570.55 38.4113 23.7113
8573.23 44.5108 30.0234
8575.91 41.1038 29.2283
8578.6 41.5435 28.0062
8581.28 42.7578 29.2302
8583.96 42.0669 23.7286
8586.64 41.968 27.3417
8589.33 45.373 29.4272
8592.01 42.3782 28.5078
8594.69 41.3727 27.9814
8597.37 40.8377 27.077
8600.05 41.0348 32.2121
8602.73 40.374 26.2625
8605.41 39.2062 28.6493
8608.09 42.3771 26.0688
8610.77 36.2946 25.4006
8613.45 45.234 30.0147
8616.13 41.3817 25.6373
8618.81 37.3881 21.644
8621.49 42.4716 26.599
8624.17 43.2541 23.068
8626.85 42.0778 29.1833
8629.53 42.0761 27.995
8632.2 47.7679 27.2082
8634.88 35.2552 29.0461
8637.56 41.2233 20.3164
8640.24 42.4047 25.3985
8642.91 39.6541 27.3425
8645.59 41.0417 26.592
8648.26 37.381 28.6605
8650.94 40.6846 29.0682
8653.62 34.6137 29.1103
8656.29 44.919 21.9226
8658.97 37.2695 21.6866
8661.64 35.9962 28.4676
8664.32 38.868 22.6413
8666.99 37.8441 22.0321
8669.66 47.8499 25.477
8672.34 38.2924 27.1876
8675.01 36.906 27.3342
8677.68 38.4229 25.8373
8680.36 40.2404 24.9107
8683.03 44.302 25.6026
8685.7 38.3354 26.1652
8688.37 42.3481 26.0055
8691.04 40.3898 23.1629
8693.72 39.465 24.9206
8696.39 43.4252 25.5755
8699.06 44.695 25.3825
8701.73 36.702 25.9024
8704.4 41.358 23.0744
8707.07 41.8661 24.9584
8709.74 40.1754 26.3056
8712.41 41.879 26.4342
8715.08 40.0064 24.2597
8717.75 44.8373 25.367
8720.41 41.5733 24.1842
8723.08 39.728 23.9464
8725.75 46.8501 26.9657
8728.42 40.2446 25.224
8731.09 42.0695 23.5169
8733.75 42.0428 23.4233
8736.42 44.3294 28.5387
8739.09 40.6044 25.8685
8741.75 41.8672 23.2363
8744.42 40.4156 22.2491
8747.08 47.665 27.382
8749.75 39.9938 22.6564
8752.41 40.2542 24.1113
8755.08 48.6877 28.521
8757.74 45.0673 29.6848
8760.41 38.6797 18.6853
8763.07 38.04 24.8498
8765.74 36.9975 18.3892
8768.4 37.5466 11.6006
8771.06 39.6622 27.5651
8773.73 33.8114 20.8031
8776.39 46.6822 24.7706
8779.05 41.0407 21.1546
8781.71 40.0473 16.5306
8784.37 39.1164 21.0875
8787.04 40.4736 18.7141
8789.7 37.2123 24.8853
8792.36 37.0147 22.9062
8795.02 38.2224 19.6538
8797.68 33.8174 16.3894
8800.34 38.9896 21.9461
8803 43.1921 22.8206
8805.66 39.9029 17.4781
8808.32 38.5574 22.629
8810.98 35.6282 19.6105
8813.63 41.6239 23.2806
8816.29 40.6852 23.3989
8818.95 41.1163 23.2988
8821.61 40.701 32.252
8824.27 45.4307 23.8343
8826.92 54.8892 32.2765
8829.58 32.4772 13.7086
8832.24 33.5837 17.8387
8834.89 44.0736 11.2868
8837.55 36.9155 9.52299
8840.2 41.0375 16.4712
8842.86 38.4802 16.8201
8845.51 39.0614 20.1441
8848.17 46.0329 23.124
8850.82 37.8964 23.9946
8853.48 40.9444 20.0835
8856.13 45.986 20.9054
8858.78 44.4057 19.2252
8861.44 38.7814 21.5573
8864.09 43.575 25.5066
8866.74 42.6981 24.0217
8869.4 44.4248 23.8985
8872.05 47.1923 21.3777
8874.7 39.2473 11.5718
8877.35 47.9403 21.5377
8880 48.0603 22.8638
8882.65 49.182 33.0531
8885.3 42.9961 20.5033
8887.96 45.3228 20.0059
8890.61 46.1598 21.4536
8893.25 38.1844 6.85968
8895.9 43.5472 17.3895
8898.55 42.4612 17.845
8901.2 44.984 30.5676
8903.85 47.9127 22.4156
8906.5 35.0094 13.5649
8909.15 43.4224 24.7191
8911.8 49.2046 19.0146
8914.44 49.1727 22.0976
8917.09 45.4341 24.2781
8919.74 48.2716 27.1109
8922.38 49.4673 16.8759
8925.03 33.7302 5.13859
8927.68 35.7345 6.9122
8930.32 39.8672 9.21486
8932.97 41.9598 14.0125
8935.61 42.6856 19.9136
8938.26 44.3706 19.5504
8940.9 41.6061 22.8412
8943.54 43.5486 14.199
8946.19 39.7446 19.5544
8948.83 39.5534 18.7788
8951.48 32.327 15.1264
8954.12 42.0038 14.9996
8956.76 47.3627 18.9713
8959.4 44.4242 18.2716
8962.05 35.9271 11.7235
8964.69 37.0197 4.20998
8967.33 35.4558 8.91508
8969.97 33.7105 10.2701
8972.61 37.2118 12.8612
8975.25 36.8106 15.9161
8977.89 44.2781 15.1113
8980.53 39.2394 17.7206
8983.17 36.9223 17.872
8985.81 39.8694 21.6822
8988.45 35.0161 16.2134
8991.09 35.6284 21.7392
8993.73 29.9313 20.488
8996.36 37.8839 10.0176
8999 42.6038 18.4647
9001.64 39.0063 18.0376
9004.28 39.0841 8.39407
9006.91 37.9898 14.1248
9009.55 34.3011 14.1399
9012.19 44.9736 15.1054
9014.82 37.4683 15.0455
9017.46 41.112 19.6659
9020.09 41.5398 18.1498
9022.73 43.4086 16.8543
9025.36 41.8944 17.7496
9028 42.4775 17.3258
9030.63 42.3019 14.5362
9033.27 44.936 19.3759
9035.9 43.3519 18.8673
9038.53 44.9662 19.7659
9041.17 45.5569 20.6277
9043.8 39.5445 17.2341
9046.43 44.9553 18.8327
9049.06 40.813 16.9899
9051.7 35.2215 14.043
9054.33 37.3757 18.6599
9056.96 39.4894 9.51098
9059.59 35.8012 13.1254
9062.22 41.6192 17.3087
9064.85 42.8942 20.1533
