wavelength spec_sum spec_optimal
3525.79 51.9742 46.7364
3528.7 52.5999 38.212
3531.62 55.5605 49.3286
3534.53 61.5297 56.9883
3537.45 64.8452 54.4767
3540.36 76.0826 63.9707
3543.28 63.2546 52.5403
3546.2 58.3127 55.1753
3549.11 52.2391 49.4943
3552.03 57.7441 50.4105
3554.94 64.0258 59.3359
3557.86 55.0508 49.6476
3560.78 48.8109 42.6979
3563.69 35.8671 31.7462
3566.61 48.9154 43.4043
3569.52 51.0392 44.0158
3572.44 39.2377 30.1033
3575.35 41.4526 34.5086
3578.27 47.9066 42.0657
3581.19 34.357 32.646
3584.1 49.5202 42.2106
3587.02 57.9793 49.1024
3589.93 65.9913 60.7594
3592.85 61.7134 56.3864
3595.77 63.4647 55.623
3598.68 60.4205 50.093
3601.6 69.896 58.0145
3604.51 50.2327 42.3933
3607.43 64.8702 56.9604
3610.35 55.0719 47.4656
3613.26 56.7858 50.6183
3616.18 56.2052 43.6193
3619.09 60.2907 54.8349
3622.01 78.7845 67.1943
3624.92 72.8067 61.2257
3627.84 57.7184 52.7309
3630.76 70.6357 58.4735
3633.67 70.1713 66.0012
3636.59 70.452 63.8181
3639.5 70.0264 55.05
3642.42 65.9506 58.9762
3645.34 67.3346 57.7014
3648.25 70.2128 62.9299
3651.17 76.7668 67.7142
3654.08 70.7019 65.5633
3657 79.6744 76.0379
3659.92 76.2236 67.8615
3662.83 76.9295 72.7339
3665.75 78.9164 73.5367
3668.66 77.0362 67.9914
3671.58 78.9154 72.1801
3674.5 76.0656 68.6858
3677.41 73.2212 64.3556
3680.33 59.3201 55.592
3683.24 69.0222 63.2387
3686.16 73.2669 65.6149
3689.08 71.9751 60.4833
3691.99 74.827 68.0567
3694.91 75.2305 67.069
3697.82 72.3505 61.6752
3700.74 61.956 54.3175
3703.65 67.9044 60.336
3706.57 78.1745 66.9773
3709.49 79.5161 67.7424
3712.4 66.9426 61.413
3715.32 61.6799 50.8309
3718.23 66.6084 61.047
3721.15 65.0259 57.4983
3724.07 74.417 72.7581
3726.98 57.1209 49.9625
3729.9 61.8198 51.3714
3732.81 58.6101 53.2211
3735.73 60.2949 53.0105
3738.64 60.001 55.1216
3741.56 52.3677 43.8323
3744.48 48.0832 43.2323
3747.39 51.4527 46.8346
3750.31 63.9565 58.4015
3753.22 65.8254 62.2228
3756.14 70.1767 60.4807
3759.06 63.1581 56.5476
3761.97 76.2382 69.5053
3764.89 78.2465 71.22
3767.8 87.1469 78.2968
3770.72 84.7117 76.507
3773.63 86.523 80.1527
3776.55 83.8714 79.3074
3779.47 88.3447 87.7803
3782.38 84.8 76.3378
3785.3 81.9415 73.7994
3788.21 81.9563 77.9083
3791.13 79.5186 74.6421
3794.04 74.2778 69.7013
3796.96 75.6041 68.7142
3799.88 76.5361 70.158
3802.79 76.8737 70.2395
3805.71 73.5157 68.2117
3808.62 79.3905 70.8654
3811.54 63.698 58.6672
3814.45 60.549 57.4448
3817.37 57.577 53.1825
3820.29 48.7499 46.1899
3823.2 47.5827 44.8897
3826.12 45.8107 44.6376
3829.03 43.6922 42.6549
3831.95 43.9998 41.7303
3834.86 45.5117 45.8531
3837.78 49.2644 40.9682
3840.7 57.3367 55.4172
3843.61 66.7984 60.0525
3846.53 59.1965 58.0145
3849.44 66.9867 62.7003
3852.36 54.8728 53.6163
3855.27 58.0011 52.8183
3858.19 55.1376 52.2172
3861.1 60.2632 56.9581
3864.02 58.4229 53.4127
3866.93 56.6584 52.8455
3869.85 54.7279 48.9211
3872.77 57.1836 52.6082
3875.68 57.3135 56.7021
3878.6 57.2481 53.3396
3881.51 55.9898 52.5766
3884.43 64.3451 58.2796
3887.34 72.9753 68.7875
3890.26 72.7098 69.2881
3893.17 76.2494 67.9689
3896.09 71.0106 65.6509
3899 68.5769 61.9162
3901.92 70.6539 62.8536
3904.83 80.6327 71.1921
3907.75 81.6118 75.8433
3910.66 90.0105 83.9736
3913.58 86.5388 77.8245
3916.5 76.6623 71.8289
3919.41 75.9601 69.6883
3922.33 59.4571 57.0522
3925.24 54.1463 48.9665
3928.16 45.1802 39.1841
3931.07 38.9105 35.8554
3933.99 48.9042 45.079
3936.9 48.696 47.7239
3939.82 58.8495 56.1829
3942.73 59.0632 60.117
3945.65 67.9848 66.4145
3948.56 72.6689 72.2259
3951.48 77.5469 78.851
3954.39 74.0831 72.668
3957.31 67.1864 66.6385
3960.22 59.4735 60.4218
3963.14 48.0326 46.3351
3966.05 45.9005 46.2472
3968.97 46.646 46.0039
3971.88 64.4046 63.6201
3974.8 69.2852 70.2328
3977.71 73.6588 72.7894
3980.63 84.6099 86.7117
3983.54 90.4448 90.2679
3986.46 105.98 106.673
3989.37 107.136 108.015
3992.28 106.469 108.9
3995.2 104.216 102.403
3998.11 112.051 114.299
4001.03 113.804 113.926
4003.94 110.526 112.274
4006.86 117.35 118.873
4009.77 114.047 115.099
4012.69 121.406 123.794
4015.6 121.972 123.13
4018.52 118.444 121.068
4021.43 123.508 127.049
4024.35 116.287 117.636
4027.26 111.397 115.722
4030.17 108.289 110.14
4033.09 116.211 117.623
4036 112.45 112.837
4038.92 112.197 115.322
4041.83 106.366 108.455
4044.75 104.503 104.995
4047.66 110.658 112.035
4050.58 112.598 114.29
4053.49 109.634 110.887
4056.4 113.285 112.41
4059.32 106.71 108.412
4062.23 105.817 105.53
4065.15 106.815 109.234
4068.06 110.901 110.989
4070.98 106.427 103.776
4073.89 106.521 108.27
4076.8 107.164 109.857
4079.72 118.798 119.663
4082.63 124.478 125.658
4085.55 123.054 125.962
4088.46 130.127 130.237
4091.37 124.657 128.132
4094.29 105.753 106.971
4097.2 109.995 108.941
4100.12 109.183 113.938
4103.03 115.748 114.797
4105.94 120.553 119.646
4108.86 117.892 117.963
4111.77 123.272 120.523
4114.68 126.311 128.514
4117.6 129.7 128.269
4120.51 128.648 130.295
4123.43 132.772 132.127
4126.34 128.182 127.272
4129.25 117.985 118.586
4132.17 119.854 120.296
4135.08 129.22 128.006
4137.99 135.021 134.09
4140.91 121.112 122.735
4143.82 118.001 121.145
4146.73 128.353 128.811
4149.65 129.179 130.441
4152.56 123.725 126.05
4155.47 126.512 127.342
4158.39 129.46 132.262
4161.3 127.369 132.174
4164.21 130.862 132.394
4167.13 126.78 129.893
4170.04 122.586 125.121
4172.95 114.375 117.703
4175.87 124.612 128.574
4178.78 123.196 125.271
4181.69 115.769 116.972
4184.61 120.702 125.827
4187.52 119.737 123.877
4190.43 123.401 124.913
4193.35 116.428 116.906
4196.26 113.679 116.677
4199.17 117.758 118.834
4202.08 115.157 116.179
4205 119.89 122.506
4207.91 124.064 128.903
4210.82 125.275 128.133
4213.74 122.113 128.487
4216.65 118.541 120.215
4219.56 118.07 121.054
4222.47 106.542 111.4
4225.39 106.838 110.144
4228.3 117.064 121.616
4231.21 115.752 120.183
4234.12 113.374 117.057
4237.04 117.593 121.349
4239.95 119.666 121.036
4242.86 117.373 121.024
4245.77 121.234 122.071
4248.69 111.801 118.846
4251.6 112.369 117.243
4254.51 120.346 123.079
4257.42 115.689 120.616
4260.33 113.168 120.061
4263.25 120.547 124.468
4266.16 113 116.731
4269.07 111.694 112.813
4271.98 113.639 117.292
4274.9 111.903 114.812
4277.81 118.108 121.692
4280.72 113.895 118.051
4283.63 116.614 119.894
4286.54 112.677 115.134
4289.45 109.885 112.423
4292.37 106.287 109.152
4295.28 103.127 104.597
4298.19 91.2285 93.9798
4301.1 95.3522 97.3188
4304.01 87.0669 87.8436
4306.92 86.0663 91.1855
4309.84 97.6885 98.1849
4312.75 113.565 116.309
4315.66 119.38 121.455
4318.57 122.71 125.066
4321.48 111.586 117.203
4324.39 112.183 116.21
4327.31 128.3 129.305
4330.22 130.756 133.404
4333.13 126.915 127.892
4336.04 121.192 121.845
4338.95 122.329 123.5
4341.86 124.802 127.766
4344.77 132.605 136.298
4347.68 127.645 130.918
4350.59 128.38 132.983
4353.51 130.82 135.885
4356.42 126.059 129.956
4359.33 130.321 132.74
4362.24 138.699 142.823
4365.15 133.357 139.327
4368.06 132.281 136.547
4370.97 135.588 139.694
4373.88 129.479 132.788
4376.79 128.519 129.394
4379.7 120.979 125.487
4382.61 114.562 118.864
4385.52 122.72 127.248
4388.43 117.428 121.299
4391.34 123.855 128.096
4394.25 128.334 132.455
4397.17 127.597 129.539
4400.08 123.468 129.208
4402.99 124.455 127.998
4405.9 128.133 133.634
4408.81 133.192 135.661
4411.72 127.615 132.952
4414.63 136.517 141.328
4417.54 136.464 143.353
4420.45 140.316 144.246
4423.36 142.234 148.075
4426.27 141.231 146.973
4429.18 135.917 140.379
4432.09 141.131 148.321
4435 145.226 151.713
4437.91 140.732 147.293
4440.82 143.612 148.428
4443.73 143.301 150.712
4446.63 147.619 154.412
4449.54 148.112 153.841
4452.45 139.919 145.23
4455.36 135.056 141.219
4458.27 137.412 142.565
4461.18 143.356 148.873
4464.09 143.553 148.834
4467 144.166 149.554
4469.91 149.065 154.423
4472.82 148.121 155.266
4475.73 157.184 163.611
4478.64 148.674 154.809
4481.55 149.305 157.468
4484.46 152.334 159.253
4487.36 146.504 156.135
4490.27 150.973 157.034
4493.18 159.053 164.528
4496.09 155.134 160.67
4499 150.199 159.584
4501.91 164.314 171.232
4504.82 165.029 174.86
4507.73 169.298 177.086
4510.63 163.329 170.191
4513.54 159.023 166.704
4516.45 156.188 163.137
4519.36 163.799 170.141
4522.27 153.923 160.738
4525.18 143.751 149.129
4528.08 139.503 147.611
4530.99 145.879 152.609
4533.9 147.138 157.197
4536.81 148.834 156.689
4539.72 148.724 153.765
4542.62 152.093 158.747
4545.53 144.918 155.435
4548.44 154.893 159.334
4551.35 153.364 159.83
4554.26 154.072 161.931
4557.16 155.95 163.299
4560.07 160.659 168.365
4562.98 165.285 172.894
4565.89 162.005 169.761
4568.79 158.038 167.414
4571.7 160.586 168.511
4574.61 168.135 178.817
4577.52 160.142 168.831
4580.42 148.908 157.594
4583.33 150.25 157.071
4586.24 162.598 169.42
4589.15 159.39 166.862
4592.05 150.869 158.84
4594.96 159.692 167.834
4597.87 154.629 163.969
4600.77 162.687 170.901
4603.68 159.132 166.095
4606.59 163.921 173.495
4609.49 165.012 173.343
4612.4 166.926 176.235
4615.31 163.271 172.329
4618.21 156.143 168.136
4621.12 163.407 172.241
4624.03 167.119 175.354
4626.93 168.118 177.725
4629.84 164.31 171.15
4632.75 158.479 166.588
4635.65 162.166 170.463
4638.56 160.336 168.784
4641.46 156.092 166.242
4644.37 154.136 167.117
4647.28 152.142 160.132
4650.18 152.051 165.484
4653.09 155.797 165.657
4655.99 157.708 170.014
4658.9 158.742 167.757
4661.81 155.597 166.472
4664.71 150.148 159.363
4667.62 157.447 166.256
4670.52 149.787 160.906
4673.43 152.881 161.954
4676.33 156.89 167.209
4679.24 157.185 165.417
4682.15 158.282 169.478
4685.05 154.292 163.12
4687.96 151.382 162.372
4690.86 159.478 170.987
4693.77 156.639 168.059
4696.67 163.334 171.537
4699.58 150.499 161.886
4702.48 153.697 165.268
4705.39 152.789 162.343
4708.29 154.415 165.504
4711.2 160.032 173.544
4714.1 165.337 178.433
4717 161.943 174.836
4719.91 166.597 178.708
4722.81 168.298 181.342
4725.72 167.161 177.284
4728.62 154.302 166.467
4731.53 159.804 169.164
4734.43 157.385 167.341
4737.34 163.186 173.682
4740.24 166.425 176.886
4743.14 163.183 175.512
4746.05 171.917 184.985
4748.95 166.192 180.052
4751.86 162.5 173.723
4754.76 163.852 176.22
4757.66 162.371 173.502
4760.57 162.081 172.481
4763.47 158.905 171.15
4766.37 155.808 168.71
4769.28 163.911 175.298
4772.18 160.997 173.87
4775.08 167.403 179.51
4777.99 166.243 176.167
4780.89 158.785 170.875
4783.79 161.813 177.123
4786.7 161.122 173.951
4789.6 159.092 171.511
4792.5 159.536 171.186
4795.41 161.242 173.064
4798.31 161.657 172.805
4801.21 158.639 171.515
4804.11 156.94 169.084
4807.02 163.856 176.638
4809.92 160.958 172.555
4812.82 163.174 175.284
4815.72 161.569 174.166
4818.63 162.877 176.268
4821.53 162.315 176.897
4824.43 163.839 175.794
4827.33 157.669 170.439
4830.24 160.911 174.594
4833.14 162.725 176.02
4836.04 164.216 177.711
4838.94 158.293 174.729
4841.84 160.968 173.915
4844.75 162.364 174.467
4847.65 163.217 176.845
4850.55 158.63 174.207
4853.45 153.221 166.182
4856.35 149.661 161.001
4859.25 138.269 149.66
4862.16 147.136 158.087
4865.06 150.104 162.936
4867.96 144.197 155.217
4870.86 155.936 168.962
4873.76 158.288 170.786
4876.66 158.79 173.07
4879.56 159.784 174.767
4882.46 160.628 175.785
4885.36 162.297 175.144
4888.26 160.296 174.191
4891.17 161.704 175.865
4894.07 171.847 189.184
4896.97 173.867 189.064
4899.87 181.42 196.153
4902.77 171.421 187.584
4905.67 169.965 184.264
4908.57 169.81 185.125
4911.47 167.885 185.606
4914.37 171.757 186.034
4917.27 161.914 175.098
4920.17 155.666 169.994
4923.07 161.949 177.063
4925.97 165.743 181.399
4928.87 170.6 188.654
4931.77 171.554 186.517
4934.67 164.465 180.942
4937.57 160.253 175.093
4940.47 168.079 184.303
4943.37 171.474 188.733
4946.26 173.583 189.708
4949.16 167.867 184.128
4952.06 162.411 177.709
4954.96 160.38 174.62
4957.86 162.823 179.957
4960.76 161.443 178.245
4963.66 166.879 183.069
4966.56 165.788 182.392
4969.46 166.674 183.18
4972.36 161.317 178.874
4975.25 172.875 189.617
4978.15 162.867 179.755
4981.05 154.925 170.369
4983.95 155.425 170.287
4986.85 160.009 177.527
4989.75 162.967 180.25
4992.64 167.707 185.523
4995.54 163.738 181.703
4998.44 164.926 183.045
5001.34 161.626 179.521
5004.24 153.317 168.977
5007.13 156.597 176.119
5010.03 156.747 173.665
5012.93 155.492 170.628
5015.83 155.954 175.539
5018.72 155.44 175.351
5021.62 160.858 180.167
5024.52 158.888 175.241
5027.42 165.25 183.885
5030.31 166.765 188.939
5033.21 162.985 181.191
5036.11 160.228 179.695
5039 157.594 174.315
5041.9 160.46 179.768
5044.8 162.689 179.025
5047.69 164.487 180.669
5050.59 165.162 187.017
5053.49 169.216 188.471
5056.38 169.446 187.859
5059.28 175.297 195.745
5062.18 172.498 192.895
5065.07 164.712 183.172
5067.97 174.076 193.913
5070.86 167.852 188.33
5073.76 164.944 186.888
5076.66 162.437 180.884
5079.55 164.19 183.571
5082.45 157.369 175.792
5085.34 157.594 179.525
5088.24 163.654 185.731
5091.13 164.731 185.304
5094.03 164.985 184.238
5096.92 159.181 179.652
5099.82 164.647 185.556
5102.71 160.189 182.692
5105.61 168.076 188.44
5108.5 163.489 184.313
5111.4 161.908 184.065
5114.29 170.979 192.019
5117.19 162.731 180.811
5120.08 167.012 186.853
5122.98 163.03 181.512
5125.87 159.508 177.435
5128.77 161.572 181.475
5131.66 158.385 178.58
5134.56 163.338 185.822
5137.45 156.845 178.371
5140.34 157.559 176.809
5143.24 153.763 172.932
5146.13 164.421 187.431
5149.03 163.708 185.514
5151.92 164.887 185.41
5154.81 167.154 187.542
5157.71 165.378 189.555
5160.6 165.699 187.386
5163.49 154.018 172.506
5166.39 141.612 158.53
5169.28 137.453 156.319
5172.17 140.708 158.563
5175.07 152.383 172.375
5177.96 152.556 173.755
5180.85 144.893 161.722
5183.74 145.36 164.199
5186.64 153.369 174.488
5189.53 156.927 177.3
5192.42 162.379 184.229
5195.31 165.529 191.077
5198.21 166.218 189.522
5201.1 171.836 198.541
5203.99 168.081 191.447
5206.88 164.901 187.902
5209.78 172.164 199.974
5212.67 170.948 199.368
5215.56 172.567 194.861
5218.45 176.673 205.108
5221.34 181.484 207.226
5224.23 174.125 198.321
5227.13 170.496 199.152
5230.02 173.39 198.697
5232.91 179.655 205.089
5235.8 185.965 212.658
5238.69 185.291 212.409
5241.58 192.913 219.178
5244.47 184.53 214.353
5247.36 189.153 218.612
5250.25 191.625 218.979
5253.15 188.861 216.48
5256.04 191.388 221.659
5258.93 194.636 222.375
5261.82 182.564 209.362
5264.71 171.68 194.878
5267.6 164.136 186.71
5270.49 166.291 193.55
5273.38 173.675 200.276
5276.27 175.972 203.804
5279.16 184.512 212.674
5282.05 184.584 209.134
5284.94 185.839 215.555
5287.83 189.419 219.211
5290.72 194.33 223.532
5293.61 192.352 222.472
5296.49 188.64 216.673
5299.38 189.214 218.769
5302.27 194.475 224.24
5305.16 192.863 223.2
5308.05 197.846 228.563
5310.94 202.546 233.552
5313.83 195.108 225.102
5316.72 197.654 227.241
5319.61 184.853 213.992
5322.49 187.154 214.319
5325.38 181.538 208.969
5328.27 175.163 201.277
5331.16 184.764 213.209
5334.05 188.668 216.819
5336.94 182.203 209.608
5339.82 186.744 213.556
5342.71 183.748 212.698
5345.6 188.946 218.267
5348.49 191.062 221.495
5351.37 192.166 221.845
5354.26 195.663 228.2
5357.15 194.281 225.275
5360.04 193.209 221.094
5362.92 188.411 218.764
5365.81 185.12 214.012
5368.7 184.921 215.472
5371.58 188.448 217.676
5374.47 187.022 218.362
5377.36 189.562 218.887
5380.24 193.593 221.386
5383.13 188.922 215.7
5386.02 195.489 228.616
5388.9 186.597 218.138
5391.79 184.978 212.89
5394.68 183.074 213.527
5397.56 181.03 206.873
5400.45 182.367 208.172
5403.33 174.371 201.096
5406.22 175.67 204.082
5409.1 179.704 207.617
5411.99 182.128 208.436
5414.88 185.953 214.857
5417.76 183.986 214.308
5420.65 184.102 212.247
5423.53 181.509 213.18
5426.42 187.97 216.755
5429.3 176.906 205.654
5432.19 183.49 210.807
5435.07 182.43 216.858
5437.95 190.768 224.68
5440.84 188.582 218.408
5443.72 185.35 212.94
5446.61 184.082 212.46
5449.49 170.166 212.969
5452.38 172.031 217.94
5455.26 170.36 217.152
5458.14 174.878 225.544
5461.03 178.229 226.341
5463.91 178.249 226.699
5466.8 179.054 228.189
5469.68 176.255 226.258
5472.56 170.295 218.371
5475.45 168.248 213.226
5478.33 172.729 218.643
5481.21 169.954 214.578
5484.1 173.929 222.165
5486.98 169.864 218.826
5489.86 179.154 225.801
5492.74 173.927 222.195
5495.63 177.496 223.066
5498.51 170.213 216.783
5501.39 174.617 221.832
5504.27 175.961 226.058
5507.16 174.476 220.954
5510.04 167.471 212.192
5512.92 173.172 218.386
5515.8 173.267 219.11
5518.68 175.722 220.761
5521.57 176.052 222.942
5524.45 172.437 218.062
5527.33 173.742 219.64
5530.21 167.246 215.086
5533.09 172.382 222.852
5535.97 177.436 224.1
5538.85 176.03 220.87
5541.73 178.223 225.762
5544.61 175.987 222.085
5547.5 173.057 222.597
5550.38 177.015 222.972
5553.26 177.185 223.74
5556.14 176.844 223.878
5559.02 179.38 227.526
5561.9 172.418 218.916
5564.78 170.401 218.403
5567.66 171.275 218.884
5570.54 170.496 214.985
5573.42 175.253 221.919
5576.3 154.99 215.241
5579.18 151.822 215.958
5582.06 160.72 221.066
5584.94 158.731 202.965
5587.81 170.155 214.023
5590.69 169.36 217.941
5593.57 165.63 210.517
5596.45 171.787 215.571
5599.33 167.083 209.705
5602.21 178.957 225.827
5605.09 178.078 226.446
5607.97 173.226 222.371
5610.85 174.626 222.019
5613.72 170.146 215.43
5616.6 162.945 207.093
5619.48 170.806 216.959
5622.36 169.617 218.146
5625.24 175.501 220.304
5628.11 166.409 212.206
5630.99 172.517 218.594
5633.87 174.04 219.694
5636.75 171.651 220.303
5639.62 169.363 214.595
5642.5 171.679 217.842
5645.38 173.614 220.197
5648.25 174.671 220.742
5651.13 171.158 218.448
5654.01 171.879 218.832
5656.88 171.882 217.717
5659.76 170.491 215.906
5662.64 166.45 215.063
5665.51 171.981 218.735
5668.39 175.695 221.881
5671.27 173.316 219.526
5674.14 171.82 218.207
5677.02 179.737 228.488
5679.89 175.376 222.082
5682.77 173.354 218.94
5685.65 169.661 213.647
5688.52 172.622 218.331
5691.4 172.71 216.677
5694.27 174.769 221.735
5697.15 173.095 219.183
5700.02 172.26 217.776
5702.9 163.836 212.847
5705.77 169.182 214.872
5708.65 166.473 209.557
5711.52 164.586 208.629
5714.39 171.531 219.516
5717.27 169.675 217.708
5720.14 173.056 218.852
5723.02 175.441 222.119
5725.89 173.575 224.883
5728.76 179.088 228.122
5731.64 173.653 221.339
5734.51 175.311 222.201
5737.39 176.76 226.529
5740.26 174.222 220.963
5743.13 176.017 223.339
5746.01 170.502 217.456
5748.88 172.455 218.08
5751.75 171.01 217.922
5754.62 172.242 218.605
5757.5 169.595 216.547
5760.37 177.634 224.993
5763.24 174.695 221.142
5766.11 173.657 220.333
5768.99 177.608 226.968
5771.86 178.871 227.242
5774.73 170.377 219.771
5777.6 169.706 213.849
5780.47 167.545 211.018
5783.35 163.684 209.709
5786.22 165.814 211.892
5789.09 170.398 216.795
5791.96 170.554 217.961
5794.83 172.398 218.739
5797.7 169.447 218.063
5800.57 176.041 224.616
5803.44 175.003 221.107
5806.31 178.599 225.485
5809.19 178.134 224.502
5812.06 179.136 227.246
5814.93 175.559 222.267
5817.8 178.974 227.095
5820.67 179.95 229.132
5823.54 184.11 233.894
5826.41 179.945 229.087
5829.28 182.807 230.964
5832.15 178.858 228.919
5835.02 175.481 222.411
5837.88 182.631 231.309
5840.75 182.428 231.155
5843.62 179.117 226.667
5846.49 178.194 225.122
5849.36 176.287 227.19
5852.23 168.724 216.726
5855.1 174.45 221.608
5857.97 170.74 217.105
5860.84 168.349 213.273
5863.7 177.677 223.613
5866.57 173.107 219.041
5869.44 182.566 232.079
5872.31 182.276 229.932
5875.18 171.606 219.918
5878.04 171.354 220.673
5880.91 175.547 222.437
5883.78 174.86 222.39
5886.65 161.237 203.646
5889.51 133.863 180.302
5892.38 144.079 182.062
5895.25 140.555 188.555
5898.11 157.16 199.29
5900.98 166.588 209.143
5903.85 165.326 215.256
5906.71 169.769 215.238
5909.58 172.067 217.835
5912.45 170.631 217.254
5915.31 176.351 223.881
5918.18 172.373 217.989
5921.04 171.167 218.01
5923.91 172.69 218.788
5926.78 180.58 227.423
5929.64 174.42 221.118
5932.51 170.813 216.622
5935.37 176.269 221.095
5938.24 176.529 223.81
5941.1 173.541 221.016
5943.97 173.859 221.726
5946.83 175.76 223.199
5949.7 168.703 212.28
5952.56 171.497 215.116
5955.42 171.814 222.02
5958.29 176.479 223.154
5961.15 173.529 219.857
5964.02 178.574 224.097
5966.88 174.483 225.967
5969.74 178.424 224.95
5972.61 168.911 213.882
5975.47 175.61 222.073
5978.34 173.516 217.331
5981.2 168.618 214.558
5984.06 168.694 213.375
5986.92 166.422 212.237
5989.79 171.801 217.145
5992.65 177.835 226.002
5995.51 171.115 216.622
5998.38 175.64 221.598
6001.24 174.04 218.409
6004.1 176.934 224.508
6006.96 172.493 218.02
6009.82 169.291 214.215
6012.69 171.956 216.794
6015.55 167.284 212.502
6018.41 167.437 213.716
6021.27 166.21 213.374
6024.13 164.86 211.141
6026.99 173.257 220.13
6029.85 171.496 217.903
6032.72 172.69 218.02
6035.58 169.562 214.723
6038.44 172.291 217.804
6041.3 176.903 224.225
6044.16 172.851 222.676
6047.02 176.549 222.402
6049.88 172.051 220.375
6052.74 177.484 223.767
6055.6 175.536 220.852
6058.46 169.189 213.735
6061.32 174.084 219.367
6064.18 175.814 222.03
6067.04 170.394 219.576
6069.9 174.987 221.478
6072.75 175.761 222.281
6075.61 174.946 220.993
6078.47 176.262 222.41
6081.33 171.087 215.71
6084.19 168.651 215.512
6087.05 173.766 218.713
6089.91 168.796 213.174
6092.76 171.868 216.624
6095.62 172.935 217.43
6098.48 173.241 218.509
6101.34 172.368 218.314
6104.2 168.742 213.629
6107.05 169.138 214.151
6109.91 173.422 219.665
6112.77 173.239 217.515
6115.63 170.035 214.909
6118.48 167.906 212.365
6121.34 168.472 211.958
6124.2 164.347 210.12
6127.05 167.433 211.112
6129.91 172.53 219.378
6132.77 168.449 214.008
6135.62 163.732 210.243
6138.48 162.803 209.047
6141.33 169.837 214.046
6144.19 170.299 215.735
6147.04 168.066 212.411
6149.9 167.518 213.239
6152.76 162.54 207.216
6155.61 165.642 208.073
6158.47 158.255 199.92
6161.32 153.754 196.569
6164.18 161.783 203.652
6167.03 157.962 197.702
6169.89 161.355 203.439
6172.74 160.277 204.656
6175.59 164.465 208.015
6178.45 171.505 215.251
6181.3 172.677 217.033
6184.16 168.891 212.704
6187.01 171.504 215.062
6189.86 165.414 210.97
6192.72 166.062 212.398
6195.57 169.499 213.179
6198.42 171.615 219.086
6201.28 175.349 219.575
6204.13 174.596 219.553
6206.98 174.59 219.104
6209.83 172.256 216.641
6212.69 173.53 217.861
6215.54 176.814 222.908
6218.39 172.699 216.969
6221.24 178.605 224.311
6224.1 180.03 226.95
6226.95 172.343 221.79
6229.8 178.502 223.6
6232.65 179.428 230.491
6235.5 182.467 229.566
6238.35 181.291 229.132
6241.2 171.54 215.624
6244.06 181.157 227.976
6246.91 180.797 227.325
6249.76 181.327 227.956
6252.61 182.077 227.119
6255.46 180.21 225.988
6258.31 179.574 224.501
6261.16 179.6 225.426
6264.01 183.506 229.286
6266.86 187.819 239.955
6269.71 186.373 233.751
6272.56 181.573 232.193
6275.41 183.373 228.706
6278.26 175.302 219.168
6281.11 176.222 221.754
6283.95 180.607 225.092
6286.8 181.819 227.693
6289.65 186.975 232.23
6292.5 182.52 227.86
6295.35 171.541 225.497
6298.2 170.348 222.979
6301.05 178.606 222.736
6303.89 174.74 221.516
6306.74 180.469 225.573
6309.59 182.289 226.664
6312.44 173.995 217.599
6315.28 175.173 219.142
6318.13 178.595 225.423
6320.98 179.935 225.869
6323.83 179.504 224.369
6326.67 180.941 225.983
6329.52 179.821 229.455
6332.37 178.968 223.067
6335.21 176.832 220.529
6338.06 176.803 220.36
6340.91 177.003 221.248
6343.75 180.698 225.421
6346.6 177.813 225.968
6349.44 177.939 223.623
6352.29 179.25 223.197
6355.13 177.336 226.598
6357.98 176.194 219.227
6360.82 180.3 223.545
6363.67 187.81 232.275
6366.51 184.217 228.915
6369.36 181.124 225.934
6372.2 183.218 226.862
6375.05 187.585 232.018
6377.89 184.868 228.119
6380.74 184.552 228.734
6383.58 182.356 225.96
6386.42 180.405 227.746
6389.27 183.98 228.416
6392.11 179.618 220.85
6394.95 183.992 231.348
6397.8 178.16 220.093
6400.64 181.057 223.972
6403.48 183.807 228.122
6406.33 180.207 223.095
6409.17 179.272 223.023
6412.01 180.904 227.133
6414.85 179.512 225.326
6417.7 180.816 225.299
6420.54 178.416 220.024
6423.38 184.746 227.148
6426.22 187.452 229.901
6429.06 186.939 230.561
6431.91 180.74 224.36
6434.75 185.145 227.926
6437.59 179.106 221.047
6440.43 175.81 216.534
6443.27 182.947 226.466
6446.11 179.189 219.943
6448.95 182.041 225.04
6451.79 175.513 218.628
6454.63 179.028 221.209
6457.47 178.595 220.44
6460.31 179.171 221.856
6463.15 174.707 215.905
6465.99 182.163 224.933
6468.83 175.243 217.319
6471.67 178.759 218.222
6474.51 180.469 221.129
6477.35 177.319 218.089
6480.19 178.84 219.382
6483.03 179.025 220.154
6485.87 183.924 226.134
6488.7 168.896 210.197
6491.54 168.017 207.825
6494.38 162.78 204.701
6497.22 166.446 205.59
6500.06 178.803 219.699
6502.89 177.696 220.233
6505.73 177.872 217.997
6508.57 175.24 219.444
6511.41 176.541 216.401
6514.24 176.012 215.207
6517.08 176.969 220.207
6519.92 175.684 215.869
6522.75 176.105 216.455
6525.59 175.162 215.3
6528.43 177.268 217.806
6531.26 176.266 215.995
6534.1 172.634 210.427
6536.93 180.318 220.544
6539.77 161.354 215.92
6542.61 159.664 212.957
6545.44 159.134 211.326
6548.28 157.38 213.702
6551.11 154.226 205.786
6553.95 152.947 205.343
6556.78 148.193 198.426
6559.62 133.389 181.147
6562.45 128.321 171.108
6565.28 136.98 184.953
6568.12 146.545 194.049
6570.95 155.56 203.739
6573.79 158.418 209.454
6576.62 159.319 209.083
6579.45 161.014 211.995
6582.29 161.096 211.442
6585.12 156.622 209.416
6587.95 158.009 206.378
6590.79 159.578 210.433
6593.62 161.511 212.267
6596.45 160.538 212.335
6599.28 161.893 212.58
6602.12 162.504 213.209
6604.95 161.913 218.724
6607.78 161.263 211.156
6610.61 161.656 211.409
6613.44 161.05 215.006
6616.28 163.026 214.184
6619.11 158.672 208.992
6621.94 164.831 217.743
6624.77 164 214.677
6627.6 156.117 206.145
6630.43 158.03 208.129
6633.26 160.336 210.422
6636.09 158.811 211.426
6638.92 159.477 209.199
6641.75 165.024 214.417
6644.58 164.055 216.688
6647.41 163.173 212.868
6650.24 162.861 213.353
6653.07 165.287 215.806
6655.9 161.027 210.387
6658.73 170.633 222.072
6661.56 163.769 212.511
6664.39 162.499 210.583
6667.22 169.704 220.14
6670.05 161.559 212.247
6672.87 162.453 212.282
6675.7 162.155 210.496
6678.53 163.328 209.764
6681.36 164.027 213.607
6684.19 163.227 210.359
6687.01 163.132 214.056
6689.84 165.341 214.222
6692.67 163.958 211.615
6695.5 161.871 208.826
6698.32 161.885 211.423
6701.15 162.243 209.952
6703.98 160.45 207.33
6706.8 159.395 207.224
6709.63 162.576 210.194
6712.45 161.963 208.362
6715.28 160.948 206.841
6718.11 164.636 211.123
6720.93 167.774 212.169
6723.76 159.999 205.414
6726.58 163.926 209.908
6729.41 161.268 211.31
6732.23 160.618 205.634
6735.06 165.338 212.866
6737.88 163.233 208.642
6740.71 166.71 211.92
6743.53 161.903 206.035
6746.36 160.528 206.467
6749.18 161.224 208.301
6752 156.943 201.57
6754.83 166.087 214.387
6757.65 161.189 204.185
6760.47 162.37 207.529
6763.3 163.242 207.405
6766.12 158.395 200.985
6768.94 160.822 204.266
6771.77 165.601 209.661
6774.59 164.737 207.51
6777.41 161.271 205.264
6780.23 157.916 199.909
6783.05 157.53 199.908
6785.88 161.855 203.734
6788.7 163.397 205.657
6791.52 161.164 204.517
6794.34 157.621 198.861
6797.16 161.607 201.375
6799.98 161.686 203.118
6802.8 156.095 196.165
6805.62 156.629 200.209
6808.45 158.617 199.438
6811.27 156.773 198.726
6814.09 153.25 193.301
6816.91 156.009 195.628
6819.73 159.405 198.595
6822.55 158.503 199.234
6825.37 149.116 194.434
6828.18 154.802 195.669
6831 159.559 198.725
6833.82 145.803 188.918
6836.64 158.044 195.908
6839.46 152.669 191.275
6842.28 144.345 185.239
6845.1 152.934 190.716
6847.92 147.836 188.636
6850.73 156.695 193.777
6853.55 146.565 182.314
6856.37 156.451 191.421
6859.19 157.796 194.927
6862 142.142 182.86
6864.82 134.867 167.687
6867.64 116.525 151.953
6870.46 117.975 147.954
6873.27 114.975 147.379
6876.09 132.343 163.081
6878.9 133.414 163.188
6881.72 136.845 167.573
6884.54 132.934 166.403
6887.35 137.491 170.141
6890.17 133.801 165.723
6892.98 138.105 173.666
6895.8 139.99 170.431
6898.61 147.818 180.893
6901.43 140.652 176
6904.24 140.249 170.464
6907.06 148.114 179.336
6909.87 140.297 175.445
6912.69 144.003 176.334
6915.5 147.699 179.625
6918.32 145.266 176.104
6921.13 144.788 176.873
6923.94 148.095 181.734
6926.76 148.444 182.198
6929.57 150.263 184.022
6932.38 146.356 178.42
6935.2 148.001 178.821
6938.01 142.914 177.983
6940.82 149.996 187.096
6943.63 140.982 174.69
6946.45 151.904 182.339
6949.26 149.422 182.61
6952.07 151.429 183.601
6954.88 145.731 182.241
6957.69 154.386 187.882
6960.5 151.812 185.754
6963.32 156.499 189.075
6966.13 157.755 191.492
6968.94 151.755 184.625
6971.75 153.101 185.112
6974.56 153.201 184.468
6977.37 147.309 183.418
6980.18 149.937 181.079
6982.99 147.706 182.3
6985.8 154.093 187.689
6988.61 151.712 182.806
6991.42 148.848 181.057
6994.23 147.25 175.804
6997.04 151.907 183.236
6999.85 145.798 176.83
7002.65 150.144 179.558
7005.46 150.936 179.202
7008.27 148.529 178.415
7011.08 149.815 177.833
7013.89 147.21 176.956
7016.7 148.516 177.527
7019.5 147.78 178.076
7022.31 148.172 176.258
7025.12 145.719 173.611
7027.93 145.077 174.513
7030.73 152.513 182.591
7033.54 148.122 176.288
7036.35 150.609 180.89
7039.15 153.393 183.002
7041.96 154.054 185.875
7044.77 156.459 184.65
7047.57 151.274 182.342
7050.38 149.166 178.189
7053.18 152.323 180.616
7055.99 152.998 183.153
7058.79 149.363 177.796
7061.6 149.244 178.249
7064.4 148.158 174.708
7067.21 150.742 176.94
7070.01 149.265 177.291
7072.82 154.004 181.589
7075.62 154.412 181.027
7078.43 154.874 183.875
7081.23 149.673 176.69
7084.03 152.787 183.534
7086.84 146.981 175.1
7089.64 155.608 182.884
7092.44 156.066 184.648
7095.25 152.166 179.537
7098.05 150.58 177.175
7100.85 153.808 179.928
7103.65 153.114 179.599
7106.46 152.012 178.191
7109.26 149.715 178.959
7112.06 156.189 181.35
7114.86 147.426 172.716
7117.66 151.49 176.931
7120.46 150.044 175.537
7123.27 153.608 177.991
7126.07 152.72 175.31
7128.87 148.212 172.226
7131.67 156.559 182.335
7134.47 151.6 179.694
7137.27 156.869 182.06
7140.07 152.194 174.068
7142.87 156.314 180.477
7145.67 152.351 176.127
7148.47 154.257 175.903
7151.27 150.008 174.534
7154.07 156.224 181.567
7156.87 151.632 178.661
7159.66 154.079 175.339
7162.46 147.911 170.399
7165.26 148.922 174.593
7168.06 152.153 175.12
7170.86 146.839 167.117
7173.66 144.531 167.371
7176.45 148.18 169.975
7179.25 143.917 165.775
7182.05 138.088 159.011
7184.85 136.606 157.1
7187.64 138.016 158.142
7190.44 132.574 150.706
7193.24 137.409 156.876
7196.03 134.471 154.449
7198.83 138.648 157.912
7201.62 140.577 161.588
7204.42 141.551 162.688
7207.22 150.593 170.312
7210.01 149.215 170.998
7212.81 148.95 170.084
7215.6 159.579 180.588
7218.4 149.941 169.233
7221.19 153.419 174.233
7223.99 153.626 173.764
7226.78 148.831 170.608
7229.57 149.569 173.906
7232.37 143.458 162.077
7235.16 145.024 168.734
7237.96 133.994 159.147
7240.75 151.634 169.22
7243.54 151.643 171.305
7246.34 155.095 175.327
7249.13 161.195 180.254
7251.92 157.938 176.099
7254.71 152.181 169.777
7257.51 147.734 165.868
7260.3 140.826 158.53
7263.09 146.036 163.188
7265.88 149.987 169.422
7268.67 143.023 164.698
7271.47 146.472 163.715
7274.26 144.89 161.667
7277.05 149.734 162.665
7279.84 150.889 168.579
7282.63 142.799 160.132
7285.42 148.117 163.579
7288.21 133.02 149.222
7291 140.789 154.304
7293.79 143.355 159.39
7296.58 149.28 165.013
7299.37 151.799 168.756
7302.16 146.504 161.752
7304.95 137.648 151.209
7307.74 139.592 158.992
7310.53 148 162.938
7313.31 145.421 159.718
7316.1 155.94 170.585
7318.89 145.175 168.059
7321.68 152.401 169.958
7324.47 154.144 168.229
7327.25 154.564 172.939
7330.04 150.465 173.068
7332.83 162.057 176.564
7335.62 165.212 179.366
7338.4 159.677 174.194
7341.19 160.445 174.83
7343.98 156.408 172.043
7346.76 156.622 171.825
7349.55 150.407 164.492
7352.33 153.068 169.038
7355.12 149.274 168.818
7357.91 158.547 173.187
7360.69 151.067 169.447
7363.48 154.439 163.857
7366.26 155.371 167.835
7369.05 147.567 166.836
7371.83 152.056 165.596
7374.62 156.631 169.797
7377.4 156.678 168.863
7380.18 153.984 166.61
7382.97 148.694 161.628
7385.75 154.329 168.038
7388.53 148.561 161.179
7391.32 147.949 161.224
7394.1 155.531 165.413
7396.88 154.522 162.469
7399.67 156.833 167.166
7402.45 154.096 164.168
7405.23 144.843 155.502
7408.01 152.983 164.723
7410.8 145.486 157.36
7413.58 154.235 164.767
7416.36 154.29 166.878
7419.14 151.567 163.899
7421.92 155.201 166.263
7424.7 158.245 169.415
7427.48 159.896 168.867
7430.26 157.599 167.703
7433.04 158.492 168.013
7435.82 155.378 163.054
7438.6 155.231 163.252
7441.38 154.021 163.795
7444.16 152.649 167.393
7446.94 150.218 164.249
7449.72 159.848 168.434
7452.5 159.948 171.204
7455.28 158.641 169.456
7458.06 157.891 167.518
7460.84 154.65 160.862
7463.62 154.059 165.804
7466.39 155.464 163.145
7469.17 159.287 166.375
7471.95 160.651 168.174
7474.73 157.88 167.88
7477.5 148.482 169.298
7480.28 147.852 170.62
7483.06 135.51 159.46
7485.83 144.837 164.993
7488.61 137.922 156.869
7491.39 133.022 153.686
7494.16 138.927 160.462
7496.94 142.454 161.001
7499.72 140.887 160.774
7502.49 142.402 159.532
7505.27 142.886 159.803
7508.04 142.036 160.958
7510.82 134.979 154.692
7513.59 139.304 157.42
7516.37 141.506 160
7519.14 140.072 156.593
7521.91 138.008 154
7524.69 135.606 153.988
7527.46 143.061 159.591
7530.23 132.54 145.482
7533.01 134.274 149.687
7535.78 128.665 144.56
7538.55 133.889 149.509
7541.33 135.502 149.371
7544.1 136.023 150.427
7546.87 128.501 143.284
7549.64 127.778 141
7552.42 129.023 143.733
7555.19 128.052 139.339
7557.96 131.935 145.448
7560.73 130.408 143.9
7563.5 135.561 146.209
7566.27 131.377 145.348
7569.04 129.372 143.979
7571.81 127.316 138.241
7574.58 126.826 139.379
7577.35 128.263 141.191
7580.12 130.606 144.5
7582.89 124.605 134.826
7585.66 125.412 136.119
7588.43 116.617 130.43
7591.2 107.632 120.021
7593.97 78.9775 91.9314
7596.74 58.3609 66.0814
7599.51 43.1949 50.4807
7602.28 37.0569 42.0922
7605.04 35.6633 39.6539
7607.81 39.2055 42.922
7610.58 48.4509 48.4427
7613.35 66.6847 70.7827
7616.12 87.7488 90.8615
7618.88 84.0054 88.0824
7621.65 79.2533 86.0281
7624.42 72.032 77.2725
7627.18 67.6229 73.132
7629.95 64.578 70.3516
7632.72 68.6358 72.4915
7635.48 75.0866 77.1429
7638.25 76.2116 79.0462
7641.01 77.7927 81.9678
7643.78 84.4877 88.1637
7646.54 88.8427 92.2347
7649.31 94.9954 100.989
7652.07 98.2046 103.744
7654.84 95.4481 99.299
7657.6 101.533 105.799
7660.37 108.571 110.504
7663.13 107.92 113.871
7665.89 108.909 112.209
7668.66 114.217 118.742
7671.42 126.13 129.817
7674.18 121.684 126.271
7676.95 119.306 125.133
7679.71 126.764 131.923
7682.47 121.483 128.289
7685.23 122.421 124.864
7687.99 130.061 134.267
7690.76 129.596 135.712
7693.52 124.446 128.27
7696.28 125.142 129.566
7699.04 130.104 131.554
7701.8 131.713 132.3
7704.56 129.184 135.33
7707.32 131.872 136.234
7710.08 133.516 135.119
7712.84 125.222 126.393
7715.6 132.569 131.437
7718.36 125.65 127.601
7721.12 131.845 137.233
7723.88 134.17 139.229
7726.64 132.177 134.003
7729.4 137.256 138.35
7732.16 134.96 134.152
7734.92 135.583 137.052
7737.68 133.793 134.001
7740.43 127.364 129.719
7743.19 131.366 132.981
7745.95 127.909 127.628
7748.71 137.468 136.052
7751.47 137.583 140.119
7754.22 135.155 139.707
7756.98 139.945 137.944
7759.74 132.818 132.374
7762.49 138.635 136.602
7765.25 140.477 139.951
7768 138.041 138.049
7770.76 133.939 135.117
7773.52 136.357 134.354
7776.27 133.398 131.552
7779.03 130.709 129.057
7781.78 133.514 129.636
7784.54 136.212 137.064
7787.29 136.056 129.854
7790.05 140.244 135.9
7792.8 133.855 131.677
7795.55 135.746 136.875
7798.31 128.803 126.651
7801.06 135.746 131.611
7803.81 140.27 135.221
7806.57 135.064 130.553
7809.32 138.654 133.682
7812.07 135.659 132.637
7814.83 132.061 128.786
7817.58 140.531 131.915
7820.33 130.74 124.678
7823.08 134.731 131.9
7825.83 135.723 129.866
7828.59 131.468 128.124
7831.34 130.291 126.456
7834.09 129.323 123.268
7836.84 135.379 129.458
7839.59 138.343 133.996
7842.34 132.906 128.152
7845.09 130.576 126.007
7847.84 133.084 124.37
7850.59 133.203 127.792
7853.34 136.623 130.727
7856.09 142.464 132.641
7858.84 134.326 124.772
7861.59 135.506 131.592
7864.34 135.075 129.628
7867.08 133.288 125.145
7869.83 125.87 116.841
7872.58 135.977 123.831
7875.33 132.361 122.958
7878.08 129.504 122.383
7880.82 131.457 121.063
7883.57 131.813 121.609
7886.32 130.676 119.993
7889.06 131.281 118.502
7891.81 127.118 118.898
7894.56 131.588 123.329
7897.3 131.94 120.757
7900.05 133.622 122.493
7902.8 134.639 122.985
7905.54 128.553 117.827
7908.29 139.122 128.072
7911.03 126.104 118.842
7913.78 125.724 111.941
7916.52 131.524 118.409
7919.27 119.122 110.218
7922.01 127.749 119.772
7924.75 129.678 116.556
7927.5 125.075 114.435
7930.24 127.669 112.439
7932.98 125.89 112.13
7935.73 125.001 114.074
7938.47 124.193 109.536
7941.21 127.443 115.589
7943.96 125.952 110.902
7946.7 124.292 112.112
7949.44 132.653 117.408
7952.18 134.047 117.58
7954.92 129.09 115.689
7957.67 133.31 119.31
7960.41 128.421 111.16
7963.15 134.23 117.45
7965.89 132.315 117.497
7968.63 131.558 118.193
7971.37 132.529 118.394
7974.11 131.339 117.721
7976.85 132.281 117.405
7979.59 132.088 116.531
7982.33 132.085 118.118
7985.07 130.667 116.344
7987.81 138.815 120.411
7990.55 133.396 114.6
7993.28 132.87 114.426
7996.02 129.584 114.056
7998.76 131.545 115.733
8001.5 125.356 109.078
8004.24 132.948 116.366
8006.97 132.645 116.293
8009.71 136.933 117.428
8012.45 141.441 124.33
8015.19 143.782 125.203
8017.92 129.392 114.294
8020.66 130.213 109.131
8023.39 137.756 120.134
8026.13 134.675 111.927
8028.87 135.877 122.054
8031.6 136.892 116.848
8034.34 130.869 112.733
8037.07 139.122 118.521
8039.81 135.355 114.323
8042.54 131.734 111.188
8045.28 134.268 114.133
8048.01 133.55 113.61
8050.75 138.956 118.217
8053.48 138.895 118.102
8056.21 138.638 115.753
8058.95 142.866 121.434
8061.68 136.806 116.926
8064.41 143.558 120.809
8067.14 141.983 119.471
8069.88 138.344 117.007
8072.61 142.15 120.286
8075.34 139.896 114.464
8078.07 138.631 115.975
8080.81 134.39 111.812
8083.54 133.032 110.24
8086.27 133.417 110.438
8089 137.072 115.542
8091.73 138.833 113.593
8094.46 134.507 110.928
8097.19 132.486 109.77
8099.92 138.582 114.131
8102.65 138.874 113.637
8105.38 139.432 113.837
8108.11 138.406 115.463
8110.84 133.651 108.846
8113.57 133.23 107.701
8116.3 138.064 110.656
8119.02 137.51 111.76
8121.75 132.696 108.827
8124.48 130.916 106.323
8127.21 134.568 109.824
8129.94 132.988 108.945
8132.66 123.695 99.5102
8135.39 127.242 102.316
8138.12 121.01 97.8173
8140.84 135.873 107.784
8143.57 122.465 101.181
8146.3 122.428 101.858
8149.02 122.926 97.3792
8151.75 121.629 93.9217
8154.48 122.147 100.366
8157.2 129.495 105.456
8159.93 116.226 92.7601
8162.65 114.456 92.8535
8165.38 117.594 95.447
8168.1 116.028 93.0054
8170.82 116.171 91.1319
8173.55 121.102 95.5316
8176.27 116.878 93.2419
8179 113.034 89.6666
8181.72 114.642 91.7956
8184.44 122.212 95.9911
8187.17 116.117 94.1906
8189.89 118.287 93.9536
8192.61 120.67 95.3857
8195.33 115.801 94.048
8198.05 118.779 93.4763
8200.78 126.317 94.0777
8203.5 123.181 95.8434
8206.22 132.671 101.511
8208.94 132.688 106.143
8211.66 128.548 99.788
8214.38 122.359 94.1802
8217.1 125.503 98.7175
8219.82 117.639 90.6499
8222.54 119.82 91.7491
8225.26 116.572 90.4238
8227.98 100.302 79.7852
8230.7 105.612 79.7453
8233.42 108.522 83.3769
8236.14 119.688 90.4365
8238.86 127.193 96.77
8241.58 125.144 96.8738
8244.29 129.696 98.1676
8247.01 129.78 99.8974
8249.73 133.662 101.811
8252.45 127.632 95.0944
8255.16 125.06 97.074
8257.88 119.595 92.5977
8260.6 123.513 95.8081
8263.32 123.94 94.4306
8266.03 133.268 98.357
8268.75 128.053 96.9971
8271.46 117.694 90.0599
8274.18 117.418 91.9504
8276.89 112.255 83.105
8279.61 126.057 92.7504
8282.33 123.119 93.8008
8285.04 116.097 87.2475
8287.75 114.033 88.7998
8290.47 121.098 88.2163
8293.18 119.252 89.4611
8295.9 124.199 88.3107
8298.61 128.189 102.446
8301.32 124.053 94.9394
8304.04 118.842 87.4657
8306.75 123.316 90.7362
8309.46 126.786 95.0669
8312.17 121.114 92.5769
8314.89 126.623 95.5735
8317.6 122.256 91.0887
8320.31 119.543 85.7147
8323.02 118.595 87.085
8325.73 119.995 89.0215
8328.44 120.5 87.5699
8331.16 121.284 87.0161
8333.87 119.997 88.014
8336.58 117.662 87.2546
8339.29 121.327 88.8679
8342 126.267 83.6012
8344.71 117.139 83.5907
8347.42 109.4 96.7689
8350.13 114.314 88.1499
8352.83 111.897 89.2707
8355.54 108.688 91.3802
8358.25 113.205 88.1754
8360.96 115.632 84.3042
8363.67 117.904 88.9371
8366.38 126.393 92.9231
8369.08 120.681 90.5868
8371.79 118.372 89.9931
8374.5 115.58 91.2031
8377.2 115.855 91.3854
8379.91 123.76 94.2109
8382.62 116.834 86.2704
8385.32 106.297 81.6726
8388.03 108.606 85.1287
8390.74 118.275 91.3107
8393.44 119.634 90.2639
8396.15 116.091 87.325
8398.85 114.623 85.7582
8401.56 119.828 88.2251
8404.26 114.77 83.3756
8406.97 113.727 83.2764
8409.67 119.65 91.3284
8412.37 124.179 87.5195
8415.08 117.227 85.1447
8417.78 121.374 82.7804
8420.48 110.991 86.6127
8423.19 110.975 87.1473
8425.89 127.483 89.0985
8428.59 124.016 96.9635
8431.29 114.377 86.9753
8434 123.134 98.5093
8436.7 115.595 89.2817
8439.4 111.789 81.7053
8442.1 114.177 84.2467
8444.8 112.424 86.6125
8447.5 116.911 80.6633
8450.2 116.687 83.1206
8452.9 121.419 87.7712
8455.6 116.365 78.9881
8458.3 120.772 89.0696
8461 127.46 87.0566
8463.7 121.141 80.7297
8466.4 114.306 76.2251
8469.1 112.894 78.8508
8471.8 112.934 84.1121
8474.5 120.495 84.6112
8477.2 117.025 85.3062
8479.89 116.167 86.3388
8482.59 116.219 82.3882
8485.29 123.19 87.654
8487.99 121.496 84.4438
8490.68 125.268 89.0539
8493.38 113.319 81.4743
8496.08 105.4 77.4456
8498.77 99.2481 69.6622
8501.47 111.33 71.8325
8504.17 112.862 75.5936
8506.86 119.423 78.7171
8509.56 118.014 87.1109
8512.25 113.122 79.6478
8514.95 108.277 70.4424
8517.64 119.244 79.06
8520.34 115.473 79.4114
8523.03 113.988 78.5249
8525.72 119.78 83.0415
8528.42 113.672 77.484
8531.11 116.379 76.429
8533.8 112.593 75.4843
8536.5 99.6846 71.5044
8539.19 98.0472 66.1185
8541.88 87.8572 59.8
8544.57 89.8681 57.0307
8547.27 103.452 66.172
8549.96 105.323 73.7234
8552.65 114.092 79.1772
8555.34 114.314 76.9245
8558.03 110.63 75.3541
8560.72 115.2 75.5621
8563.41 117.303 78.3495
8566.1 110.272 75.4465
8568.79 119.528 79.9866
8571.48 116.769 76.4005
8574.17 113.597 77.6029
8576.86 115.462 75.4561
8579.55 117.408 77.9438
8582.24 114.833 79.2426
8584.93 111.613 75.9658
8587.62 116.525 74.6974
8590.31 118.557 78.3007
8592.99 117.021 78.2527
8595.68 113.626 74.2942
8598.37 117.395 74.9724
8601.06 115.223 74.9374
8603.74 110.995 70.9328
8606.43 110.5 71.4767
8609.12 113.135 76.1559
8611.8 116.826 72.628
8614.49 115.68 76.8848
8617.18 115.914 77.1567
8619.86 118.677 74.7445
8622.55 107.551 71.9366
8625.23 121.762 78.8591
8627.92 115.756 72.814
8630.6 115.156 74.3238
8633.29 118.265 73.8089
8635.97 113.525 69.983
8638.65 121.687 77.8467
8641.34 119.627 79.305
8644.02 113.612 73.2723
8646.7 114.088 79.2399
8649.39 119.137 71.3637
8652.07 118.329 76.4257
8654.75 113.694 71.3355
8657.43 109.345 74.5968
8660.12 99.1608 63.6523
8662.8 95.2341 55.9642
8665.48 101.3 64.2702
8668.16 110.88 63.436
8670.84 112.954 70.4632
8673.52 110.962 69.2939
8676.2 113.193 71.2806
8678.88 118.368 72.1008
8681.56 113.581 66.6208
8684.24 114.926 69.9615
8686.92 116.918 69.9926
8689.6 115.695 66.1482
8692.28 114.513 67.0457
8694.96 118.826 67.3463
8697.64 115.641 67.1012
8700.32 123.983 70.4134
8702.99 118.614 72.3401
8705.67 119.44 68.2373
8708.35 121.857 68.5288
8711.03 124.919 72.5082
8713.7 119.911 70.0458
8716.38 118.785 67.4501
8719.06 116.252 65.5199
8721.73 119.663 67.4207
8724.41 117.073 68.1551
8727.08 115.764 69.5059
8729.76 120.399 67.4327
8732.44 110.963 69.2435
8735.11 115.024 65.6615
8737.79 118.796 65.9258
8740.46 113.544 60.0919
8743.13 124.593 68.1552
8745.81 116.055 66.6929
8748.48 116.851 65.2398
8751.16 114.235 64.7721
8753.83 115.172 68.138
8756.5 110.218 62.6844
8759.17 114.157 64.5899
8761.85 114.275 67.3944
8764.52 126.462 62.4501
8767.19 118.171 53.0544
8769.86 116.062 62.2328
8772.54 110.742 67.222
8775.21 114.119 69.678
8777.88 118.157 66.705
8780.55 113.104 64.5922
8783.22 110.438 56.5568
8785.89 109.024 60.4253
8788.56 107.536 63.0158
8791.23 108.152 61.5079
8793.9 107.188 56.1929
8796.57 113.057 57.4397
8799.24 115.317 59.9586
8801.91 118.009 61.4275
8804.58 112.051 60.5149
8807.24 109.86 56.9926
8809.91 106.482 51.8529
8812.58 115.778 58.6799
8815.25 106.094 54.7796
8817.91 113.244 58.1953
8820.58 107.439 56.1324
8823.25 113.63 60.9987
8825.92 115.298 61.5719
8828.58 115.778 53.7988
8831.25 113.416 52.3392
8833.91 110.635 61.4324
8836.58 115.412 63.0149
8839.24 117.527 65.5853
8841.91 118.429 62.333
8844.57 113.359 64.0688
8847.24 122.349 66.6899
8849.9 124.05 63.4705
8852.57 127.568 60.645
8855.23 124.824 63.3653
8857.9 120.676 59.3627
8860.56 122.763 61.059
8863.22 115.88 63.1039
8865.88 123.513 60.9176
8868.55 122.976 53.808
8871.21 122.38 54.4265
8873.87 123.205 56.3136
8876.53 127.55 59.1669
8879.2 128.173 66.486
8881.86 118.715 65.6723
8884.52 136.734 67.2037
8887.18 131.822 52.0811
8889.84 126.659 47.2582
8892.5 126.862 50.7255
8895.16 120.056 55.5839
8897.82 127.385 68.2951
8900.48 134.093 75.2671
8903.14 135.749 69.383
8905.8 130.71 65.2606
8908.46 123.914 51.2585
8911.12 135.721 61.6344
8913.77 137.96 66.904
8916.43 134.416 70.9531
8919.09 130.573 65.9327
8921.75 128.294 52.0032
8924.4 125.306 51.8844
8927.06 121.159 47.8202
8929.72 114.819 55.8397
8932.38 124.262 65.754
8935.03 118.487 60.0053
8937.69 115.684 53.2353
8940.34 117.464 60.1843
8943 118.051 58.0291
8945.65 109.192 46.5798
8948.31 112.461 46.7399
8950.96 107.322 44.196
8953.62 104.101 48.9842
8956.27 107.949 52.8323
8958.93 111.995 43.3553
8961.58 106.099 42.0222
8964.23 96.0502 33.9055
8966.89 93.1887 44.5845
8969.54 96.0243 44.1887
8972.19 92.1192 45.3572
8974.85 100.689 46.136
8977.5 104.866 44.3675
8980.15 99.7079 38.784
8982.8 103.247 43.7174
8985.45 101.843 44.18
8988.1 97.6938 43.3413
8990.76 95.0022 38.0085
8993.41 87.9961 33.7739
8996.06 92.6835 37.9559
8998.71 95.5029 43.6922
9001.36 97.9165 44.5038
9004.01 96.4118 30.695
9006.66 99.0349 40.3244
9009.31 96.3499 38.092
9011.95 99.7411 50.9118
9014.6 95.3656 38.8849
9017.25 103.042 45.1945
9019.9 102.37 45.8654
9022.55 101.443 42.2047
9025.19 110.335 38.698
9027.84 107.022 41.7213
9030.49 104.518 40.943
9033.14 109.631 40.2944
9035.78 114.366 43.297
9038.43 116.118 49.8655
9041.08 116.067 43.2915
9043.72 114.397 43.4679
9046.37 106.224 46.8284
9049.01 107.958 38.5385
9051.66 108.012 37.8971
9054.3 107.291 40.96
9056.95 105.241 37.1224
9059.59 111.204 46.185
9062.23 108.149 46.0817
9064.88 108.364 47.6174
