wavelength spec_sum spec_optimal
3526.56 48.8698 43.9449
3529.47 49.4711 35.939
3532.38 52.2776 46.4139
3535.29 57.9191 53.6446
3538.2 61.0748 51.3092
3541.11 71.6995 60.2854
3544.03 59.6472 49.5443
3546.94 55.0258 52.0652
3549.85 49.3279 46.7365
3552.76 54.5668 47.6367
3555.67 60.5461 56.111
3558.58 52.0972 46.9847
3561.49 46.226 40.437
3564.41 33.9904 30.0853
3567.32 46.3881 41.1617
3570.23 48.4325 41.7678
3573.14 37.2564 28.5832
3576.05 39.3802 32.7834
3578.96 45.534 39.9823
3581.88 32.6686 31.0414
3584.79 47.1014 40.1485
3587.7 55.1616 46.7163
3590.61 62.7966 57.818
3593.52 58.7368 53.6664
3596.43 60.4118 52.9472
3599.35 57.5163 47.6851
3602.26 66.5415 55.2302
3605.17 47.8225 40.3595
3608.08 61.7604 54.2298
3610.99 52.4327 45.1912
3613.91 54.0614 48.1898
3616.82 53.5091 41.527
3619.73 57.3965 52.2029
3622.64 75.0038 63.9697
3625.55 69.3113 58.2862
3628.47 54.947 50.1986
3631.38 67.2464 55.6677
3634.29 66.8055 62.8354
3637.2 67.078 60.7617
3640.11 66.6771 52.4167
3643.03 62.8014 56.16
3645.94 64.1292 54.9546
3648.85 66.8802 59.9429
3651.76 73.1388 64.5146
3654.67 67.3753 62.4785
3657.59 75.9451 72.4785
3660.5 72.6795 64.7062
3663.41 73.3758 69.3743
3666.32 75.3003 70.1671
3669.24 73.5305 64.8976
3672.15 75.3561 68.9243
3675.06 72.6658 65.6159
3677.97 69.9764 61.5036
3680.88 56.716 53.1516
3683.8 66.0162 60.4843
3686.71 70.1056 62.7837
3689.62 68.8977 57.8974
3692.53 71.6536 65.1706
3695.45 72.0651 64.247
3698.36 69.3286 59.0991
3701.27 59.3875 52.066
3704.18 65.1069 57.8505
3707.1 74.9722 64.2335
3710.01 76.2764 64.9824
3712.92 64.2259 58.9205
3715.83 59.1858 48.7755
3718.75 63.9182 58.5814
3721.66 62.4038 55.1797
3724.57 71.4174 69.8254
3727.48 54.815 47.9456
3730.4 59.3176 49.2919
3733.31 56.228 51.0581
3736.22 57.8332 50.8461
3739.13 57.5362 52.8572
3742.04 50.2028 42.0203
3744.96 46.0804 41.4317
3747.87 49.2926 44.8686
3750.78 61.2517 55.9317
3753.69 63.019 59.57
3756.61 67.161 57.8815
3759.52 60.4246 54.1001
3762.43 72.9142 66.4748
3765.35 74.8116 68.0935
3768.26 83.2976 74.8386
3771.17 80.9523 73.1115
3774.08 82.6655 76.5793
3777 80.1187 75.7591
3779.91 84.3848 83.8456
3782.82 80.994 72.9116
3785.73 78.2662 70.4892
3788.65 78.2826 74.4162
3791.56 75.9667 71.308
3794.47 70.9745 66.6015
3797.38 72.2643 65.679
3800.3 73.1819 67.0833
3803.21 73.5372 67.1911
3806.12 70.365 65.2883
3809.03 76.0342 67.8695
3811.95 61.0464 56.2249
3814.86 58.0702 55.0931
3817.77 55.2639 51.0459
3820.68 46.8297 44.3707
3823.6 45.7437 43.1547
3826.51 44.0771 42.9485
3829.42 42.0721 41.0735
3832.33 42.4033 40.2159
3835.25 43.8915 44.2209
3838.16 47.5467 39.5398
3841.07 55.3769 53.523
3843.99 64.5533 58.0343
3846.9 57.2412 56.0982
3849.81 64.8065 60.6594
3852.72 53.1111 51.8947
3855.64 56.1563 51.1383
3858.55 53.3991 50.5709
3861.46 58.3727 55.1713
3864.37 56.5953 51.7418
3867.29 54.8819 51.1887
3870.2 53.0052 47.3811
3873.11 55.3697 50.9394
3876.02 55.4732 54.8815
3878.94 55.3804 51.5995
3881.85 54.1275 50.828
3884.76 62.158 56.2987
3887.67 70.4322 66.3905
3890.59 70.1061 66.8069
3893.5 73.4385 65.4634
3896.41 68.3126 63.1566
3899.33 65.8857 59.4865
3902.24 67.7899 60.3058
3905.15 77.2528 68.2081
3908.06 78.0737 72.5554
3910.98 85.9711 80.205
3913.89 82.5205 74.2108
3916.8 72.979 68.3779
3919.71 72.1839 66.224
3922.63 56.3995 54.1182
3925.54 51.2672 46.3629
3928.45 42.6978 37.0313
3931.36 36.7023 33.8207
3934.28 40.6422 42.4383
3937.19 45.7534 44.8401
3940.1 55.1846 52.684
3943.01 55.2748 56.2609
3945.93 64.0797 62.0299
3948.84 67.7357 67.3227
3951.75 72.5453 73.352
3954.66 68.7799 67.466
3957.58 62.2534 61.746
3960.49 55.5919 55.8766
3963.4 44.3344 42.7676
3966.31 42.2866 42.6059
3969.23 42.8935 42.3031
3972.14 59.1167 58.3967
3975.05 63.4857 64.354
3977.96 67.3785 66.5834
3980.88 77.2686 79.1881
3983.79 82.4673 82.3061
3986.7 96.4882 97.1189
3989.61 98.304 98.2009
3992.53 96.6635 98.8705
3995.44 94.5003 92.8561
3998.35 101.486 103.522
4001.26 102.965 103.075
4004.18 99.9003 101.48
4007.09 107.343 107.353
4010 102.916 103.866
4012.91 109.488 111.642
4015.83 109.938 110.982
4018.74 108.41 109.081
4021.65 111.247 114.436
4024.56 103.223 105.943
4027.48 101.79 104.212
4030.39 97.5247 99.1922
4033.3 103.26 105.95
4036.21 102.58 101.664
4039.12 101.122 103.939
4042.04 97.3413 97.7857
4044.95 94.268 94.7115
4047.86 99.8704 101.113
4050.77 101.68 103.208
4053.69 99.06 100.192
4056.6 102.423 101.632
4059.51 96.5423 98.0813
4062.42 94.29 95.5374
4065.33 96.7661 98.9575
4068.25 100.533 100.613
4071.16 96.5424 94.1372
4074.07 96.6894 98.2772
4076.98 97.3342 99.7793
4079.89 107.967 108.753
4082.81 113.191 114.264
4085.72 111.957 114.603
4088.63 118.449 118.549
4091.54 115.04 116.684
4094.45 97.8713 97.4507
4097.37 101.405 99.2755
4100.28 99.5229 103.858
4103.19 105.529 104.663
4106.1 109.927 109.1
4109.01 107.515 107.58
4111.93 112.429 109.921
4114.84 113.567 117.214
4117.75 118.299 116.994
4120.66 117.337 118.84
4123.57 121.095 120.507
4126.49 116.9 116.07
4129.4 107.593 108.14
4132.31 109.288 109.691
4135.22 117.817 116.709
4138.13 123.093 122.244
4141.04 110.402 111.882
4143.96 109.149 110.419
4146.87 116.976 117.393
4149.78 115.997 118.87
4152.69 112.741 114.858
4155.6 115.271 116.027
4158.51 117.953 120.506
4161.43 118.232 120.42
4164.34 119.223 120.619
4167.25 115.509 118.345
4170.16 111.692 114.002
4173.07 105.952 107.252
4175.98 113.56 117.171
4178.89 112.284 114.175
4181.81 105.527 106.624
4184.72 111.569 114.715
4187.63 109.182 112.957
4190.54 112.543 113.922
4193.45 106.207 106.642
4196.36 103.719 106.455
4199.27 107.463 108.445
4202.19 105.109 106.041
4205.1 109.454 111.842
4208.01 114.965 117.707
4210.92 112.908 117.027
4213.83 113.395 117.376
4216.74 108.312 109.841
4219.65 106.511 110.628
4222.56 98.9155 101.824
4225.47 97.6709 100.694
4228.39 105.394 111.196
4231.3 105.849 109.901
4234.21 102.057 107.055
4237.12 107.558 110.994
4240.03 109.464 110.717
4242.94 107.373 110.713
4245.85 109.348 111.675
4248.76 104.024 108.729
4251.67 104.238 107.264
4254.58 110.102 112.603
4257.49 107.49 110.348
4260.41 105.191 109.837
4263.32 110.279 113.866
4266.23 103.371 106.784
4269.14 100.952 103.196
4272.05 103.946 107.288
4274.96 102.354 105.015
4277.87 109.502 111.303
4280.78 104.167 107.968
4283.69 106.648 109.648
4286.6 103.044 105.291
4289.51 100.488 102.809
4292.42 97.1962 99.8154
4295.33 92.8515 95.6493
4298.24 83.4238 85.9397
4301.15 87.1955 88.9939
4304.06 79.6207 80.3311
4306.97 80.0123 83.3903
4309.88 89.3433 89.7973
4312.79 102.299 106.381
4315.7 109.2 111.098
4318.61 110.543 114.413
4321.53 103.762 107.232
4324.44 102.653 106.338
4327.35 117.42 118.341
4330.26 118.131 122.111
4333.17 114.307 117.085
4336.08 110.971 111.57
4338.99 112.032 113.105
4341.9 114.318 117.032
4344.81 121.488 124.871
4347.72 115.353 119.964
4350.62 119.271 121.881
4353.53 121.877 124.565
4356.44 115.578 119.15
4359.35 119.505 121.724
4362.26 127.209 130.991
4365.17 122.329 127.805
4368.08 121.359 125.273
4370.99 126.077 128.178
4373.9 118.82 121.857
4376.81 116.285 118.755
4379.72 112.877 115.181
4382.63 105.162 109.11
4385.54 112.658 116.814
4388.45 109.617 111.359
4391.36 113.709 117.603
4394.27 117.823 121.606
4397.18 115.134 118.93
4400.09 115.285 118.625
4403 114.259 117.511
4405.91 117.632 122.682
4408.81 122.271 124.538
4411.72 119.123 122.044
4414.63 125.309 129.725
4417.54 125.252 131.575
4420.45 128.777 132.384
4423.36 130.527 135.887
4426.27 129.595 134.864
4429.18 124.707 128.801
4432.09 129.479 136.075
4435 133.223 139.174
4437.9 129.088 135.107
4440.81 131.717 136.134
4443.72 131.419 138.216
4446.63 133.092 141.594
4449.54 133.576 141.057
4452.45 128.28 133.149
4455.36 123.811 129.461
4458.26 125.961 130.684
4461.17 131.399 136.457
4464.08 131.571 136.41
4466.99 132.124 137.062
4469.9 134.332 141.516
4472.81 137.887 142.281
4475.71 144.032 149.922
4478.62 136.23 141.85
4481.53 136.803 144.283
4484.44 139.575 145.914
4487.35 134.229 143.053
4490.26 138.322 143.875
4493.16 145.726 150.742
4496.07 139.966 147.207
4498.98 137.616 146.214
4501.89 150.551 156.89
4504.79 151.212 160.22
4507.7 155.129 162.265
4510.61 147.537 155.953
4513.52 145.726 152.765
4516.43 143.136 149.505
4519.33 150.124 155.937
4522.24 141.084 147.33
4525.15 131.771 136.701
4528.06 130.171 135.321
4530.96 133.749 139.919
4533.87 137.455 144.142
4536.78 136.49 143.693
4539.69 136.407 141.031
4542.59 137.003 145.62
4545.5 135.628 142.601
4548.41 142.125 146.2
4551.31 140.745 146.679
4554.22 141.416 148.63
4557.13 141.019 149.908
4560.04 147.509 154.583
4562.94 151.781 158.77
4565.85 146.443 155.918
4568.76 142.742 153.786
4571.66 147.539 154.821
4574.57 156.926 164.316
4577.48 147.179 155.165
4580.38 136.876 144.86
4583.29 138.131 144.402
4586.2 149.506 155.779
4589.1 146.579 153.452
4592.01 138.762 146.093
4594.92 146.898 154.387
4597.82 144.509 150.853
4600.73 149.691 157.249
4603.63 146.438 152.845
4606.54 150.861 159.673
4609.45 151.88 159.548
4612.35 153.658 162.227
4615.26 147.945 158.647
4618.17 146.105 154.798
4621.07 150.458 158.593
4623.98 153.89 161.473
4626.88 154.822 163.669
4629.79 151.328 157.628
4632.69 143.588 153.44
4635.6 149.378 157.02
4638.51 147.705 155.488
4641.41 143.809 153.16
4644.32 144.49 153.979
4647.22 140.197 147.56
4650.13 142.452 152.506
4653.03 143.596 152.683
4655.94 147.54 156.717
4658.84 146.345 154.656
4661.75 143.465 153.492
4664.65 136.284 146.958
4667.56 145.214 153.338
4670.47 140.622 148.428
4673.37 141.051 149.422
4676.28 144.777 154.299
4679.18 145.079 152.677
4682.08 146.124 156.46
4684.99 142.473 150.625
4687.89 142.049 149.97
4690.8 147.333 157.965
4693.7 144.747 155.299
4696.61 150.973 158.555
4699.51 141.303 149.674
4702.42 142.141 152.842
4705.32 138.793 150.178
4708.23 142.883 153.144
4711.13 150.422 160.627
4714.04 153.072 165.197
4716.94 152.372 161.909
4719.84 154.321 165.539
4722.75 155.936 168.022
4725.65 154.922 164.303
4728.56 145.332 154.316
4731.46 148.173 156.852
4734.36 143.805 155.196
4737.27 151.374 161.111
4740.17 154.408 164.113
4743.07 151.427 162.867
4745.98 159.557 171.686
4748.88 156.726 167.13
4751.79 150.857 161.275
4754.69 152.127 163.61
4757.59 150.765 161.101
4760.5 150.507 160.165
4763.4 147.566 158.938
4766.3 146.98 156.68
4769.21 152.229 162.804
4772.11 151.61 161.484
4775.01 153.417 166.727
4777.92 154.408 163.625
4780.82 147.484 158.713
4783.72 152.52 164.52
4786.62 149.663 161.579
4789.53 147.779 159.314
4792.43 148.196 159.017
4795.33 149.786 160.769
4798.23 147.915 160.534
4801.14 147.38 159.343
4804.04 145.811 157.093
4806.94 152.248 164.125
4809.84 149.568 160.344
4812.75 151.641 162.895
4815.65 150.167 161.876
4818.55 151.403 163.851
4821.45 150.904 164.461
4824.36 152.349 163.466
4827.26 146.641 158.517
4830.16 149.688 162.417
4833.06 151.411 163.782
4835.96 152.838 165.398
4838.86 149.744 162.668
4841.77 147.449 161.96
4844.67 151.248 162.522
4847.57 152.093 164.792
4850.47 150.175 162.39
4853.37 140.504 154.964
4856.27 139.61 150.188
4859.17 129.032 139.662
4862.08 137.36 147.583
4864.98 138.019 152.171
4867.88 132.667 145.02
4870.78 143.609 157.927
4873.68 145.648 159.698
4876.58 150.637 161.901
4879.48 151.677 163.556
4882.38 150.385 164.576
4885.28 152.01 164.043
4888.18 150.195 163.214
4891.08 151.574 164.847
4893.99 163.4 177.398
4896.89 160.822 177.349
4899.79 170.236 184.062
4902.69 160.906 176.078
4905.59 159.588 173.014
4908.49 159.488 173.872
4911.39 160.117 174.372
4914.29 161.402 174.818
4917.19 152.188 164.58
4920.09 146.348 159.818
4922.99 152.286 166.497
4925.89 155.883 170.607
4928.79 162.594 177.461
4931.69 161.401 175.478
4934.58 154.756 170.26
4937.48 150.812 164.778
4940.38 158.195 173.465
4943.28 158.782 177.652
4946.18 163.403 178.583
4949.08 158.035 173.344
4951.98 150.5 167.312
4954.88 151.006 164.413
4957.78 153.313 169.446
4960.68 149.65 167.84
4963.58 154.747 172.388
4966.48 156.118 171.754
4969.37 156.956 172.5
4972.27 151.913 168.448
4975.17 162.799 178.565
4978.07 153.376 169.279
4980.97 145.898 160.442
4983.87 146.371 160.367
4986.76 153.02 167.189
4989.66 153.48 169.757
4992.56 157.949 174.729
4995.46 154.217 171.138
4998.36 153.043 172.411
5001.25 152.245 169.102
5004.15 144.43 159.181
5007.05 149.756 165.925
5009.95 145.436 163.631
5012.85 146.527 160.79
5015.74 149.113 165.442
5018.64 148.612 165.292
5021.54 151.66 169.865
5024.44 149.835 165.257
5027.33 155.873 173.45
5030.23 159.358 178.265
5033.13 151.636 171.005
5036.02 151.27 169.649
5038.92 146.785 164.628
5041.82 151.602 169.844
5044.71 153.772 169.212
5047.61 155.537 170.839
5050.51 158.499 176.92
5053.4 160.155 178.379
5056.3 160.446 177.881
5059.2 166.065 185.437
5062.09 163.493 182.825
5064.99 156.187 173.691
5067.89 165.144 183.963
5070.78 157.142 178.75
5073.68 158.729 177.462
5076.57 154.314 171.837
5079.47 156.044 174.463
5082.37 149.622 167.138
5085.26 152.15 170.753
5088.16 155.713 176.719
5091.05 156.79 176.371
5093.95 157.079 175.409
5096.84 153.664 171.089
5099.74 156.835 176.752
5102.63 154.712 174.057
5105.53 160.156 179.561
5108.42 155.803 175.647
5111.32 156.424 175.421
5114.21 162.952 183.005
5117.11 155.086 172.316
5120 159.151 178.058
5122.9 153.484 172.944
5125.79 151.947 169.025
5128.69 151.585 172.829
5131.58 150.79 170.017
5134.48 157.499 176.844
5137.37 151.485 169.676
5140.26 149.801 168.103
5143.16 146.106 164.321
5146.05 156.131 177.98
5148.95 153.037 176.029
5151.84 156.331 175.788
5154.73 158.338 177.651
5157.63 158.662 179.381
5160.52 156.639 177.14
5163.42 145.429 162.886
5166.31 133.548 149.503
5169.2 131.251 147.22
5172.1 132.328 149.12
5174.99 143.087 161.859
5177.88 141.063 162.887
5180.78 135.594 151.343
5183.67 135.778 153.376
5186.56 142.978 162.666
5189.45 145.995 164.949
5192.35 150.747 171.032
5195.24 155.515 177
5198.13 151.246 175.162
5201.02 160.864 183.076
5203.92 154.629 176.125
5206.81 151.347 172.458
5209.7 159.853 183.103
5212.59 158.321 182.119
5215.49 154.894 177.587
5218.38 163.174 186.496
5221.27 164.643 187.996
5224.16 157.619 179.522
5227.05 156.558 179.889
5229.94 156.299 179.111
5232.84 161.632 184.515
5235.73 167.004 190.975
5238.62 163.616 190.427
5241.51 172.68 196.19
5244.4 167.597 191.602
5247.29 168.869 195.169
5250.18 170.898 195.292
5253.07 168.289 192.9
5255.96 170.433 197.391
5258.86 173.252 197.943
5261.75 160.279 186.317
5264.64 152.775 173.418
5267.53 146.079 166.169
5270.42 150.065 172.303
5273.31 152.311 178.365
5276.2 156.805 181.605
5279.09 162.292 189.634
5281.98 164.712 186.619
5284.87 165.972 192.511
5287.76 169.325 195.956
5290.65 173.885 200.014
5293.54 172.292 199.271
5296.43 166.774 194.281
5299.32 167.362 196.373
5302.21 174.756 201.503
5305.09 173.496 200.787
5307.98 178.17 205.832
5310.87 182.591 210.544
5313.76 176.062 203.128
5316.65 178.528 205.252
5319.54 167.112 193.455
5322.43 169.326 193.904
5325.32 164.362 189.198
5328.21 158.687 182.344
5331.09 169.866 193.253
5333.98 171.08 196.606
5336.87 165.272 190.131
5339.76 169.433 193.759
5342.65 166.744 193.015
5345.53 169.126 198.091
5348.42 173.41 201.031
5351.31 174.41 201.347
5354.2 177.575 207.104
5357.09 176.304 204.431
5359.97 175.309 200.612
5362.86 170.928 198.465
5365.75 165.636 194.12
5368.64 167.7 195.405
5371.52 170.863 197.363
5374.41 169.534 197.944
5377.3 171.8 198.377
5380.18 175.419 200.602
5383.07 171.154 195.413
5385.96 177.074 207.08
5388.84 168.995 197.561
5391.73 167.51 192.787
5394.62 163.608 193.349
5397.5 163.919 187.318
5400.39 165.133 188.499
5403.28 157.903 182.104
5406.16 159.098 184.83
5409.05 160.46 188.061
5411.93 165.005 188.84
5414.82 166.273 194.702
5417.7 169.014 194.256
5420.59 166.925 192.445
5423.48 167.094 193.351
5426.36 170.545 196.662
5429.25 160.563 186.656
5432.13 164.375 191.405
5435.02 168.103 196.975
5437.9 173.346 204.161
5440.79 171.428 198.542
5443.67 168.559 193.65
5446.56 167.474 193.292
5449.44 152.345 193.834
5452.32 156.637 198.438
5455.21 152.838 197.796
5458.09 161.749 205.517
5460.98 162.462 206.317
5463.86 160.312 206.714
5466.74 163.323 208.14
5469.63 160.816 206.439
5472.51 155.42 199.296
5475.4 151.073 194.647
5478.28 155.277 199.636
5481.16 155.209 195.962
5484.05 156.532 202.927
5486.93 157.463 199.907
5489.81 161.416 206.307
5492.7 161.271 203.037
5495.58 159.72 203.855
5498.46 155.569 198.132
5501.34 157.251 202.764
5504.23 160.85 206.644
5507.11 159.504 201.994
5509.99 153.111 193.997
5512.87 158.334 199.674
5515.76 156.076 200.35
5518.64 158.155 201.874
5521.52 161.002 203.884
5524.4 155.196 199.438
5527.28 158.917 200.899
5530.17 155.468 196.751
5533.05 160.091 203.877
5535.93 162.348 205.044
5538.81 161.083 202.116
5541.69 163.115 206.624
5544.57 161.096 203.293
5547.45 161.134 203.801
5550.34 162.1 204.185
5553.22 162.291 204.933
5556.1 159.346 205.107
5558.98 164.38 208.501
5561.86 158.041 200.662
5564.74 159.028 200.245
5567.62 154.099 200.741
5570.5 156.408 197.221
5573.38 149.532 203.641
5576.26 142.266 197.57
5579.14 155.379 198.287
5582.02 159.949 203.038
5584.9 145.831 186.469
5587.78 156.372 196.687
5590.66 150.164 200.347
5593.54 152.305 193.579
5596.42 153.972 198.285
5599.3 153.729 192.945
5602.17 162.003 207.836
5605.05 163.937 208.463
5607.93 162.143 204.765
5610.81 160.842 204.494
5613.69 156.752 198.471
5616.57 150.153 190.835
5619.45 157.431 199.969
5622.33 159.104 201.106
5625.2 161.823 203.134
5628.08 153.468 195.704
5630.96 156.607 201.631
5633.84 158.043 202.68
5636.72 160.912 203.276
5639.59 156.297 198.04
5642.47 158.459 201.066
5645.35 160.269 203.271
5648.23 161.267 203.803
5651.1 158.047 201.714
5653.98 158.735 202.098
5656.86 158.761 201.097
5659.73 157.499 199.453
5662.61 156.382 198.703
5665.49 156.305 202.124
5668.36 162.377 205.063
5671.24 160.203 202.918
5674.12 158.846 201.73
5676.99 163.457 211.27
5679.87 162.188 205.382
5682.74 160.347 202.512
5685.62 156.96 197.654
5688.5 159.732 202.027
5691.37 159.847 200.538
5694.25 159.023 205.264
5697.12 160.273 202.947
5700 159.536 201.69
5702.87 154.465 197.172
5705.75 154.273 199.096
5708.62 154.289 194.219
5711.5 152.578 193.407
5714.37 156.383 203.551
5717.25 159.912 201.926
5720.12 160.553 203.039
5723 160.136 206.123
5725.87 163.907 208.742
5728.75 163.739 211.804
5731.62 161.272 205.559
5734.49 162.853 206.411
5737.37 166.614 210.485
5740.24 159.301 205.364
5743.11 161.028 207.622
5745.99 158.542 202.201
5748.86 157.911 202.828
5751.74 159.087 202.727
5754.61 160.268 203.407
5757.48 157.837 201.534
5760.35 162.816 209.436
5763.23 162.648 205.892
5766.1 158.962 205.176
5768.97 165.419 211.392
5771.84 164.207 211.684
5774.72 161.208 204.758
5777.59 158.139 199.273
5780.46 153.646 196.666
5783.33 155.151 195.477
5786.21 151.858 197.542
5789.08 158.883 202.143
5791.95 159.052 203.262
5794.82 160.797 204.019
5797.69 160.674 203.42
5800.56 161.666 209.565
5803.43 163.303 206.325
5806.31 166.687 210.445
5809.18 166.281 209.563
5812.05 164.652 212.161
5814.92 163.935 207.551
5817.79 167.156 212.099
5820.66 168.1 214.043
5823.53 172.022 218.537
5826.4 168.167 214.092
5829.27 170.879 215.894
5832.14 169.708 214.034
5835.01 164.111 208
5837.88 168.161 216.377
5840.75 170.697 216.29
5843.62 167.645 212.148
5846.49 166.826 210.761
5849.36 167.855 212.757
5852.23 160.645 203.017
5855.1 163.463 207.65
5857.96 160.034 203.492
5860.83 154.824 199.959
5863.7 166.633 209.715
5866.57 162.395 205.487
5869.44 171.319 217.782
5872.31 171.097 215.83
5875.17 164.332 206.49
5878.04 164.244 207.256
5880.91 164.918 208.97
5883.78 164.317 208.981
5886.65 151.555 191.417
5889.51 133.944 169.518
5892.38 135.494 171.213
5895.25 139.543 177.361
5898.12 141.596 187.499
5900.98 156.764 196.81
5903.85 160.086 202.601
5906.72 155.679 202.621
5909.58 158.17 205.1
5912.45 160.681 204.586
5915.32 166.092 210.858
5918.18 162.369 205.337
5921.05 157.889 205.385
5923.92 162.711 206.145
5926.78 170.167 214.309
5929.65 164.383 208.394
5932.51 161.004 204.183
5935.38 166.168 208.426
5938.24 166.435 211.013
5941.11 160.411 208.407
5943.97 160.616 209.105
5946.84 165.78 210.525
5949.7 159.148 200.256
5952.57 158.176 202.965
5955.43 162.136 209.515
5958.3 166.569 210.624
5961.16 160.983 207.553
5964.03 165.515 211.601
5966.89 168.008 213.415
5969.76 165.448 212.507
5972.62 156.337 202.105
5975.48 165.987 209.904
5978.35 164.057 205.483
5981.21 159.477 202.926
5984.07 156.77 201.874
5986.94 154.576 200.866
5989.8 159.99 205.583
5992.66 168.427 214.046
5995.53 162.12 205.236
5998.39 166.469 210.026
6001.25 162.037 207.08
6004.11 167.816 212.939
6006.98 163.662 206.859
6009.84 160.681 203.319
6012.7 160.47 205.837
6015.56 156.289 201.828
6018.43 159.076 203.044
6021.29 160.467 202.779
6024.15 159.141 200.713
6027.01 164.742 209.311
6029.87 160.453 207.241
6032.73 164.275 207.396
6035.59 161.328 204.296
6038.45 163.949 207.258
6041.32 168.357 213.393
6044.18 166.941 211.936
6047.04 168.041 211.684
6049.9 166.175 209.757
6052.76 166.515 212.981
6055.62 164.691 210.198
6058.48 161.017 203.411
6061.34 165.663 208.756
6064.2 164.921 211.271
6067.06 162.121 208.916
6069.92 166.476 210.706
6072.78 164.721 211.451
6075.64 163.747 210.209
6078.49 167.649 211.542
6081.35 162.719 205.159
6084.21 162.678 204.965
6087.07 165.263 208.01
6089.93 160.542 202.749
6092.79 161.153 206.045
6095.65 164.508 206.835
6098.51 162.297 207.894
6101.36 164.03 207.753
6104.22 160.622 203.349
6107.08 158.591 203.913
6109.94 165.197 209.246
6112.79 165.098 207.294
6115.65 162.132 204.92
6118.51 160.201 202.619
6121.37 160.851 202.371
6124.22 159.355 200.765
6127.08 160.104 201.87
6129.94 162.803 209.947
6132.79 161.342 204.978
6135.65 159.258 201.541
6138.51 156.194 200.56
6141.36 163.074 205.522
6144.22 163.644 207.304
6147.07 159.012 204.258
6149.93 163.43 205.191
6152.79 158.825 199.514
6155.64 159.566 200.441
6158.5 150.303 192.666
6161.35 150.288 189.493
6164.21 155.986 196.355
6167.06 149.783 190.627
6169.92 152.897 196.137
6172.77 157.114 197.256
6175.63 158.447 200.403
6178.48 165.124 207.242
6181.33 163.706 208.782
6184.19 162.298 204.4
6187.04 164.596 206.399
6189.9 160.799 202.163
6192.75 160.997 203.168
6195.6 161.81 203.509
6198.46 165.966 208.69
6201.31 166.629 208.656
6204.16 165.491 208.104
6207.02 162.542 207.119
6209.87 162.374 204.213
6212.72 163.092 204.756
6215.58 163.206 208.867
6218.43 161.318 202.671
6221.28 166.308 208.867
6224.13 167.097 210.646
6226.98 162.237 205.197
6229.84 161.598 206.211
6232.69 168.847 211.893
6235.54 167.222 210.387
6238.39 165.641 209.352
6241.24 156.271 196.432
6244.09 164.566 207.097
6246.94 163.802 205.956
6249.8 163.874 206.015
6252.65 164.175 204.788
6255.5 158.454 203.348
6258.35 161.29 201.642
6261.2 157.212 202.161
6264.05 164.358 205.361
6266.9 171.26 214.698
6269.75 166.627 208.986
6272.6 165.29 207.48
6275.45 163.802 204.297
6278.3 153.879 195.752
6281.15 157.402 198.072
6284 158.176 201.097
6286.84 162.497 203.497
6289.69 167.191 207.657
6292.54 158.843 203.878
6295.39 160.336 201.912
6298.24 161.17 199.822
6301.09 151.268 199.783
6303.94 156.881 198.877
6306.78 162.187 202.721
6309.63 159.115 203.91
6312.48 156.689 195.957
6315.33 157.912 197.548
6318.18 161.16 203.416
6321.02 162.527 204.017
6323.87 162.288 202.85
6326.72 163.728 204.485
6329.56 166.367 207.789
6332.41 162.182 202.144
6335.26 160.342 199.965
6338.1 157.648 199.914
6340.95 158.025 200.805
6343.8 161.649 204.666
6346.64 164.067 205.221
6349.49 164.26 203.136
6352.33 162.853 202.78
6355.18 164.532 205.892
6358.03 160.104 199.206
6360.87 159.434 203.133
6363.72 170.656 211.059
6366.56 167.381 207.994
6369.41 161.209 205.267
6372.25 166.44 206.087
6375.1 170.385 210.744
6377.94 167.894 207.173
6380.78 164.792 207.7
6383.63 165.563 205.151
6386.47 163.768 206.743
6389.32 166.99 207.323
6392.16 163.011 200.431
6395 166.964 209.938
6397.85 159.348 199.709
6400.69 164.282 203.22
6403.53 166.776 206.984
6406.38 161.336 202.429
6409.22 162.676 202.377
6412.06 164.173 206.127
6414.9 165.086 204.514
6417.75 164.141 204.522
6420.59 161.994 199.772
6423.43 167.777 206.284
6426.27 168.06 208.835
6429.11 169.854 209.489
6431.96 164.268 203.913
6434.8 168.322 207.216
6437.64 162.883 201.026
6440.48 157.713 196.987
6443.32 164.279 206.092
6446.16 163.127 200.227
6449 165.783 204.942
6451.84 161.82 199.177
6454.68 163.161 201.604
6457.52 162.828 200.978
6460.36 163.416 202.347
6463.2 159.405 196.993
6466.04 166.27 205.309
6468.88 160.014 198.434
6471.72 163.284 199.331
6474.56 164.906 202.059
6477.4 162.085 199.352
6480.24 163.532 200.603
6483.08 163.756 201.377
6485.92 168.293 206.916
6488.76 156.625 192.395
6491.6 153.835 190.284
6494.43 152.094 187.482
6497.27 152.491 188.353
6500.11 160.352 201.339
6502.95 162.893 201.886
6505.79 163.101 199.894
6508.62 163.405 201.277
6511.46 161.97 198.54
6514.3 159.305 197.498
6517.13 164.842 202.14
6519.97 161.312 198.209
6522.81 161.739 198.797
6525.64 158.475 197.786
6528.48 162.888 200.137
6531.32 158.684 198.521
6534.15 158.706 193.449
6536.99 165.808 202.797
6539.83 145.395 198.59
6542.66 144.246 195.91
6545.5 143.519 194.453
6548.33 144.846 196.683
6551.17 141.974 189.438
6554 137.213 189.071
6556.84 136.479 182.742
6559.67 122.871 166.863
6562.51 118.227 157.648
6565.34 128.806 170.44
6568.18 135.073 178.858
6571.01 140.565 187.828
6573.84 146.076 193.136
6576.68 146.937 192.832
6579.51 148.53 195.557
6582.34 146.053 195.087
6585.18 146.916 193.255
6588.01 145.845 190.49
6590.84 145.146 194.272
6593.68 149.136 196.003
6596.51 145.756 196.106
6599.34 147.04 196.371
6602.17 150.143 196.991
6605.01 152.368 202.127
6607.84 149.056 195.173
6610.67 147.356 195.446
6613.5 150.918 198.812
6616.33 150.778 198.093
6619.17 146.781 193.331
6622 152.511 201.468
6624.83 151.774 198.674
6627.66 144.51 190.818
6630.49 144.016 192.696
6633.32 148.479 194.862
6636.15 147.1 195.835
6638.98 147.749 193.815
6641.81 152.923 198.693
6644.64 154.035 200.843
6647.47 149.532 197.347
6650.3 151.021 197.842
6653.13 153.305 200.162
6655.96 147.492 195.181
6658.79 158.337 206.069
6661.62 150.031 197.243
6664.45 150.859 195.499
6667.28 157.585 204.419
6670.1 151.857 197.136
6672.93 150.922 197.214
6675.76 150.681 195.602
6678.59 151.807 194.967
6681.42 154.456 198.585
6684.24 151.784 195.612
6687.07 153.54 199.096
6689.9 153.822 199.297
6692.73 150.54 196.918
6695.55 150.664 194.367
6698.38 150.712 196.831
6701.21 151.08 195.507
6704.03 149.445 193.11
6706.86 148.497 193.055
6709.69 151.496 195.868
6712.51 149.028 194.205
6715.34 150.047 192.831
6718.16 153.52 196.869
6720.99 156.482 197.889
6723.82 149.265 191.633
6726.64 150.967 195.871
6729.47 150.517 197.224
6732.29 149.945 191.97
6735.12 154.388 198.768
6737.94 150.487 194.869
6740.77 153.919 197.976
6743.59 151.286 192.523
6746.41 150.036 192.972
6749.24 152.586 194.732
6752.06 146.754 188.484
6754.89 155.342 200.516
6757.71 150.796 191.02
6760.53 151.937 194.194
6763.36 152.79 194.125
6766.18 148.289 188.161
6769 150.598 191.279
6771.82 153.483 196.381
6774.65 154.34 194.413
6777.47 152.815 192.356
6780.29 146.216 187.385
6783.11 145.983 187.43
6785.93 151.791 191.066
6788.76 153.274 192.916
6791.58 151.218 191.896
6794.4 147.931 186.635
6797.22 151.71 189.042
6800.04 151.821 190.726
6802.86 146.608 184.243
6805.68 148.951 188.089
6808.5 149.052 187.412
6811.32 149.091 186.789
6814.14 144.081 181.735
6816.96 146.71 183.968
6819.78 148.002 186.804
6822.6 149.13 187.452
6825.42 144.84 182.98
6828.24 145.719 184.187
6831.06 150.233 187.109
6833.88 142.649 177.919
6836.7 148.878 184.546
6839.52 143.849 180.225
6842.34 139.14 174.58
6845.15 144.168 179.784
6847.97 141.465 177.865
6850.79 147.783 182.756
6853.61 136.331 171.985
6856.43 147.622 180.618
6859.24 148.925 183.97
6862.06 139.728 172.62
6864.88 127.344 158.334
6867.7 113.941 143.511
6870.51 111.446 139.765
6873.33 111.272 139.255
6876.15 125.076 154.126
6878.96 126.117 154.263
6881.78 129.39 158.444
6884.59 128.259 157.373
6887.41 130.06 160.946
6890.23 126.598 156.803
6893.04 130.7 164.354
6895.86 132.514 161.33
6898.67 139.956 171.272
6901.49 135.635 166.677
6904.3 132.85 161.471
6907.12 140.332 169.913
6909.93 135.893 166.265
6912.74 133.57 167.144
6915.56 137.074 170.303
6918.37 137.758 167.002
6921.19 133.352 167.77
6924 140.504 172.42
6926.81 140.867 172.898
6929.63 142.627 174.67
6932.44 138.949 169.391
6935.25 140.542 169.81
6938.06 135.742 169.052
6940.88 142.502 177.749
6943.69 137.929 166.001
6946.5 144.379 173.308
6949.31 142.053 173.604
6952.12 143.994 174.586
6954.94 141.599 173.333
6957.75 149.216 178.739
6960.56 146.387 176.755
6963.37 146.74 179.955
6966.18 150.18 182.296
6968.99 144.5 175.8
6971.8 145.815 176.302
6974.61 145.943 175.729
6977.42 140.363 174.769
6980.23 142.899 172.579
6983.04 140.804 173.782
6985.85 149.218 178.959
6988.66 144.688 174.343
6991.47 143.653 172.713
6994.28 140.496 167.741
6997.09 143.002 174.871
6999.9 140.946 168.796
7002.71 143.356 171.44
7005.52 144.146 171.141
7008.32 141.88 170.429
7011.13 143.144 169.914
7013.94 138.679 169.117
7016.75 141.974 169.707
7019.56 141.307 170.276
7022.36 141.719 168.582
7025.17 137.853 166.095
7027.98 140.432 167.006
7030.78 145.994 174.786
7033.59 141.833 168.803
7036.4 146.014 173.264
7039.2 145.012 175.342
7042.01 149.665 178.154
7044.82 150.011 177.041
7047.62 147.648 174.891
7050.43 143.124 170.97
7053.23 146.209 173.365
7056.04 148.662 175.87
7058.84 143.483 170.797
7061.65 145.157 171.304
7064.45 142.447 167.973
7067.26 144.991 170.189
7070.06 145.451 170.595
7072.87 146.371 174.797
7075.67 148.687 174.316
7078.47 149.177 177.111
7081.28 144.204 170.234
7084.08 149.29 176.862
7086.89 143.716 168.755
7089.69 149.976 176.265
7092.49 150.413 177.959
7095.29 146.634 173.01
7098.1 146.54 170.696
7100.9 146.51 173.288
7103.7 147.395 172.89
7106.5 146.246 171.432
7109.31 145.622 172.045
7112.11 150.023 174.19
7114.91 141.457 165.724
7117.71 145.181 169.563
7120.51 143.596 167.993
7123.31 146.773 170.071
7126.11 145.665 167.211
7128.91 142.86 163.943
7131.71 148.704 173.187
7134.51 143.652 170.274
7137.31 148.268 172.077
7140.11 143.463 164.082
7142.91 145.084 169.644
7145.71 142.787 165.07
7148.51 144.135 164.361
7151.31 139.73 162.576
7154.11 146.719 168.592
7156.91 140.346 165.364
7159.71 142.154 161.769
7162.51 136.025 156.706
7165.31 138.247 160.05
7168.1 139.039 160.027
7170.9 133.77 152.242
7173.7 132.917 152.016
7176.5 134.199 153.938
7179.29 129.978 149.719
7182.09 124.389 143.235
7184.89 122.755 141.17
7187.68 123.746 141.791
7190.48 117.424 134.852
7193.28 122.737 140.126
7196.07 118.608 137.753
7198.87 123.511 140.672
7201.67 126.311 143.817
7204.46 127.143 144.703
7207.26 132.57 151.426
7210.05 132.65 152.015
7212.85 132.425 151.214
7215.64 141.916 160.598
7218.44 133.407 150.571
7221.23 136.589 155.119
7224.03 136.882 154.826
7226.82 132.732 152.154
7229.61 133.529 155.257
7232.41 128.22 144.862
7235.2 136.383 150.995
7238 129.726 142.599
7240.79 136.048 151.826
7243.58 136.239 153.904
7246.37 130.79 157.732
7249.17 145.215 162.385
7251.96 142.47 158.853
7254.75 137.453 153.347
7257.54 133.601 150
7260.34 127.501 143.529
7263.13 130.513 147.903
7265.92 136.066 153.697
7268.71 134.614 149.534
7271.5 133.077 148.743
7274.29 131.715 146.966
7277.08 136.179 147.941
7279.87 137.278 153.372
7282.67 129.951 145.725
7285.46 134.813 148.886
7288.25 121.081 135.83
7291.04 128.154 140.457
7293.83 130.482 145.078
7296.61 135.859 150.177
7299.4 138.128 153.558
7302.19 133.282 147.154
7304.98 125.195 137.529
7307.77 131.059 144.569
7310.56 128.116 148.114
7313.35 124.093 145.145
7316.14 141.669 154.975
7318.92 137.641 152.634
7321.71 138.375 154.316
7324.5 139.922 152.708
7327.29 140.274 156.95
7330.07 140.963 157.038
7332.86 147.029 160.19
7335.65 149.881 162.722
7338.44 144.86 158.03
7341.22 136.425 158.617
7344.01 141.922 156.109
7346.79 142.144 155.941
7349.58 132.973 149.322
7352.37 138.994 153.495
7355.15 139.801 153.348
7357.94 144.074 157.378
7360.72 137.335 154.045
7363.51 140.465 149.031
7366.29 141.381 152.723
7369.08 134.348 151.891
7371.86 138.509 150.843
7374.64 138.959 154.754
7377.43 142.877 153.989
7380.21 138.493 152.02
7383 135.75 147.558
7385.78 140.974 153.497
7388.56 135.782 147.314
7391.35 135.297 147.436
7394.13 142.307 151.349
7396.91 141.458 148.733
7399.69 143.644 153.108
7402.48 141.204 150.433
7405.26 132.784 142.555
7408.04 140.303 151.071
7410.82 131.355 144.37
7413.6 141.551 151.217
7416.38 140.19 153.202
7419.17 137.467 150.51
7421.95 142.56 152.721
7424.73 143.193 155.652
7427.51 144.539 155.181
7430.29 141.934 154.141
7433.07 145.701 154.453
7435.85 138.956 149.917
7438.63 142.746 150.122
7441.41 141.652 150.642
7444.19 142.662 153.971
7446.97 140.083 151.097
7449.75 147.066 154.965
7452.52 147.174 157.531
7455.3 147.709 155.941
7458.08 147.219 154.177
7460.86 139.738 148.07
7463.64 145.051 152.64
7466.42 143.142 150.214
7469.19 146.685 153.212
7471.97 147.966 154.895
7474.75 140.422 154.654
7477.53 136.813 155.993
7480.3 136.264 157.248
7483.08 124.92 146.998
7485.86 133.553 152.139
7488.63 127.213 144.689
7491.41 122.73 141.795
7494.18 128.218 148.092
7496.96 131.515 148.637
7499.73 130.111 148.477
7502.51 131.554 147.379
7505.28 132.047 147.681
7508.06 131.307 148.799
7510.83 124.828 143.058
7513.61 128.872 145.632
7516.38 130.957 148.073
7519.16 129.675 144.97
7521.93 127.811 142.621
7524.7 125.632 142.662
7527.48 132.586 147.904
7530.25 122.877 134.876
7533.02 124.528 138.823
7535.8 119.366 134.112
7538.57 124.254 138.75
7541.34 125.792 138.668
7544.12 126.315 139.691
7546.89 119.367 133.099
7549.66 118.73 131.017
7552.43 119.922 133.595
7555.2 119.053 129.547
7557.97 122.696 135.262
7560.75 121.307 133.858
7563.52 126.132 136.04
7566.29 122.27 135.273
7569.06 120.432 134.03
7571.83 118.546 128.719
7574.6 118.117 129.808
7577.37 119.481 131.525
7580.14 121.69 134.636
7582.91 116.123 125.649
7585.68 116.899 126.88
7588.45 108.723 121.601
7591.21 100.366 111.918
7593.98 73.6598 85.7415
7596.75 54.4416 61.6436
7599.52 40.3015 47.0994
7602.29 34.581 39.2798
7605.06 33.2866 37.0114
7607.82 36.5991 40.0684
7610.59 45.2377 45.2301
7613.36 62.273 66.1
7616.13 81.9577 84.865
7618.89 78.4746 82.2832
7621.66 74.0479 80.3777
7624.43 67.3123 72.2094
7627.19 63.2026 68.3516
7629.96 60.367 65.764
7632.72 64.1703 67.7751
7635.49 70.2139 72.1367
7638.26 71.278 73.9291
7641.02 72.7691 76.6746
7643.79 79.0453 82.4845
7646.55 83.1342 86.3083
7649.32 88.9072 94.5168
7652.08 91.927 97.1124
7654.84 89.3618 92.9671
7657.61 95.0774 99.0717
7660.37 101.686 103.496
7663.14 101.096 106.67
7665.9 102.042 105.134
7668.66 107.035 111.275
7671.43 118.224 121.68
7674.19 114.081 118.381
7676.95 111.874 117.337
7679.71 118.893 123.731
7682.48 113.967 120.351
7685.24 114.872 117.165
7688 122.07 126.017
7690.76 121.661 127.403
7693.52 116.855 120.446
7696.29 117.54 121.695
7699.05 122.233 123.595
7701.81 123.778 124.329
7704.57 121.435 127.212
7707.33 123.997 128.098
7710.09 125.58 127.088
7712.85 117.815 118.917
7715.61 124.766 123.701
7718.37 118.293 120.129
7721.13 124.166 129.24
7723.89 126.399 131.164
7726.65 124.565 126.286
7729.4 129.397 130.429
7732.16 127.281 126.518
7734.92 127.918 129.303
7737.68 126.279 126.475
7740.44 120.261 122.485
7743.2 124.092 125.617
7745.95 120.877 120.612
7748.71 129.97 128.631
7751.47 130.138 132.537
7754.22 127.901 132.209
7756.98 132.498 130.604
7759.74 125.813 125.392
7762.49 131.39 129.463
7765.25 133.203 132.705
7768.01 130.962 130.969
7770.76 127.134 128.253
7773.52 129.497 127.594
7776.27 126.751 124.997
7779.03 124.259 122.689
7781.78 126.988 123.3
7784.54 129.618 130.429
7787.29 129.53 123.625
7790.05 133.577 129.44
7792.8 127.548 125.472
7795.55 129.403 130.479
7798.31 122.832 120.779
7801.06 129.499 125.555
7803.81 133.86 129.041
7806.57 128.93 124.624
7809.32 132.391 127.645
7812.07 129.562 126.675
7814.82 126.148 123.02
7817.58 134.258 126.027
7820.33 124.917 119.125
7823.08 128.737 126.031
7825.83 129.685 124.088
7828.58 125.612 122.417
7831.33 124.476 120.813
7834.09 123.537 117.753
7836.84 129.302 123.646
7839.59 132.109 127.958
7842.34 126.892 122.353
7845.09 124.642 120.28
7847.84 127.009 118.693
7850.59 127.096 121.933
7853.34 130.333 124.708
7856.09 135.88 126.511
7858.83 128.096 118.985
7861.58 129.203 125.471
7864.33 128.779 123.585
7867.08 127.067 119.304
7869.83 119.993 111.386
7872.58 129.633 118.054
7875.32 126.198 117.233
7878.07 123.494 116.703
7880.82 125.387 115.473
7883.57 125.767 116.031
7886.31 124.732 114.535
7889.06 125.373 113.169
7891.81 121.472 113.616
7894.55 125.831 117.933
7897.3 126.27 115.568
7900.05 127.996 117.336
7902.79 129.096 117.922
7905.54 123.389 113.094
7908.28 133.678 123.06
7911.03 121.306 114.321
7913.77 121.077 107.804
7916.52 126.808 114.164
7919.26 114.981 106.386
7922 123.443 115.736
7924.75 125.443 112.749
7927.49 121.112 110.809
7930.24 123.741 108.98
7932.98 122.122 108.774
7935.72 121.351 110.743
7938.47 120.645 106.407
7941.21 123.867 112.346
7943.95 122.463 107.83
7946.69 120.875 109.029
7949.43 129.012 114.185
7952.18 130.349 114.336
7954.92 125.484 112.457
7957.66 129.509 115.908
7960.4 124.658 107.902
7963.14 130.156 113.886
7965.88 128.129 113.78
7968.62 127.196 114.275
7971.36 127.907 114.265
7974.1 126.506 113.39
7976.84 127.137 112.839
7979.58 126.653 111.736
7982.32 126.333 112.974
7985.06 124.646 110.984
7987.8 132.053 114.546
7990.54 126.535 108.706
7993.28 125.665 108.222
7996.02 122.187 107.545
7998.76 123.655 108.791
8001.49 117.47 102.216
8004.23 124.195 108.705
8006.97 123.528 108.3
8009.71 127.127 109.019
8012.44 130.911 115.073
8015.18 132.68 115.535
8017.92 119.057 105.164
8020.65 119.475 100.131
8023.39 126.059 109.933
8026.13 122.928 102.164
8028.86 123.73 111.143
8031.6 124.384 106.171
8034.33 118.673 102.227
8037.07 125.931 107.283
8039.8 122.321 103.314
8042.54 118.876 100.336
8045.27 121.005 102.859
8048.01 120.223 102.273
8050.74 124.965 106.315
8053.47 124.806 106.122
8056.21 124.489 103.94
8058.94 128.211 108.977
8061.67 122.718 104.884
8064.41 128.731 108.332
8067.14 127.29 107.108
8069.87 124.01 104.884
8072.61 127.418 107.82
8075.34 125.402 102.605
8078.07 124.282 103.972
8080.8 120.502 100.257
8083.53 119.313 98.8711
8086.26 119.692 99.0771
8088.99 123.011 103.69
8091.73 124.637 101.978
8094.46 120.8 99.6239
8097.19 119.032 98.6227
8099.92 124.56 102.583
8102.65 124.872 102.18
8105.38 125.425 102.401
8108.11 124.553 103.906
8110.84 120.322 97.9909
8113.56 119.992 96.9995
8116.29 124.396 99.7016
8119.02 123.948 100.737
8121.75 119.656 98.133
8124.48 118.098 95.9132
8127.21 121.441 99.1104
8129.93 120.062 98.3557
8132.66 111.716 89.8732
8135.39 114.963 92.4425
8138.12 109.375 88.4117
8140.84 122.854 97.4567
8143.57 110.771 91.5194
8146.3 110.778 92.1655
8149.02 111.268 88.1436
8151.75 110.132 85.0436
8154.47 110.638 90.9086
8157.2 117.332 95.5516
8159.93 105.343 84.0747
8162.65 103.771 84.1855
8165.38 106.649 86.563
8168.1 105.259 84.3732
8170.82 105.419 82.6969
8173.55 109.923 86.7129
8176.27 106.116 84.6569
8179 102.653 81.4315
8181.72 104.139 83.3856
8184.44 111.042 87.218
8187.17 105.53 85.6024
8189.89 107.527 85.4069
8192.61 109.719 86.7287
8195.33 105.315 85.532
8198.06 108.048 85.0318
8200.78 114.931 85.5975
8203.5 112.102 87.2236
8206.22 120.767 92.4025
8208.94 120.809 96.6404
8211.67 117.067 90.876
8214.39 111.457 85.789
8217.11 114.348 89.9433
8219.83 107.209 82.6127
8222.55 109.223 83.6352
8225.27 106.29 82.448
8227.99 91.479 72.7667
8230.71 96.3471 72.7499
8233.43 99.0295 76.0839
8236.15 109.25 82.5498
8238.86 116.135 88.357
8241.58 114.299 88.4789
8244.3 118.494 89.6888
8247.02 118.609 91.2986
8249.74 122.197 93.0781
8252.46 116.724 86.9671
8255.17 114.411 88.8077
8257.89 109.449 84.7421
8260.61 113.075 87.7111
8263.32 113.506 86.4809
8266.04 122.093 90.1099
8268.76 117.358 88.8955
8271.47 107.903 82.5677
8274.19 107.689 84.332
8276.91 102.992 76.2475
8279.62 115.698 85.1284
8282.34 113.043 86.1244
8285.05 106.635 80.137
8287.77 104.778 81.5929
8290.48 111.311 81.0867
8293.2 109.654 82.261
8295.91 114.244 81.2329
8298.62 117.958 94.2691
8301.34 114.193 87.3938
8304.05 109.435 80.5428
8306.76 113.596 83.5841
8309.48 116.834 87.6045
8312.19 111.646 85.3398
8314.9 116.764 88.1322
8317.62 112.776 84.0257
8320.33 110.311 79.0952
8323.04 109.473 80.3866
8325.75 110.802 82.2015
8328.46 111.305 80.8878
8331.17 112.065 80.402
8333.89 110.913 81.3509
8336.6 108.789 80.6748
8339.31 112.213 82.1925
8342.02 116.819 77.3456
8344.73 108.408 77.3598
8347.44 101.276 89.5831
8350.15 105.858 81.6289
8352.86 103.65 82.6918
8355.57 100.708 84.6707
8358.27 104.923 81.7244
8360.98 107.203 78.1588
8363.69 109.34 82.4771
8366.4 117.245 86.1974
8369.11 111.977 84.0531
8371.82 109.863 83.5243
8374.52 107.3 84.6692
8377.23 107.583 84.8603
8379.94 114.952 87.5062
8382.65 108.546 80.1509
8385.35 98.7809 75.8979
8388.06 100.951 79.129
8390.77 109.966 84.8959
8393.47 111.256 83.9428
8396.18 107.987 81.2293
8398.88 106.648 79.7909
8401.59 111.516 82.106
8404.29 106.835 77.6115
8407 105.89 77.538
8409.7 111.432 85.0558
8412.41 115.678 81.5283
8415.11 109.229 79.3359
8417.82 113.122 77.1522
8420.52 103.471 80.7446
8423.22 103.483 81.2642
8425.93 118.908 83.1056
8428.63 115.706 90.466
8431.33 106.742 81.1696
8434.03 114.948 91.9599
8436.74 107.941 83.37
8439.44 104.418 76.3182
8442.14 106.682 78.716
8444.84 105.076 80.9518
8447.54 109.305 75.4155
8450.25 109.131 77.7382
8452.95 113.594 82.1145
8455.65 108.901 73.922
8458.35 113.064 83.3847
8461.05 119.365 81.5277
8463.75 113.485 75.6281
8466.45 107.118 71.4323
8469.15 105.831 73.9178
8471.85 105.905 78.8766
8474.55 113.032 79.3711
8477.25 109.813 80.0496
8479.94 109.045 81.0451
8482.64 109.128 77.3617
8485.34 115.711 82.3324
8488.04 114.155 79.3419
8490.74 117.735 83.6989
8493.43 106.536 76.5977
8496.13 99.12 72.831
8498.83 93.3602 65.5294
8501.53 104.753 67.5889
8504.22 106.222 71.146
8506.92 112.423 74.1033
8509.61 111.123 82.0242
8512.31 106.539 75.0131
8515.01 101.997 66.3571
8517.7 112.351 74.4899
8520.4 108.819 74.8355
8523.09 107.44 74.0142
8525.79 112.919 78.2852
8528.48 107.182 73.0596
8531.18 109.753 72.0772
8533.87 106.201 71.199
8536.56 94.0426 67.4573
8539.26 92.5138 62.3871
8541.95 82.914 56.4354
8544.64 84.8275 53.832
8547.34 97.6684 62.4725
8550.03 99.4542 69.6154
8552.72 107.757 74.7807
8555.41 107.99 72.6686
8558.11 104.532 71.2007
8560.8 108.876 71.4141
8563.49 110.891 74.0668
8566.18 104.271 71.3412
8568.87 113.055 75.6552
8571.56 110.479 72.2845
8574.25 107.51 73.4449
8576.94 109.311 71.4364
8579.63 111.192 73.8168
8582.32 108.791 75.0733
8585.01 105.779 71.995
8587.7 110.475 70.8192
8590.39 112.444 74.2634
8593.08 111.029 74.2461
8595.77 107.85 70.5173
8598.46 111.469 71.1885
8601.15 109.449 71.1822
8603.83 105.473 67.4037
8606.52 105.041 67.9457
8609.21 107.585 72.42
8611.9 111.134 69.0896
8614.58 110.081 73.1637
8617.27 110.34 73.4464
8619.96 113.005 71.1723
8622.64 102.44 68.5183
8625.33 116.007 75.1322
8628.01 110.312 69.3898
8630.7 109.765 70.8443
8633.39 112.75 70.3671
8636.07 108.249 66.7306
8638.76 116.047 74.2387
8641.44 114.094 75.6369
8644.13 108.365 69.8879
8646.81 108.823 75.5827
8649.49 113.64 68.0708
8652.18 112.869 72.8987
8654.86 108.444 68.0419
8657.54 104.292 71.1499
8660.23 94.5747 60.7084
8662.91 90.8251 53.3733
8665.59 96.605 61.2917
8668.27 105.736 60.4934
8670.96 107.71 67.192
8673.64 105.808 66.0752
8676.32 107.934 67.9688
8679 112.869 68.7515
8681.68 108.308 63.5281
8684.36 109.597 66.7177
8687.04 111.507 66.7535
8689.73 110.355 63.0951
8692.41 109.246 63.9619
8695.09 113.384 64.2622
8697.77 110.374 64.0449
8700.44 118.373 67.2271
8703.12 113.288 69.0918
8705.8 114.126 65.2011
8708.48 116.492 65.5116
8711.16 119.484 69.354
8713.84 114.764 67.0391
8716.52 113.76 64.5969
8719.19 111.411 62.7919
8721.87 114.763 64.6601
8724.55 112.364 65.4134
8727.23 111.192 66.7606
8729.9 115.733 64.8197
8732.58 106.747 66.6122
8735.26 110.738 63.2149
8737.93 114.457 63.5178
8740.61 109.478 57.9398
8743.28 120.216 65.7613
8745.96 112.055 64.3943
8748.63 112.896 63.0317
8751.31 110.434 62.617
8753.98 111.4 65.9064
8756.66 106.659 60.66
8759.33 110.516 62.5296
8762.01 110.667 65.2663
8764.68 122.499 60.4931
8767.35 114.487 51.4001
8770.03 112.45 60.296
8772.7 107.291 65.1275
8775.37 110.547 67.497
8778.05 114.428 64.6
8780.72 109.495 62.531
8783.39 106.864 54.7263
8786.06 105.435 58.436
8788.73 103.926 60.9004
8791.41 104.441 59.3971
8794.08 103.421 54.2177
8796.75 108.979 55.368
8799.42 111.042 57.7356
8802.09 113.505 59.0832
8804.76 107.644 58.1348
8807.43 105.402 54.6801
8810.1 102.02 49.6804
8812.77 110.765 56.1392
8815.44 101.345 52.3272
8818.11 108 55.5005
8820.78 102.29 53.4425
8823.44 107.993 57.9727
8826.11 109.376 58.4094
8828.78 109.621 50.9381
8831.45 107.171 49.4571
8834.12 104.327 57.9302
8836.78 108.597 59.2943
8839.45 110.344 61.5765
8842.12 110.934 58.388
8844.78 105.932 59.8709
8847.45 114.05 62.1665
8850.12 115.345 59.0168
8852.78 118.307 56.2423
8855.45 115.458 58.611
8858.11 111.32 54.7601
8860.78 112.94 56.1732
8863.44 106.317 57.8961
8866.11 113.012 55.7385
8868.77 112.21 49.0976
8871.44 111.366 49.5284
8874.1 111.817 51.1088
8876.76 115.458 53.5578
8879.43 115.725 60.0291
8882.09 106.922 59.1484
8884.75 122.861 60.385
8887.42 118.184 46.6928
8890.08 113.317 42.2804
8892.74 113.281 45.2951
8895.4 107.017 49.5469
8898.06 113.375 60.7838
8900.72 119.189 66.901
8903.39 120.531 61.6045
8906.05 115.962 57.8971
8908.71 109.874 45.4505
8911.37 120.313 54.6375
8914.03 122.301 59.3101
8916.69 119.193 62.9174
8919.35 115.844 58.4954
8922.01 113.904 46.1702
8924.67 111.347 46.1047
8927.33 107.774 42.5379
8929.99 102.256 49.7301
8932.64 110.811 58.6365
8935.3 105.804 53.5823
8937.96 103.451 47.6056
8940.62 105.196 53.8986
8943.28 105.882 52.0475
8945.93 98.0862 41.8423
8948.59 101.177 42.0502
8951.25 96.6969 39.8206
8953.9 93.9342 44.2002
8956.56 97.5431 47.7396
8959.22 101.337 39.2292
8961.87 96.1239 38.0715
8964.53 87.1227 30.7542
8967.18 84.6189 40.4845
8969.84 87.2784 40.1641
8972.49 83.7991 41.2606
8975.15 91.6582 41.998
8977.8 95.5095 40.4088
8980.46 90.8447 35.3364
8983.11 94.087 39.8389
8985.76 92.8118 40.2622
8988.42 89.0258 39.4958
8991.07 86.5526 34.628
8993.72 80.1448 30.7604
8996.38 84.3828 34.5566
8999.03 86.9078 39.7599
9001.68 89.0551 40.4762
9004.33 87.6338 27.9003
9006.98 89.9605 36.6296
9009.64 87.4666 34.58
9012.29 90.4881 46.1888
9014.94 86.4628 35.2549
9017.59 93.3659 40.9504
9020.24 92.7057 41.5355
9022.89 91.8236 38.2024
9025.54 99.8356 35.0155
9028.19 96.8126 37.7413
9030.84 94.5366 37.033
9033.49 99.1652 36.4478
9036.14 103.468 39.1711
9038.79 105.093 45.1312
9041.43 105.118 39.2075
9044.08 103.714 39.4086
9046.73 96.4516 42.5203
9049.38 98.2063 35.0573
9052.03 98.468 34.5484
9054.67 98.0423 37.4294
9057.32 96.4184 34.0103
9059.97 102.174 42.4347
9062.61 99.6733 42.4702
9065.26 100.213 44.0359
