wavelength spectrum_sum 3smoothed_sum spectrum_optimal 3smoothed_optimal
3518.86 180.355 134.749 123.303 98.1406
3521.76 223.894 236.991 171.119 177.683
3524.67 306.724 275.216 238.626 210.741
3527.58 295.032 304.966 222.478 233.859
3530.49 313.141 310.628 240.473 231.667
3533.39 323.712 321.325 232.051 241.393
3536.3 327.122 315.599 251.656 242.221
3539.21 295.962 317.478 242.955 249.808
3542.11 329.35 306.599 254.814 244.003
3545.02 294.486 305.176 234.24 237.86
3547.93 291.692 319.782 224.527 250.423
3550.83 373.168 335.194 292.502 262.346
3553.74 340.721 364.432 270.008 284.301
3556.65 379.406 406.513 290.394 296.99
3559.56 499.413 408.713 330.567 301.139
3562.46 347.321 398.848 282.455 301.99
3565.37 349.81 367.548 292.948 300.749
3568.28 405.512 395.729 326.845 320.008
3571.18 431.864 421.824 340.23 343.037
3574.09 428.097 410.821 362.035 343.429
3577 372.501 399.953 328.022 343.953
3579.91 399.262 388.24 341.801 329.352
3582.81 392.956 402.249 318.235 338.392
3585.72 414.529 414.891 355.14 350.246
3588.63 437.187 425.058 377.363 369.808
3591.53 423.458 429.2 376.922 375.148
3594.44 426.955 427.512 371.158 371.521
3597.35 432.123 432.213 366.485 368.905
3600.26 437.561 434.542 369.073 367.661
3603.16 433.943 421.331 367.427 354.924
3606.07 392.49 413.814 328.273 352.836
3608.98 415.01 421.696 362.809 368.166
3611.89 457.586 448.192 413.414 389.776
3614.79 471.978 470.48 393.103 413.097
3617.7 481.876 482.711 432.775 426.034
3620.61 494.28 494.567 452.224 439.333
3623.51 507.544 502.606 433 442.519
3626.42 505.993 511.751 442.332 442.369
3629.33 521.715 510.565 451.775 453.043
3632.24 503.987 519.109 465.022 462.5
3635.14 531.626 522.632 470.704 471.153
3638.05 532.284 534.778 477.733 479.414
3640.96 540.423 531.055 489.806 476.895
3643.87 520.457 534.898 463.147 473.874
3646.77 543.814 546.616 468.669 478.885
3649.68 575.578 558.764 504.839 489.753
3652.59 556.899 569.921 495.75 496.203
3655.5 577.286 573.478 488.02 500.065
3658.4 586.248 585.299 516.426 507.513
3661.31 592.364 592.968 518.094 526.765
3664.22 600.291 591.048 545.776 531.115
3667.13 580.49 581.209 529.475 524.73
3670.03 562.846 567.155 498.94 507.664
3672.94 558.128 586.06 494.578 521.601
3675.85 637.206 605.022 571.285 539.528
3678.76 619.731 614.935 552.721 547.554
3681.66 587.869 597.76 518.656 521.477
3684.57 585.68 596.107 493.052 525.424
3687.48 614.772 601.003 564.563 533.939
3690.39 602.556 625.044 544.202 563.914
3693.29 657.805 652.334 582.976 591.148
3696.2 696.64 672.575 646.265 605.831
3699.11 663.28 660.72 588.251 598.807
3702.02 622.24 630.109 561.904 563.966
3704.92 604.807 616.679 541.743 550.263
3707.83 622.989 617.461 547.142 558.465
3710.74 624.588 638.681 586.51 587.163
3713.65 668.467 679.939 627.836 626.387
3716.56 746.763 717.812 664.813 652.042
3719.46 738.205 740.451 663.477 668.453
3722.37 736.386 738.643 677.068 666.727
3725.28 741.339 716.449 659.636 647.306
3728.19 671.622 713.601 605.216 641.634
3731.09 727.843 709.312 660.05 632.284
3734 728.471 741.023 631.588 665.503
3736.91 766.756 761.839 704.871 685.84
3739.82 790.29 776.095 721.062 708.793
3742.72 771.238 863.907 700.444 832.246
3745.63 1030.19 881.361 1075.23 856.253
3748.54 842.652 847.405 793.083 823.706
3751.45 669.369 941.137 602.8 905.906
3754.36 1311.39 930.002 1321.84 887.783
3757.26 809.247 952.276 738.712 910.809
3760.17 736.191 784.773 671.88 713.904
3763.08 808.881 776.316 731.12 701.502
3765.99 783.875 814.826 701.506 730.774
3768.89 851.723 818.596 759.697 739.118
3771.8 820.189 825.322 756.151 753.901
3774.71 804.052 828.983 745.855 762.969
3777.62 862.708 828.206 786.902 767.937
3780.52 817.858 834.651 771.055 767.75
3783.43 823.388 820.269 745.295 767.428
3786.34 819.562 823.52 785.933 766.416
3789.25 827.611 809.455 768.021 755.853
3792.16 781.192 819.515 713.605 754.876
3795.06 849.743 836.442 783.001 780.683
3797.97 878.391 859.997 845.443 814.499
3800.88 851.856 891.483 815.054 858.654
3803.79 944.201 894.306 915.466 852.875
3806.69 886.861 934.038 828.106 883.246
3809.6 971.052 932.177 906.167 871.817
3812.51 938.62 954.275 881.18 889.286
3815.42 953.153 951.422 880.513 881.718
3818.33 962.494 968.627 883.462 899.234
3821.23 990.233 972.362 933.727 897.907
3824.14 964.357 985.511 876.531 914.668
3827.05 1001.94 975.024 933.745 901.762
3829.96 958.775 968.449 895.011 907.788
3832.86 944.63 945.843 894.607 896.867
3835.77 934.124 950.833 900.984 904.98
3838.68 973.744 964.352 919.349 908.876
3841.59 985.187 1010.07 906.294 936.712
3844.5 1071.28 1035.45 984.495 955.124
3847.4 1049.88 1048.27 974.584 967.237
3850.31 1023.64 1054.78 942.632 977.175
3853.22 1090.83 1051.17 1014.31 980.022
3856.13 1039.04 1077 983.124 1007.51
3859.03 1101.15 1074.27 1025.1 1005.54
3861.94 1082.63 1065.49 1008.41 988.89
3864.85 1012.69 1057.49 933.161 981.819
3867.76 1077.15 1033.82 1003.89 961.866
3870.67 1011.62 1023.53 948.548 952.882
3873.57 981.825 993.075 906.209 930.417
3876.48 985.783 994.133 936.495 926.857
3879.39 1014.79 986.174 937.867 917.178
3882.3 957.947 996.587 877.173 925.404
3885.2 1017.02 1002.8 961.172 942.914
3888.11 1033.42 1031.6 990.398 986.584
3891.02 1044.36 1051.55 1008.18 995.769
3893.93 1076.89 1050.62 988.729 983.674
3896.84 1030.62 1064.33 954.114 997.789
3899.74 1085.47 1080.52 1050.52 1023.33
3902.65 1125.47 1128.7 1065.35 1074.36
3905.56 1175.17 1150.52 1107.21 1095.35
3908.47 1150.94 1147.78 1113.5 1095.5
3911.37 1117.22 1155.59 1065.79 1101.05
3914.28 1198.59 1144.73 1123.87 1091.14
3917.19 1118.37 1181.54 1083.75 1120.33
3920.1 1227.65 1194.22 1153.37 1132.57
3923.01 1236.64 1220.79 1160.58 1154.88
3925.91 1198.07 1217 1150.68 1156.82
3928.82 1216.28 1183.96 1159.2 1139.06
3931.73 1137.52 1208.24 1107.3 1157.98
3934.64 1270.92 1221.83 1207.43 1173.32
3937.54 1257.04 1255.48 1205.23 1202.46
3940.45 1238.49 1243.35 1194.71 1190.21
3943.36 1234.51 1228.1 1170.69 1181.75
3946.27 1211.3 1208.19 1179.83 1157.95
3949.17 1178.76 1205.58 1123.32 1166.06
3952.08 1226.68 1187.49 1195.03 1174.85
3954.99 1157.02 1180.86 1206.19 1211.62
3957.9 1158.86 1154.08 1233.64 1210.6
3960.8 1146.36 1142 1191.97 1193.32
3963.71 1120.78 1140.85 1154.36 1171.45
3966.62 1155.4 1113.92 1168.02 1146.33
3969.53 1065.57 1112.96 1116.62 1148.79
3972.43 1117.92 1096.43 1161.72 1133.5
3975.34 1105.8 1110.22 1122.15 1133.16
3978.25 1106.96 1134.4 1115.59 1163.49
3981.16 1190.45 1136.53 1252.71 1164.31
3984.07 1112.18 1168.64 1124.63 1201.81
3986.97 1203.31 1170.74 1228.08 1200.9
3989.88 1196.73 1203.13 1249.99 1243.79
3992.79 1209.34 1197.1 1253.31 1241.48
3995.7 1185.23 1206.01 1221.13 1249.04
3998.6 1223.45 1216.27 1272.68 1265.27
4001.51 1240.13 1241.93 1302.01 1297.75
4004.42 1262.19 1248.03 1318.55 1303.41
4007.33 1241.77 1249.54 1289.67 1305.5
4010.23 1244.67 1267.35 1308.29 1325.25
4013.14 1315.62 1279.67 1377.78 1339.23
4016.05 1278.71 1305.84 1331.62 1358.59
4018.96 1323.19 1309.92 1366.36 1365.36
4021.86 1327.86 1341.92 1398.11 1403.9
4024.77 1374.72 1349.88 1447.23 1410.96
4027.68 1347.07 1351.42 1387.54 1407.69
4030.58 1332.48 1326.97 1388.31 1380.07
4033.49 1301.38 1313.33 1364.36 1378.24
4036.4 1306.13 1317.25 1382.04 1383.68
4039.31 1344.24 1307.98 1404.64 1373.85
4042.21 1273.57 1324.57 1334.86 1400.4
4045.12 1355.91 1325.2 1461.7 1404.98
4048.03 1346.13 1341.69 1418.39 1416.12
4050.94 1323.02 1348.11 1368.27 1404.72
4053.84 1375.17 1344.62 1427.5 1412.4
4056.75 1335.66 1373.84 1441.44 1451.18
4059.66 1410.68 1345.02 1484.61 1416.92
4062.57 1288.72 1354.81 1324.71 1413.79
4065.47 1365.04 1353.42 1432.06 1406.85
4068.38 1406.5 1388.98 1463.77 1459.7
4071.29 1395.4 1378.53 1483.28 1457.98
4074.19 1333.67 1321.08 1426.88 1407.69
4077.1 1234.16 1298.32 1312.92 1378.28
4080.01 1327.13 1282.21 1395.04 1356.78
4082.92 1285.34 1329.82 1362.36 1396.39
4085.82 1377.01 1341.94 1431.76 1413.37
4088.73 1363.46 1347.33 1445.98 1413.6
4091.64 1301.51 1334.76 1363.05 1415.67
4094.54 1339.31 1314.29 1437.98 1396.12
4097.45 1302.05 1307.36 1387.34 1389.64
4100.36 1280.73 1265.89 1343.6 1345.68
4103.27 1214.9 1272.04 1306.09 1347.52
4106.17 1320.5 1278.13 1392.87 1359.49
4109.08 1298.99 1293.5 1379.5 1374.67
4111.99 1261 1280.85 1351.65 1368.63
4114.89 1282.57 1299.35 1374.75 1387.63
4117.8 1354.47 1319.51 1436.5 1413.64
4120.71 1321.48 1370.63 1429.68 1457.42
4123.61 1435.94 1369.48 1506.09 1452.3
4126.52 1351.02 1404.5 1421.13 1488.21
4129.43 1426.54 1404.46 1537.42 1489.28
4132.33 1435.82 1412.08 1509.3 1498.89
4135.24 1373.87 1427.39 1449.96 1500.78
4138.15 1472.48 1438.62 1543.08 1518.18
4141.06 1469.51 1471.86 1561.5 1563.9
4143.96 1473.6 1473.19 1587.1 1567.7
4146.87 1476.47 1482.32 1554.49 1577.89
4149.78 1496.89 1493.31 1592.09 1586.74
4152.68 1506.56 1519.88 1613.63 1612.81
4155.59 1556.2 1513.89 1632.72 1601.16
4158.5 1478.91 1518.56 1557.11 1613.03
4161.4 1520.56 1509.25 1649.26 1619.51
4164.31 1528.28 1539.4 1652.16 1649.33
4167.22 1569.38 1546.94 1646.59 1640.86
4170.12 1543.15 1556.94 1623.82 1645.45
4173.03 1558.28 1562.7 1665.94 1659.97
4175.94 1586.66 1560.9 1690.14 1661.65
4178.84 1537.77 1549.96 1628.88 1653.52
4181.75 1525.45 1537.05 1641.54 1639.41
4184.66 1547.92 1534.24 1647.81 1639.25
4187.56 1529.34 1551.16 1628.41 1665.69
4190.47 1576.21 1574.49 1720.84 1697.52
4193.38 1617.92 1587.67 1743.3 1712.37
4196.28 1568.87 1601.78 1672.96 1713.98
4199.19 1618.55 1610.02 1725.69 1715.37
4202.09 1642.64 1623.9 1747.46 1733.92
4205 1610.52 1619.79 1728.61 1735.78
4207.91 1606.21 1602.53 1731.27 1712.08
4210.81 1590.86 1602.79 1676.35 1700.23
4213.72 1611.3 1622.81 1693.08 1718.75
4216.63 1666.27 1624.94 1786.83 1736.02
4219.53 1597.27 1640.21 1728.17 1763.16
4222.44 1657.09 1613.99 1774.48 1726.38
4225.35 1587.61 1622.24 1676.49 1735.65
4228.25 1622.04 1622.69 1755.97 1725.18
4231.16 1658.43 1638.4 1743.07 1754.15
4234.06 1634.73 1650.13 1763.4 1763.46
4236.97 1657.23 1616.31 1783.91 1744.1
4239.88 1556.98 1600.1 1684.99 1723.26
4242.78 1586.1 1590.66 1700.88 1696.25
4245.69 1628.9 1613.68 1702.87 1703.39
4248.6 1626.04 1642.71 1706.43 1737.81
4251.5 1673.19 1649.79 1804.13 1769.88
4254.41 1650.14 1662.59 1799.08 1793.1
4257.31 1664.44 1669.29 1776.08 1796.89
4260.22 1693.28 1673.65 1815.52 1795.05
4263.13 1663.25 1669.34 1793.55 1797.86
4266.03 1651.49 1660.13 1784.5 1802.51
4268.94 1665.64 1652.85 1829.47 1784.1
4271.84 1641.43 1683.09 1738.34 1813.57
4274.75 1742.19 1685.59 1872.9 1815.94
4277.65 1673.17 1710.27 1836.56 1853.43
4280.56 1715.44 1688.83 1850.84 1839.5
4283.47 1677.89 1703.62 1831.11 1852.4
4286.37 1717.52 1689.89 1875.26 1847.12
4289.28 1674.27 1691.19 1835 1852.64
4292.18 1681.76 1677.28 1847.65 1843.62
4295.09 1675.82 1689.31 1848.2 1848.87
4297.99 1710.36 1681.7 1850.77 1823.56
4300.9 1658.92 1698.12 1771.73 1839.09
4303.81 1725.09 1690.4 1894.78 1826.16
4306.71 1687.19 1689.21 1811.98 1841.57
4309.62 1655.36 1672.44 1817.96 1815.09
4312.52 1674.78 1663.14 1815.33 1811.35
4315.43 1659.3 1686.01 1800.76 1834.76
4318.33 1723.97 1672.75 1888.18 1828.94
4321.24 1634.99 1665.29 1797.87 1821.66
4324.14 1636.91 1624.11 1778.93 1781.44
4327.05 1600.44 1626.95 1767.52 1783.71
4329.96 1643.49 1599.78 1804.68 1757.6
4332.86 1555.42 1600 1700.61 1757.2
4335.77 1601.08 1541.67 1766.31 1697.21
4338.67 1468.52 1532.43 1624.71 1682.69
4341.58 1527.68 1471.94 1657.03 1610.74
4344.48 1419.63 1499.92 1550.47 1634.52
4347.39 1552.44 1509.9 1696.05 1648.38
4350.29 1557.63 1569.98 1698.63 1712.49
4353.2 1599.87 1577.37 1742.79 1722.29
4356.1 1574.61 1600.74 1725.45 1751.22
4359.01 1627.75 1599.17 1785.41 1754.17
4361.91 1595.14 1619.14 1751.64 1772.89
4364.82 1634.53 1640.98 1781.62 1800.37
4367.72 1693.26 1673.12 1867.85 1839.83
4370.63 1691.56 1691.22 1870.03 1865.06
4373.53 1688.83 1686.92 1857.31 1870.03
4376.44 1680.38 1715 1882.76 1904.4
4379.34 1775.78 1745.17 1973.12 1931.97
4382.25 1779.36 1776.13 1940.04 1938.81
4385.15 1773.24 1762.61 1903.28 1916.91
4388.06 1735.21 1754.37 1907.41 1911.43
4390.96 1754.66 1725.98 1923.61 1898
4393.87 1688.08 1729.2 1862.97 1900.39
4396.77 1744.87 1713.86 1914.59 1875.44
4399.68 1708.64 1733.52 1848.76 1895.98
4402.58 1747.04 1761.08 1924.59 1920.24
4405.48 1827.54 1784.9 1987.38 1954.78
4408.39 1780.11 1837.09 1952.37 2012.71
4411.29 1903.62 1809.76 2098.38 1991.38
4414.2 1745.54 1795.36 1923.38 1981.9
4417.1 1736.91 1729.31 1923.94 1910.65
4420.01 1705.47 1731.25 1884.64 1922.57
4422.91 1751.36 1740.01 1959.15 1922.88
4425.82 1763.2 1759.65 1924.86 1957.64
4428.72 1764.38 1773.09 1988.91 1963.98
4431.62 1791.68 1759.82 1978.16 1964.14
4434.53 1723.4 1740.11 1925.35 1927.29
4437.43 1705.26 1745.22 1878.35 1944.77
4440.34 1806.99 1770.53 2030.6 1963.55
4443.24 1799.35 1802.58 1981.68 1998.22
4446.14 1801.4 1815.99 1982.37 1997.92
4449.05 1847.21 1770.97 2029.72 1947.4
4451.95 1664.3 1770.71 1830.09 1952.47
4454.86 1800.62 1743.05 1997.6 1930.05
4457.76 1764.22 1777.5 1962.46 1981.86
4460.66 1767.66 1760.93 1985.53 1973.6
4463.57 1750.9 1777.6 1972.8 1996.06
4466.47 1814.24 1756.27 2029.87 1972.08
4469.38 1703.66 1788.37 1913.56 2000.56
4472.28 1847.22 1785.23 2058.24 1999.55
4475.18 1804.82 1814.4 2026.86 2031.93
4478.09 1791.16 1809.48 2010.7 2021.48
4480.99 1832.46 1828.68 2026.87 2046.21
4483.9 1862.4 1823.31 2101.08 2036.21
4486.8 1775.05 1784.62 1980.68 2000.97
4489.7 1716.41 1776.22 1921.17 1985.39
4492.61 1837.21 1815.61 2054.31 2031.31
4495.51 1893.22 1808.5 2118.45 2013.47
4498.41 1695.07 1793.21 1867.65 2004
4501.32 1791.33 1769.91 2025.91 1979.23
4504.22 1823.35 1802.35 2044.13 2028.06
4507.12 1792.36 1801.94 2014.14 2023.35
4510.03 1790.11 1804.19 2011.79 2020.82
4512.93 1830.08 1781.67 2036.53 1997.19
4515.83 1724.8 1786.77 1943.25 2000
4518.74 1805.42 1809.52 2020.24 2025.05
4521.64 1898.36 1830.95 2111.65 2038.86
4524.54 1789.08 1831.73 1984.68 2046.25
4527.45 1807.76 1800.55 2042.42 2022.22
4530.35 1804.8 1808.5 2039.56 2037.41
4533.25 1812.93 1814.32 2030.24 2038.31
4536.15 1825.24 1808.98 2045.14 2031.66
4539.06 1788.78 1803.96 2019.6 2047.4
4541.96 1797.88 1805.13 2077.44 2055.43
4544.86 1828.75 1813.25 2069.24 2058.69
4547.77 1813.13 1855.99 2029.38 2083.18
4550.67 1926.09 1857.84 2150.92 2086.07
4553.57 1834.29 1829 2077.9 2059.11
4556.47 1726.62 1782.33 1948.5 2004.29
4559.38 1786.09 1763.28 1986.47 1986.15
4562.28 1777.14 1817.01 2023.48 2032.29
4565.18 1887.8 1829.53 2086.93 2047.02
4568.08 1823.66 1835.77 2030.64 2043.68
4570.99 1795.85 1838.55 2013.48 2050.01
4573.89 1896.13 1835.7 2105.9 2057.68
4576.79 1815.13 1837.84 2053.65 2065.32
4579.69 1802.28 1772.92 2036.41 2011.19
4582.6 1701.36 1803.31 1943.52 2037.28
4585.5 1906.3 1792.52 2131.92 2020.12
4588.4 1769.89 1844.53 1984.93 2058.57
4591.3 1857.41 1824.42 2058.85 2044.95
4594.2 1845.96 1844.54 2091.06 2071.91
4597.11 1830.25 1837.33 2065.82 2076.15
4600.01 1835.78 1827.8 2071.58 2056.36
4602.91 1817.36 1845.55 2031.69 2073.77
4605.81 1883.52 1837.62 2118.04 2067.02
4608.71 1811.99 1869.88 2051.33 2109.18
4611.62 1914.13 1867.57 2158.17 2099.96
4614.52 1876.6 1880.92 2090.36 2110.08
4617.42 1852.02 1870.69 2081.71 2107.69
4620.32 1883.44 1872.02 2151 2121.44
4623.22 1880.6 1845.03 2131.6 2092.77
4626.13 1771.05 1836.11 1995.73 2074.83
4629.03 1856.69 1823.34 2097.15 2065.58
4631.93 1842.28 1817.1 2103.85 2047.93
4634.83 1752.32 1849.34 1942.78 2084.1
4637.73 1953.41 1852.2 2205.67 2085.67
4640.63 1850.88 1880.27 2108.56 2136.38
4643.53 1836.52 1833.3 2094.92 2094.84
4646.44 1812.49 1870.31 2081.04 2132.06
4649.34 1961.93 1888.51 2220.23 2156.74
4652.24 1891.11 1893.18 2168.94 2160.66
4655.14 1826.51 1861.49 2092.82 2132.74
4658.04 1866.84 1877.05 2136.46 2151.44
4660.94 1937.79 1889.62 2225.04 2167.18
4663.84 1864.23 1895.62 2140.05 2167.39
4666.74 1884.85 1879.74 2137.08 2140.84
4669.64 1890.14 1907.42 2145.39 2159.52
4672.55 1947.26 1906.46 2196.09 2162.29
4675.45 1881.98 1893.42 2145.4 2166.48
4678.35 1851.03 1884.93 2157.94 2164.52
4681.25 1921.79 1859.74 2190.21 2136.51
4684.15 1806.4 1852.78 2061.4 2119.6
4687.05 1830.16 1835.45 2107.21 2105.22
4689.95 1869.81 1864.71 2147.04 2136.2
4692.85 1894.16 1855.92 2154.34 2123.97
4695.75 1803.79 1862.87 2070.54 2120.4
4698.65 1890.65 1857.48 2136.33 2126.26
4701.55 1878 1884.61 2171.92 2167.13
4704.45 1885.17 1869.78 2193.13 2166.09
4707.35 1846.17 1876.25 2133.22 2174.28
4710.25 1897.4 1861.56 2196.48 2142.73
4713.15 1841.1 1874.3 2098.49 2157.07
4716.05 1884.39 1872.5 2176.25 2139.09
4718.95 1892.02 1894.2 2142.52 2175.11
4721.85 1906.2 1881.78 2206.54 2164.79
4724.75 1847.14 1872.08 2145.31 2168.84
4727.65 1862.92 1842.7 2154.66 2124.46
4730.55 1818.03 1865.93 2073.42 2140.03
4733.45 1916.83 1881.77 2192.01 2142.07
4736.35 1910.45 1880.4 2160.78 2152.55
4739.25 1813.92 1840.37 2104.87 2124.54
4742.15 1796.73 1795.08 2107.97 2093.38
4745.05 1774.59 1786.86 2067.28 2087.02
4747.95 1789.25 1792.83 2085.82 2081.34
4750.85 1814.65 1794.82 2090.92 2073.46
4753.75 1780.56 1830.03 2043.64 2102.42
4756.65 1894.88 1835.91 2172.7 2114.83
4759.55 1832.29 1861.94 2128.14 2136.5
4762.45 1858.65 1856 2108.66 2144.45
4765.35 1877.07 1845.44 2196.57 2129.58
4768.25 1800.62 1866.45 2083.51 2159.8
4771.15 1921.66 1845.52 2199.32 2125.57
4774.05 1814.29 1839.3 2093.88 2118.83
4776.95 1781.97 1808.9 2063.28 2094.05
4779.85 1830.45 1797.7 2124.98 2083.9
4782.74 1780.69 1829.84 2063.44 2124.25
4785.64 1878.4 1816.96 2184.32 2108.28
4788.54 1791.79 1819.9 2077.09 2102.94
4791.44 1789.53 1796.17 2047.41 2072.93
4794.34 1807.19 1797.41 2094.29 2072.85
4797.24 1795.51 1797.75 2076.86 2081.43
4800.14 1790.55 1771.86 2073.13 2045.15
4803.04 1729.54 1752.69 1985.45 2021.15
4805.93 1737.98 1742.4 2004.87 2012.62
4808.83 1759.7 1765.32 2047.54 2044.48
4811.73 1798.29 1771.78 2081.02 2048.76
4814.63 1757.34 1787.82 2017.73 2067.51
4817.53 1807.84 1773.08 2103.77 2054.38
4820.43 1754.05 1774.75 2041.65 2065.23
4823.33 1762.35 1790.48 2050.27 2080.41
4826.22 1855.04 1823.47 2149.3 2110.68
4829.12 1853.01 1812.82 2132.48 2089.61
4832.02 1730.41 1768.37 1987.07 2035.84
4834.92 1721.68 1722.62 1987.97 1988.78
4837.82 1715.76 1721.63 1991.29 2009.27
4840.71 1727.46 1717.8 2048.56 2007.55
4843.61 1710.17 1711.94 1982.78 1999.87
4846.51 1698.18 1698.12 1968.27 1972.78
4849.41 1686 1670.41 1967.29 1936.71
4852.3 1627.04 1627.27 1874.57 1891.43
4855.2 1568.77 1586.52 1832.41 1829.63
4858.1 1563.76 1531.46 1781.92 1770.87
4861 1461.85 1495.18 1698.29 1719.63
4863.89 1459.92 1498.38 1678.7 1724.41
4866.79 1573.36 1536.09 1796.26 1769.01
4869.69 1575 1577.87 1832.06 1823.75
4872.59 1585.23 1594.48 1842.91 1851.03
4875.48 1623.22 1589.31 1878.1 1858.91
4878.38 1559.48 1617.55 1855.71 1902
4881.28 1669.94 1637.19 1972.17 1926.78
4884.18 1682.14 1645.51 1952.44 1934.31
4887.07 1584.44 1659.42 1878.3 1934.13
4889.97 1711.68 1637.25 1971.66 1909.44
4892.87 1615.62 1678.87 1878.37 1945.27
4895.76 1709.3 1695.09 1985.78 1953.93
4898.66 1760.35 1731.64 1997.66 2002.67
4901.56 1725.29 1722.36 2024.56 1994.38
4904.45 1681.44 1715.71 1960.92 2011.71
4907.35 1740.41 1706.42 2049.65 1994.03
4910.25 1697.42 1722.85 1971.53 2019.67
4913.14 1730.72 1732.21 2037.84 2018.03
4916.04 1768.48 1737.11 2044.71 2036.26
4918.94 1712.13 1760.9 2026.24 2053.27
4921.83 1802.1 1722.47 2088.85 2018.62
4924.73 1653.17 1729.73 1940.77 2023.94
4927.62 1733.92 1713.85 2042.2 2005.96
4930.52 1754.45 1754.69 2034.9 2038.02
4933.42 1775.68 1759.94 2036.97 2038.49
4936.31 1749.67 1765.68 2043.58 2044.32
4939.21 1771.68 1763.79 2052.41 2040.54
4942.1 1770.01 1770.35 2025.63 2037.48
4945 1769.35 1792.11 2034.4 2076.78
4947.9 1836.95 1806.22 2170.3 2109.94
4950.79 1812.35 1796.98 2125.12 2112.06
4953.69 1741.65 1758.45 2040.77 2054.88
4956.58 1721.36 1739.42 1998.75 2027.82
4959.48 1755.25 1749.73 2043.94 2052.24
4962.37 1772.58 1757.58 2114.03 2051.29
4965.27 1744.9 1721.96 1995.91 2005.95
4968.16 1648.39 1703.55 1907.9 1976.41
4971.06 1717.35 1721.71 2025.41 2008.16
4973.95 1799.38 1776.53 2091.17 2078.65
4976.85 1812.87 1787.08 2119.37 2098.43
4979.74 1749 1773.77 2084.77 2086.21
4982.64 1759.42 1768.33 2054.49 2092.14
4985.53 1796.55 1775.83 2137.16 2080.13
4988.43 1771.52 1771.42 2048.74 2093.75
4991.32 1746.2 1761.91 2095.35 2070.36
4994.22 1768.01 1789.23 2066.99 2113.96
4997.11 1853.49 1804.87 2179.55 2107.05
5000.01 1793.11 1817.3 2074.62 2121.01
5002.9 1805.29 1777.36 2108.85 2071.81
5005.8 1733.66 1761.98 2031.95 2061.84
5008.69 1746.99 1774.82 2044.74 2069.87
5011.59 1843.81 1801.47 2132.94 2102.88
5014.48 1813.61 1822.67 2130.96 2114.09
5017.37 1810.61 1830.5 2078.35 2115.15
5020.27 1867.28 1822.35 2136.14 2107.41
5023.16 1789.16 1812.37 2107.73 2105.1
5026.06 1780.68 1759.78 2071.43 2060.05
5028.95 1709.5 1755.02 2001.01 2040.5
5031.84 1774.89 1769.64 2049.06 2061.63
5034.74 1824.52 1782.13 2134.84 2064.65
5037.63 1746.98 1788.32 2010.06 2078.41
5040.52 1793.45 1779 2090.33 2056.31
5043.42 1796.57 1787.33 2068.55 2080.02
5046.31 1771.96 1790.6 2081.19 2087.1
5049.21 1803.28 1804.47 2111.57 2114.9
5052.1 1838.18 1776.3 2151.93 2071.82
5054.99 1687.43 1804.57 1951.97 2098.6
5057.89 1888.11 1782.13 2191.91 2069.61
5060.78 1770.85 1794.2 2064.96 2099.54
5063.67 1723.64 1775.9 2041.76 2075.09
5066.56 1833.2 1783.75 2118.55 2083.84
5069.46 1794.42 1826.43 2091.21 2126.97
5072.35 1851.65 1802.69 2171.15 2111.1
5075.24 1762 1784.16 2070.94 2095.07
5078.14 1738.83 1789.42 2043.11 2097.29
5081.03 1867.45 1777.88 2177.82 2071.34
5083.92 1727.37 1796.87 1993.1 2090.78
5086.81 1795.8 1772.72 2101.43 2074.24
5089.71 1794.98 1774.74 2128.19 2097.63
5092.6 1733.45 1766.61 2063.27 2091.81
5095.49 1771.41 1762.53 2083.98 2079.68
5098.38 1782.74 1754.64 2091.81 2065.48
5101.28 1709.78 1734.75 2020.66 2040.2
5104.17 1711.72 1708.43 2008.14 2018.01
5107.06 1703.77 1730.83 2025.22 2049.69
5109.95 1777 1719.03 2115.71 2038.59
5112.84 1676.32 1721.31 1974.83 2053.48
5115.74 1710.62 1730.18 2069.9 2058.72
5118.63 1803.61 1730.31 2131.42 2059.55
5121.52 1676.71 1729.61 1977.32 2039.65
5124.41 1708.52 1719.32 2010.21 2025.76
5127.3 1772.73 1743.08 2089.75 2051.34
5130.19 1747.99 1730.15 2054.05 2037.57
5133.09 1669.74 1721.51 1968.9 2015.68
5135.98 1746.79 1710.41 2024.08 2011
5138.87 1714.69 1715.81 2040.01 2024.57
5141.76 1685.97 1720.24 2009.61 2038.56
5144.65 1760.07 1698.23 2066.06 1996.58
5147.54 1648.66 1680.11 1914.08 1971.98
5150.43 1631.6 1681.64 1935.8 1981.54
5153.32 1764.68 1704.28 2094.72 2017.81
5156.21 1716.56 1733.68 2022.9 2056.03
5159.1 1719.79 1709.37 2050.46 2025.65
5162 1691.74 1731.45 2003.6 2064.34
5164.89 1782.8 1717.3 2138.96 2043.4
5167.78 1677.37 1713.52 1987.64 2028.98
5170.67 1680.4 1691.1 1960.35 1994.37
5173.56 1715.52 1704.01 2035.13 2014.53
5176.45 1716.1 1718.25 2048.12 2034.38
5179.34 1723.14 1724.01 2019.9 2035.03
5182.23 1732.79 1723.44 2037.07 2025.86
5185.12 1714.38 1714.58 2020.61 2025.24
5188.01 1696.57 1699.27 2018.04 2010.68
5190.9 1686.86 1672.28 1993.38 1983.79
5193.79 1633.39 1666.48 1939.96 1980.55
5196.68 1679.17 1673.41 2008.33 1989.65
5199.57 1707.67 1693.06 2020.66 2008.74
5202.46 1692.33 1703.87 1997.24 2017.68
5205.35 1711.6 1704.96 2035.15 2015.85
5208.24 1710.94 1690.82 2015.18 1998.09
5211.13 1649.92 1693.41 1943.94 2002.38
5214.01 1719.37 1669.68 2048.02 1978.53
5216.9 1639.75 1698.17 1943.63 2012.97
5219.79 1735.4 1678.02 2047.27 1987.6
5222.68 1658.91 1701.5 1971.89 2026.5
5225.57 1710.21 1681.8 2060.35 2005.88
5228.46 1676.28 1681.97 1985.39 2017.86
5231.35 1659.42 1653.43 2007.83 1992.53
5234.24 1624.58 1637.69 1984.38 1975.86
5237.13 1629.07 1654.46 1935.38 1973.64
5240.02 1709.74 1686.61 2001.17 1993.7
5242.9 1721.02 1698.25 2044.57 2009.08
5245.79 1664 1676.16 1981.5 1996
5248.68 1643.45 1636.03 1961.95 1945.44
5251.57 1600.64 1622.77 1892.86 1931.64
5254.46 1624.22 1612.36 1940.13 1930.01
5257.35 1612.21 1628.17 1957.04 1949.63
5260.23 1648.08 1643.06 1951.72 1965.1
5263.12 1668.87 1664.45 1986.55 1977.12
5266.01 1676.4 1657.86 1993.09 1982.64
5268.9 1628.31 1657.07 1968.27 1974.02
5271.78 1666.5 1642.58 1960.7 1955.23
5274.67 1632.94 1653.69 1936.73 1956.52
5277.56 1661.63 1653.06 1972.12 1973.05
5280.45 1664.61 1640.84 2010.3 1969.89
5283.33 1596.28 1617.94 1927.24 1948.94
5286.22 1592.93 1582.42 1909.27 1902.74
5289.11 1558.05 1617.94 1871.71 1938.03
5292 1702.85 1622.94 2033.12 1936.15
5294.88 1607.92 1636.71 1903.63 1947.49
5297.77 1599.37 1634.2 1905.72 1936.91
5300.66 1695.3 1586.77 2001.39 1941.55
5303.54 1465.64 1554.6 1917.56 1954.65
5306.43 1502.84 1467.25 1945 1906.21
5309.32 1433.28 1478.16 1856.09 1924.21
5312.2 1498.35 1475.64 1971.56 1929.03
5315.09 1495.3 1477.9 1959.45 1936.03
5317.98 1440.04 1435.47 1877.09 1913.06
5320.86 1371.06 1413.31 1902.65 1876.47
5323.75 1428.83 1414.72 1849.67 1874.19
5326.64 1444.27 1418.87 1870.25 1880.41
5329.52 1383.52 1407.01 1921.3 1907.03
5332.41 1393.25 1396.18 1929.53 1896.58
5335.29 1411.76 1409 1838.92 1866.6
5338.18 1421.98 1391.15 1831.35 1832.48
5341.07 1339.7 1418.84 1827.18 1856.24
5343.95 1494.85 1426.27 1910.17 1888.24
5346.84 1444.25 1453.2 1927.35 1895.06
5349.72 1420.51 1462.34 1847.66 1921.18
5352.61 1522.25 1478.87 1988.54 1917.18
5355.49 1493.84 1463.55 1915.34 1928.57
5358.38 1374.57 1414.81 1881.82 1901.18
5361.26 1376.01 1420.05 1906.37 1915.13
5364.15 1509.55 1433.33 1957.19 1906.86
5367.03 1414.43 1468.99 1857.02 1905.94
5369.92 1482.98 1446.62 1903.62 1874.81
5372.8 1442.45 1475.5 1863.81 1905.98
5375.69 1501.08 1455.69 1950.52 1883.51
5378.57 1423.54 1472.72 1836.21 1910.77
5381.46 1493.55 1474.07 1945.59 1908.69
5384.34 1505.12 1486.07 1944.28 1933.62
5387.23 1459.55 1477.61 1911.01 1917.93
5390.11 1468.15 1467.05 1898.5 1899.93
5393 1473.45 1446.13 1890.29 1869.67
5395.88 1396.79 1440.89 1820.22 1864.96
5398.76 1452.43 1412.11 1884.38 1835.11
5401.65 1387.12 1429.6 1800.73 1857.35
5404.53 1449.25 1413.41 1886.94 1835.71
5407.42 1403.86 1436.96 1819.47 1853.15
5410.3 1457.79 1451.51 1853.05 1870.34
5413.18 1492.9 1479.58 1938.5 1900.21
5416.07 1488.05 1497.3 1909.07 1931.47
5418.95 1510.95 1471.16 1946.83 1887.45
5421.83 1414.48 1434.59 1806.44 1846.14
5424.72 1378.34 1416.35 1785.15 1829.15
5427.6 1456.24 1430.25 1895.84 1848.13
5430.48 1456.19 1420.91 1863.39 1860.54
5433.37 1350.31 1389.72 1822.4 1848.04
5436.25 1362.67 1364.5 1858.35 1843.88
5439.13 1380.51 1404.62 1850.9 1862.7
5442.01 1470.69 1429.87 1878.84 1856.15
5444.9 1438.4 1458.73 1838.71 1864.45
5447.78 1467.1 1455.52 1875.81 1862.2
5450.66 1461.06 1451.44 1872.09 1866.17
5453.55 1426.18 1439.78 1850.62 1857.24
5456.43 1432.09 1417.17 1849.01 1834.78
5459.31 1393.23 1419.87 1804.71 1838.5
5462.19 1434.3 1424.63 1861.79 1840.51
5465.07 1446.36 1427.19 1855.02 1839.8
5467.96 1400.9 1417.5 1802.57 1818.15
5470.84 1405.25 1409.82 1796.84 1809.9
5473.72 1423.31 1380.43 1830.27 1811.66
5476.6 1312.72 1389.08 1807.86 1827.88
5479.48 1431.2 1402.95 1845.51 1845.03
5482.36 1464.93 1437.08 1881.71 1843.15
5485.25 1415.11 1415.12 1802.25 1852.04
5488.13 1365.31 1379.92 1872.15 1842.56
5491.01 1359.34 1392.94 1853.29 1870.46
5493.89 1454.16 1381.06 1885.93 1852.98
5496.77 1329.68 1369.58 1819.72 1837.73
5499.65 1324.9 1363.1 1807.53 1824.12
5502.53 1434.71 1376.02 1845.11 1807.76
5505.41 1368.45 1412.43 1770.63 1832.1
5508.29 1434.15 1403.67 1880.56 1810.47
5511.17 1408.41 1421.28 1780.21 1840.11
5514.05 1421.28 1393.1 1859.56 1795.14
5516.93 1349.62 1406.44 1745.66 1823.77
5519.81 1448.42 1391.17 1866.11 1790.29
5522.7 1375.47 1399.84 1759.12 1789.31
5525.58 1375.64 1386.73 1742.7 1777.36
5528.46 1409.1 1383.35 1830.27 1806.33
5531.34 1365.31 1377.76 1846.01 1798.12
5534.21 1358.87 1373.62 1718.09 1777.4
5537.09 1396.68 1404.26 1768.08 1792.25
5539.97 1457.23 1440.95 1890.56 1843.35
5542.85 1468.94 1414.21 1871.4 1822.8
5545.73 1316.45 1374.49 1706.42 1775.1
5548.61 1338.08 1333.27 1747.48 1722.76
5551.49 1345.28 1357.98 1714.37 1735.97
5554.37 1390.59 1353.13 1746.05 1750.44
5557.25 1323.51 1376.75 1790.9 1777.94
5560.13 1416.14 1386.98 1796.89 1784.93
5563.01 1421.3 1412.33 1767 1783.15
5565.89 1399.54 1453.71 1785.57 1839.54
5568.77 1540.29 1262.7 1966.05 1785.39
5571.64 848.288 1054.33 1604.56 1797.59
5574.52 774.427 990.122 1822.17 1703.78
5577.4 1347.65 1162.74 1684.61 1803.85
5580.28 1366.14 1388.94 1904.77 1798.1
5583.16 1453.02 1420.87 1804.93 1866.8
5586.04 1443.45 1433.71 1890.69 1833.63
5588.91 1404.66 1311.54 1805.27 1794.34
5591.79 1086.51 1318.14 1687.06 1766.23
5594.67 1463.26 1254.59 1806.35 1738.53
5597.55 1214.02 1356.07 1722.17 1766.99
5600.42 1390.94 1312.02 1772.46 1726.95
5603.3 1331.1 1333.71 1686.23 1742.99
5606.18 1279.09 1306.33 1770.28 1716.78
5609.06 1308.81 1319.98 1693.82 1740.1
5611.93 1372.04 1354.93 1756.19 1733.04
5614.81 1383.95 1348.66 1749.13 1755.87
5617.69 1290 1335.69 1762.29 1729.53
5620.56 1333.12 1333.38 1677.18 1715.57
5623.44 1377.01 1351.62 1707.24 1712.98
5626.32 1344.74 1325.86 1754.52 1724.4
5629.19 1255.84 1294.43 1711.43 1725.02
5632.07 1282.7 1319.15 1709.12 1734.15
5634.95 1418.91 1328.56 1781.91 1705.55
5637.82 1284.07 1339.43 1625.62 1690.52
5640.7 1315.3 1317.86 1664.04 1662.47
5643.58 1354.22 1336.46 1697.77 1688.32
5646.45 1339.87 1350.87 1703.15 1703.12
5649.33 1358.52 1338 1708.45 1688.72
5652.2 1315.62 1301.16 1654.54 1679.04
5655.08 1229.35 1281.29 1674.13 1661.76
5657.96 1298.89 1287.13 1656.62 1666.82
5660.83 1333.16 1324.16 1669.7 1669.11
5663.71 1340.43 1335.03 1681 1717.59
5666.58 1331.51 1297.48 1802.07 1717.47
5669.46 1220.5 1262.12 1669.33 1710.04
5672.33 1234.36 1269.88 1658.71 1677.79
5675.21 1354.79 1297.29 1705.33 1672.89
5678.08 1302.71 1341.46 1654.63 1685.42
5680.96 1366.87 1318.56 1696.3 1666.11
5683.83 1286.1 1322.5 1647.39 1674.04
5686.71 1314.52 1304 1678.44 1656.15
5689.58 1311.39 1286.44 1642.63 1660.89
5692.46 1233.39 1277.35 1661.61 1652.5
5695.33 1287.26 1282.38 1653.26 1667.27
5698.2 1326.49 1299.63 1686.95 1656.8
5701.08 1285.13 1274.03 1630.18 1608.88
5703.95 1210.47 1244.95 1509.5 1595.51
5706.83 1239.26 1252.43 1646.84 1598.46
5709.7 1307.56 1274.82 1639.04 1634.09
5712.57 1277.66 1313.69 1616.38 1641.4
5715.45 1355.87 1312.85 1668.77 1650.75
5718.32 1305.03 1310.62 1667.11 1632.37
5721.19 1270.97 1293.18 1561.22 1622.08
5724.07 1303.54 1278.84 1637.9 1594.75
5726.94 1262.01 1296.2 1585.12 1627.39
5729.81 1323.04 1262.57 1659.15 1628.67
5732.69 1202.67 1263.77 1641.73 1622.99
5735.56 1265.58 1235.51 1568.1 1574.68
5738.43 1238.27 1271.38 1514.2 1562.67
5741.3 1310.29 1262.84 1605.72 1570.18
5744.18 1239.95 1276.31 1590.62 1601.14
5747.05 1278.69 1270.37 1607.07 1601.97
5749.92 1292.46 1279.8 1608.23 1594.58
5752.79 1268.26 1261.47 1568.44 1556.98
5755.67 1223.69 1285.35 1494.27 1581.07
5758.54 1364.12 1262.01 1680.5 1563.08
5761.41 1198.23 1246.51 1514.47 1598.5
5764.28 1177.17 1138.46 1600.54 1520.31
5767.15 1039.97 1132.22 1445.9 1555.93
5770.02 1179.51 1129.76 1621.35 1536.01
5772.9 1169.79 1215.8 1540.78 1591
5775.77 1298.1 1235.14 1610.86 1560.01
5778.64 1237.54 1256.55 1528.4 1551.01
5781.51 1234.01 1236.05 1513.76 1531.43
5784.38 1236.6 1223.02 1552.12 1506.01
5787.25 1198.43 1203.73 1452.14 1520.31
5790.12 1176.15 1167.04 1556.67 1517.82
5792.99 1126.53 1167.87 1544.65 1536.83
5795.86 1200.92 1141.33 1509.17 1513.59
5798.73 1096.54 1142.3 1486.94 1501.41
5801.6 1129.43 1139.02 1508.13 1483.99
5804.47 1191.09 1151.98 1456.89 1464.45
5807.34 1135.42 1193.45 1428.32 1475.66
5810.21 1253.84 1201.79 1541.76 1488.83
5813.08 1216.12 1231.97 1496.41 1514.27
5815.95 1225.95 1222.36 1504.65 1516.71
5818.82 1225 1228.24 1549.08 1523.82
5821.69 1233.75 1253.86 1517.73 1562.16
5824.56 1302.81 1231.25 1619.67 1558.26
5827.43 1157.17 1220.71 1537.39 1545.96
5830.3 1202.15 1150.58 1480.82 1509.69
5833.17 1092.41 1160.17 1510.86 1498.82
5836.04 1185.96 1121.36 1504.78 1489.56
5838.91 1085.71 1158.7 1453.05 1497.41
5841.78 1204.45 1139.66 1534.41 1506.23
5844.65 1128.83 1189.12 1531.23 1524.13
5847.52 1234.08 1147.25 1506.74 1501.8
5850.38 1078.85 1176.47 1467.44 1500.2
5853.25 1216.47 1144.72 1526.43 1500.21
5856.12 1138.84 1175.81 1506.76 1490.32
5858.99 1172.12 1182.94 1437.76 1475.15
5861.86 1237.87 1217.92 1480.91 1490.68
5864.72 1243.77 1241.24 1553.35 1521.15
5867.59 1242.08 1245.61 1529.18 1551.93
5870.46 1250.96 1193.26 1573.26 1540.8
5873.33 1086.73 1196.01 1519.95 1542.27
5876.2 1250.32 1104.63 1533.58 1481.74
5879.06 976.83 1146.1 1391.67 1480.98
5881.93 1211.16 1152.17 1517.7 1458.54
5884.8 1268.53 1215.12 1466.25 1462.97
5887.66 1165.66 1179.85 1404.97 1405.2
5890.53 1105.36 1012.47 1344.38 1375.74
5893.4 766.389 1003.72 1377.88 1363.05
5896.26 1139.4 993.302 1366.87 1367
5899.13 1074.12 1117.93 1356.24 1380.9
5902 1140.27 1129.31 1419.59 1412.34
5904.86 1173.54 1156.46 1461.2 1432.88
5907.73 1155.58 1147.2 1417.85 1417.7
5910.6 1112.48 1143.55 1374.06 1413.15
5913.46 1162.58 1140.51 1447.53 1400.12
5916.33 1146.45 1173.99 1378.78 1423.69
5919.19 1212.92 1183.15 1444.75 1417.16
5922.06 1190.09 1149.3 1427.95 1428.93
5924.92 1044.9 1108.63 1414.08 1437.66
5927.79 1090.9 1109.62 1470.94 1449.2
5930.66 1193.06 1103.31 1462.57 1447.21
5933.52 1025.95 1088.47 1408.13 1432.93
5936.39 1046.39 1061.22 1428.08 1404.84
5939.25 1111.32 1125.48 1378.31 1430.59
5942.12 1218.73 1139.95 1485.37 1410.31
5944.98 1089.79 1155.38 1367.26 1426.73
5947.85 1157.6 1091.06 1427.56 1395.6
5950.71 1025.78 1110.84 1391.99 1416.7
5953.57 1149.15 1114.58 1430.54 1399.4
5956.44 1168.8 1126.35 1375.68 1370.28
5959.3 1061.09 1078.51 1304.62 1339.28
5962.17 1005.63 1080.04 1337.53 1350.94
5965.03 1173.41 1043.87 1410.68 1350.59
5967.89 952.57 1079.61 1303.57 1343.19
5970.76 1112.84 1079.19 1315.32 1344.51
5973.62 1172.17 1157.09 1414.64 1389.88
5976.48 1186.25 1175.48 1439.67 1422.31
5979.35 1168.01 1100.08 1412.61 1385.35
5982.21 945.981 1087.91 1303.76 1366.05
5985.07 1149.73 1062.94 1381.78 1322.26
5987.94 1093.1 1097.43 1281.24 1349.74
5990.8 1049.46 1092.51 1386.19 1338
5993.66 1134.96 1090.75 1346.56 1380.82
5996.53 1087.81 1115.35 1409.72 1374.53
5999.39 1123.27 1112.94 1367.31 1376.66
6002.25 1127.74 1094.01 1352.94 1320.56
6005.11 1031.03 1100.79 1241.44 1325.34
6007.97 1143.6 1120.53 1381.66 1353.03
6010.84 1186.96 1104.72 1436 1379.35
6013.7 983.605 1074.8 1320.39 1341.42
6016.56 1053.85 1042.26 1267.87 1307.84
6019.42 1089.32 1055.21 1335.28 1314.96
6022.28 1022.47 1052.48 1341.73 1314.21
6025.14 1045.63 1051.46 1265.62 1305.02
6028.01 1086.26 1052.52 1307.71 1276.92
6030.87 1025.67 1049.87 1257.42 1277.9
6033.73 1037.66 1026.46 1268.58 1271
6036.59 1016.04 1066.9 1287 1301.87
6039.45 1147.01 1069.07 1350.02 1301.51
6042.31 1044.16 1077.07 1267.51 1295.37
6045.17 1040.05 1024.56 1268.59 1278
6048.03 989.459 1030.27 1297.91 1271.85
6050.89 1061.29 1053.41 1249.06 1292.89
6053.75 1109.47 1114.83 1331.71 1316.39
6056.61 1173.74 1124.31 1368.41 1323.97
6059.47 1089.71 1117.51 1271.78 1304.04
6062.33 1089.07 1073.27 1271.93 1273.48
6065.19 1041.03 1102.6 1276.72 1319.42
6068.05 1177.69 1070.75 1409.62 1328.21
6070.91 993.534 1048.47 1298.28 1330.92
6073.77 974.198 1016.33 1284.87 1288.24
6076.63 1081.25 1050.85 1281.58 1296.45
6079.49 1097.1 1087.88 1322.92 1305.9
6082.35 1085.28 1098.45 1313.21 1327.62
6085.21 1112.97 1109.77 1346.73 1329.3
6088.07 1131.05 1105.33 1327.95 1323.71
6090.92 1071.96 1081.07 1296.44 1294.43
6093.78 1040.19 1048.85 1258.89 1266.64
6096.64 1034.4 1054.05 1244.6 1266.85
6099.5 1087.55 1071.37 1297.05 1277.36
6102.36 1092.16 1053.07 1290.43 1263.4
6105.21 979.51 1035.02 1202.71 1245.36
6108.07 1033.4 984.697 1242.94 1225.92
6110.93 941.182 981.187 1232.1 1248.53
6113.79 968.98 1005.71 1270.55 1283.37
6116.65 1106.96 1047.5 1347.47 1299.93
6119.5 1066.58 1065.3 1281.78 1284.47
6122.36 1022.37 1053.76 1224.14 1251.56
6125.22 1072.33 1048.76 1248.75 1228.39
6128.07 1051.57 1072.64 1212.28 1270.94
6130.93 1094.03 2269.97 1351.78 2385.1
6133.79 4664.32 2369.15 4591.23 2449.95
6136.64 1349.11 2355.81 1406.85 2407.01
6139.5 1054.01 1115.42 1222.95 1288.42
6142.36 943.14 1016.04 1235.46 1224.95
6145.21 1050.97 1022.92 1216.42 1228.5
6148.07 1074.65 1040.07 1233.62 1199.43
6150.92 994.598 1020.22 1148.25 1193.11
6153.78 991.425 1002.1 1197.47 1179.91
6156.64 1020.27 1022.03 1194 1216.07
6159.49 1054.41 1003.73 1256.73 1214.48
6162.35 936.517 993.428 1192.72 1195.84
6165.2 989.355 933.81 1138.05 1157.87
6168.06 875.558 965.138 1142.84 1158.7
6170.91 1030.5 1001.37 1195.2 1206.38
6173.77 1098.06 1036.51 1281.11 1205.24
6176.62 980.965 1052.55 1139.41 1222.1
6179.48 1078.62 1034.81 1245.78 1208.5
6182.33 1044.84 1042.32 1240.32 1212.18
6185.19 1003.49 1022.78 1150.45 1184.92
6188.04 1020 1031.91 1163.99 1186.07
6190.89 1072.25 1030.37 1243.77 1194.87
6193.75 998.863 1012.71 1176.85 1211.27
6196.6 967.022 953.385 1213.2 1186.45
6199.46 894.272 969.189 1169.31 1198.14
6202.31 1046.27 940.592 1211.91 1175.84
6205.16 881.232 984.725 1146.29 1186.62
6208.02 1026.67 972.15 1201.67 1167.45
6210.87 1008.55 1003.79 1154.4 1166.37
6213.72 976.143 981.933 1143.04 1139.15
6216.58 961.108 938.409 1120.01 1126.66
6219.43 877.974 952.304 1116.93 1138.38
6222.28 1017.83 977.907 1178.19 1167.07
6225.13 1037.92 1000.74 1206.1 1167.06
6227.99 946.468 994.204 1116.89 1145.95
6230.84 998.226 971.66 1114.85 1108.75
6233.69 970.287 1012.72 1094.51 1130.64
6236.54 1069.66 958.392 1182.57 1156.12
6239.39 835.23 982.539 1191.28 1175
6242.25 1042.73 965.189 1151.14 1182.48
6245.1 1017.61 1003.41 1205.02 1146.55
6247.95 949.893 992.268 1083.48 1136.52
6250.8 1009.3 932.296 1121.06 1105.43
6253.65 837.693 944.401 1111.74 1106.31
6256.5 986.21 887.858 1086.12 1119.43
6259.35 839.671 926.11 1160.43 1115.56
6262.21 952.449 913.046 1100.14 1114.58
6265.06 947.018 936.155 1083.18 1077.12
6267.91 908.997 892.776 1048.04 1071.37
6270.76 822.312 873.087 1082.9 1060.33
6273.61 887.952 887.493 1050.05 1068.08
6276.46 952.214 914.17 1071.27 1050.48
6279.31 902.343 876.829 1030.11 1036.44
6282.16 775.93 864.078 1007.94 1024.98
6285.01 913.962 850.126 1036.9 1012.99
6287.86 860.484 904.683 994.13 1041.26
6290.71 939.601 916.539 1092.76 1037.76
6293.56 949.53 924.444 1026.39 1034.63
6296.41 884.2 803.473 984.746 1034.03
6299.25 576.689 802.048 1090.95 1040.75
6302.1 945.254 817.23 1046.56 1040.05
6304.95 929.746 943.777 982.641 1035.23
6307.8 956.332 875.553 1076.5 1037.18
6310.65 740.58 893.469 1052.41 1086.68
6313.5 983.494 903.224 1131.14 1082.97
6316.35 985.599 963.14 1065.36 1085.47
6319.19 920.326 936.699 1059.92 1053.89
6322.04 904.173 932.997 1036.39 1062.67
6324.89 974.492 966 1091.71 1088.86
6327.74 1019.34 929.599 1138.47 1106.99
6330.59 794.97 956.339 1090.79 1147.54
6333.43 1054.71 917.445 1213.38 1115.22
6336.28 902.652 902.086 1041.5 1079.05
6339.13 748.892 837.686 982.266 1033.83
6341.97 861.513 827.252 1077.71 1036.86
6344.82 871.35 831.761 1050.6 1059.99
6347.67 762.418 851.987 1051.64 1061.06
6350.51 922.192 835.698 1080.93 1059.61
6353.36 822.483 819.941 1046.25 1053.02
6356.21 715.146 793.228 1031.89 1051.23
6359.05 842.056 834.338 1075.55 1076.49
6361.9 945.813 831.049 1122.04 1069.71
6364.75 705.278 776.08 1011.55 1043.77
6367.59 677.149 729.6 997.713 999.044
6370.44 806.375 750.107 987.873 1013.54
6373.28 766.797 815.747 1055.04 1030.46
6376.13 874.068 840.361 1048.48 1047.75
6378.97 880.219 841.809 1039.73 1031.08
6381.82 771.14 820.633 1005.03 1011.8
6384.66 810.542 784.726 990.655 991.675
6387.51 772.496 812.823 979.341 987.433
6390.35 855.432 831.7 992.305 999.527
6393.2 867.171 831.341 1026.93 1005.92
6396.04 771.421 820.1 998.532 995.264
6398.89 821.707 823.444 960.327 1010.28
6401.73 877.205 827.869 1071.97 1015.28
6404.57 784.694 844.578 1013.53 1039.78
6407.42 871.835 840.288 1033.83 1028.08
6410.26 864.335 830.788 1036.89 1008.16
6413.1 756.194 818.227 953.771 982.431
6415.95 834.154 810.917 956.635 969.934
6418.79 842.404 855.551 999.395 999.783
6421.63 890.094 854.752 1043.32 1019.99
6424.48 831.757 839.849 1017.27 992.273
6427.32 797.696 798.455 916.231 973.085
6430.16 765.912 795.608 985.756 954.928
6433.01 823.214 807.513 962.796 978.917
6435.85 833.413 825.642 988.2 973.81
6438.69 820.3 801.102 970.434 969.402
6441.53 749.594 811.141 949.571 959.319
6444.37 863.528 793.372 957.951 951.485
6447.22 766.994 806.661 946.934 966.685
6450.06 789.463 805.485 995.171 958.102
6452.9 859.998 829.913 932.201 961.024
6455.74 840.28 855.716 955.7 962.811
6458.58 866.87 845.534 1000.53 973.882
6461.42 829.453 831.947 965.412 958.348
6464.26 799.516 771.813 909.098 948.456
6467.11 686.469 772.37 970.857 935.019
6469.95 831.124 724.354 925.104 927.426
6472.79 655.467 777.855 886.317 921.975
6475.63 846.973 761.286 954.504 921.198
6478.47 781.418 822.934 922.774 961.17
6481.31 840.412 821.891 1006.23 969.853
6484.15 843.844 827.311 980.551 973.188
6486.99 797.676 813.258 932.78 941.49
6489.83 798.253 794.994 911.139 911.159
6492.67 789.051 753.662 889.558 915.41
6495.51 673.682 740.879 945.535 899.999
6498.34 759.904 720.783 864.904 885.185
6501.18 728.764 764.217 845.118 889.268
6504.02 803.982 782.817 957.783 901.426
6506.86 815.705 825.939 901.377 937.648
6509.7 858.129 825.508 953.784 917.125
6512.54 802.691 808.301 896.214 907.972
6515.38 764.084 762.871 873.917 909.22
6518.22 721.837 765.148 957.529 914.143
6521.05 809.524 747.8 910.984 928.374
6523.89 712.039 768.501 916.608 936.083
6526.73 783.939 741.661 980.657 937.847
6529.57 729.005 763.67 916.276 918.565
6532.4 778.066 766.11 858.762 893.272
6535.24 791.258 784.821 904.778 873.018
6538.08 785.14 750.812 855.512 873.302
6540.92 676.038 746.857 859.617 870.014
6543.75 779.392 724.475 894.914 843.78
6546.59 717.995 740.727 776.809 828.642
6549.43 724.795 731.095 814.203 806.193
6552.26 750.495 737.892 827.567 816.901
6555.1 738.385 672.521 808.932 806.027
6557.93 528.683 650.431 781.582 792.986
6560.77 684.224 646.408 788.445 786.535
6563.61 726.318 706.195 789.578 777.829
6566.44 708.043 676.514 755.463 778.289
6569.28 595.182 638.048 789.826 781.969
6572.11 610.918 658.113 800.618 797.856
6574.95 768.237 698.441 803.124 803.175
6577.78 716.167 747.284 805.783 789.698
6580.62 757.447 722.751 760.188 793.32
6583.45 694.64 753.56 813.989 814.739
6586.29 808.592 729.043 870.042 836.86
6589.12 683.895 737.482 826.551 828.498
6591.96 719.96 734.378 788.9 851.862
6594.79 799.278 785.602 940.135 877.384
6597.62 837.567 805.902 903.117 904.058
6600.46 780.863 799.639 868.922 870.232
6603.29 780.489 771.157 838.658 836.028
6606.13 752.118 774.768 800.504 840.866
6608.96 791.697 720.114 883.434 825.776
6611.79 616.526 730.683 793.39 851.198
6614.63 783.827 718.756 876.771 828.22
6617.46 755.915 778.399 814.498 856.158
6620.29 795.456 796.454 877.206 866.718
6623.12 837.992 808.371 908.45 878.631
6625.96 791.664 800.583 850.236 867.472
6628.79 772.092 769.406 843.729 837.198
6631.62 744.462 744.053 817.628 808.021
6634.45 715.606 737.197 762.707 793.719
6637.28 751.524 743.12 800.821 802.876
6640.12 762.232 749.087 845.101 818.523
6642.95 733.507 742.809 809.646 824.338
6645.78 732.689 754.961 818.267 821.471
6648.61 798.688 766.748 836.501 830.723
6651.44 768.867 764.38 837.401 848.301
6654.27 725.584 766.432 871 858.265
6657.1 804.846 778.244 866.393 849.489
6659.93 804.303 800.825 811.075 849.775
6662.76 793.325 772.692 871.856 848.297
6665.59 720.449 708.516 861.959 817.597
6668.42 611.774 713.12 718.976 820.496
6671.25 807.136 712.378 880.553 785.067
6674.08 718.225 749.167 755.672 802.566
6676.91 722.141 740.263 771.475 804.852
6679.74 780.423 753.819 887.411 812.736
6682.57 758.892 782.31 779.323 839.14
6685.4 807.615 777.126 850.688 829.522
6688.23 764.87 763.529 858.555 828.527
6691.06 718.102 758.469 776.336 814.589
6693.89 792.435 763.635 808.876 796.702
6696.72 780.366 750.267 804.895 794.999
6699.55 677.999 740.009 771.226 796.669
6702.37 761.663 744.025 813.885 802.937
6705.2 792.412 776.557 823.699 804.395
6708.03 775.596 754.741 775.601 807.251
6710.86 696.217 734.883 822.453 778.796
6713.69 732.836 717.544 738.334 772.256
6716.51 723.58 745.037 755.981 762.397
6719.34 778.695 769.226 792.876 795.623
6722.17 805.404 765.218 838.013 816.764
6725 711.555 768.273 819.403 822.622
6727.82 787.861 723.53 810.452 809.785
6730.65 671.176 713.649 799.499 780.767
6733.48 681.911 686.734 732.35 763.413
6736.3 707.116 701.836 758.391 746.929
6739.13 716.482 677.917 750.046 748.677
6741.95 610.154 696.04 737.594 747.327
6744.78 761.485 669.389 754.339 749.699
6747.61 636.529 702.485 757.162 773.753
6750.43 709.441 696.23 809.757 774.093
6753.26 742.719 741.593 755.361 789.986
6756.08 772.619 764.87 804.839 782.913
6758.91 779.273 767.683 788.54 796.18
6761.73 751.156 754.519 795.161 782.693
6764.56 733.126 752.774 764.379 787.834
6767.38 774.04 769.279 803.961 792.053
6770.21 800.672 784.846 807.819 796.902
6773.03 779.825 768.657 778.928 782.559
6775.86 725.474 747.516 760.93 760.842
6778.68 737.25 712.421 742.669 726.069
6781.5 674.538 697.759 674.609 713.426
6784.33 681.487 686.812 723 707.18
6787.15 704.41 702.618 723.931 730.319
6789.97 721.958 726.669 744.026 744.269
6792.8 753.639 716.204 764.85 738.326
6795.62 673.015 719.944 706.102 734.718
6798.44 733.178 719.612 733.203 723.625
6801.27 752.643 720.991 731.571 724.865
6804.09 677.151 709.02 709.821 739.434
6806.91 697.268 693.508 776.909 729.56
6809.73 706.105 703.075 701.95 733.337
6812.55 705.852 699.846 721.152 709.703
6815.38 687.581 721.007 706.006 740.559
6818.2 769.589 730.492 794.518 735.383
6821.02 734.307 763.657 705.623 761.042
6823.84 787.074 729.712 782.985 720.438
6826.66 667.755 685.525 672.705 756.053
6829.48 601.746 691.693 812.47 745.122
6832.3 805.578 681.843 750.19 714.419
6835.12 638.206 717.367 580.598 685.716
6837.95 708.316 655.237 726.359 687.894
6840.77 619.188 673.114 756.726 726.399
6843.59 691.838 645.568 696.112 694.581
6846.41 625.679 668.576 630.904 673.005
6849.23 688.212 665.536 691.998 668.23
6852.05 682.715 700.72 681.787 694.539
6854.87 731.234 642.185 709.831 683.49
6857.69 512.606 632.937 658.851 653.87
6860.5 654.97 598.493 592.927 625.754
6863.32 627.902 630.802 625.485 607.701
6866.14 609.534 528.42 604.692 582.085
6868.96 347.822 500.3 516.078 544.275
6871.78 543.544 491.316 512.056 530.167
6874.6 582.581 558.848 562.368 566.402
6877.42 550.42 599.527 624.781 626.788
6880.23 665.58 603.886 693.216 668.701
6883.05 595.659 622.455 688.107 649.542
6885.87 606.127 594.692 567.304 614.05
6888.69 582.29 611.341 586.738 599.924
6891.51 645.606 622.283 645.728 616.845
6894.32 638.952 649.342 618.068 628.192
6897.14 663.47 628.722 620.781 595.234
6899.96 583.744 593.859 546.853 595.889
6902.77 534.365 598.136 620.032 605.58
6905.59 676.3 592.844 649.855 642.956
6908.41 567.869 649.946 658.981 652.885
6911.22 705.668 643.906 649.819 639.403
6914.04 658.18 658.133 609.409 611.015
6916.85 610.551 646.274 573.817 602.802
6919.67 670.091 668.657 625.18 611.863
6922.49 725.33 676.225 636.593 626.557
6925.3 633.254 674.685 617.898 626.05
6928.12 665.47 661.268 623.659 633.288
6930.93 685.081 638.267 658.307 590.846
6933.75 564.25 598.947 490.572 583.702
6936.56 547.509 593.492 602.228 573.298
6939.38 668.717 611.236 627.094 611.572
6942.19 617.483 642.586 605.393 608.401
6945 641.558 622.454 592.715 589.211
6947.82 608.321 647.155 569.524 601.96
6950.63 691.587 632.944 643.642 585.599
6953.45 598.924 649.078 543.632 618.297
6956.26 656.724 607.867 667.616 587.647
6959.07 567.952 642.219 551.693 628.227
6961.89 701.982 626.858 665.371 584.39
6964.7 610.639 670.125 536.105 628.606
6967.51 697.753 620.855 684.343 614.961
6970.32 554.174 648.482 624.434 660.215
6973.14 693.518 627.055 671.869 616.787
6975.95 633.474 625.475 554.059 568.679
6978.76 549.432 607.472 480.109 545.711
6981.57 639.511 608.338 602.965 554.337
6984.39 636.072 605.662 579.936 577.49
6987.2 541.403 605.816 549.568 564.943
6990.01 639.972 599.913 565.325 557.072
6992.82 618.364 653.322 556.323 592.511
6995.63 701.629 647.624 655.885 599.826
6998.44 622.879 663.355 587.27 626.882
7001.25 665.558 649.134 637.491 615.875
7004.06 658.966 651.5 622.863 617.192
7006.87 629.977 644.542 591.221 597.853
7009.68 644.683 603.451 579.476 558.761
7012.49 535.692 604.699 505.587 557.64
7015.3 633.721 596.809 587.856 553.238
7018.11 621.013 641.732 566.272 591.513
7020.92 670.462 638.306 620.413 595.536
7023.73 623.444 642.148 599.924 598.445
7026.54 632.536 612.826 574.997 587.995
7029.35 582.498 609.901 589.064 579.516
7032.16 614.668 595.85 574.487 571.903
7034.97 590.385 606.685 552.156 565.271
7037.78 615.002 609.391 569.168 562.43
7040.59 622.785 599.764 565.965 576.528
7043.39 561.503 595.045 594.452 560.072
7046.2 600.845 599.722 519.799 567.908
7049.01 636.818 594.772 589.472 550.95
7051.82 546.652 578.667 543.578 560.336
7054.63 552.531 563.841 547.956 543.173
7057.43 592.342 574.239 537.984 529.294
7060.24 577.846 600.249 501.942 530.797
7063.05 630.559 586.228 552.465 521.453
7065.85 550.279 597.59 509.953 539.826
7068.66 611.934 561.912 557.061 543.021
7071.47 523.523 581.146 562.05 561.094
7074.27 607.981 545.555 564.17 552.347
7077.08 505.162 558.103 530.82 524.995
7079.88 561.167 558.909 479.996 528.534
7082.69 610.398 595.456 574.785 526.109
7085.5 614.804 574.391 523.545 529.357
7088.3 497.972 559.248 489.74 499.193
7091.11 564.967 529.507 484.292 493.604
7093.91 525.583 556.495 506.779 506.447
7096.72 578.934 561.459 528.27 530.875
7099.52 579.859 564.599 557.575 519.872
7102.33 535.004 556.086 473.77 512.46
7105.13 553.396 559.855 506.035 494.654
7107.93 591.167 574.603 504.158 515.196
7110.74 579.246 555.923 535.395 500.632
7113.54 497.358 574.685 462.343 522.275
7116.34 647.452 592.892 569.087 530.367
7119.15 633.865 637.566 559.672 565.279
7121.95 631.38 602.313 567.077 550.058
7124.75 541.694 575.185 523.424 523.461
7127.56 552.482 561.987 479.881 518.111
7130.36 591.786 585.466 551.028 529.156
7133.16 612.13 600.336 556.559 533.695
7135.96 597.093 575.612 493.496 503.592
7138.77 517.612 569.144 460.721 486.456
7141.57 592.726 576.041 505.15 499.785
7144.37 617.785 601.112 533.485 515.679
7147.17 592.826 598.325 508.404 526.164
7149.97 584.365 553.843 536.605 500.727
7152.77 484.337 548.669 457.172 500.632
7155.58 577.304 532.778 508.119 492.533
7158.38 536.693 556.896 512.307 514.828
7161.18 556.691 537.913 524.058 503.826
7163.98 520.354 517.897 475.112 494.895
7166.78 476.647 506.131 485.515 476.551
7169.58 521.391 492.468 469.025 447.76
7172.38 479.367 507.821 388.74 428.624
7175.18 522.707 499.932 428.108 425.437
7177.98 497.723 511.278 459.465 445.053
7180.78 513.405 493.977 447.587 438.105
7183.58 470.803 471.448 407.263 423.631
7186.38 430.135 464.292 416.043 407.752
7189.17 491.938 477.107 399.948 422.404
7191.97 509.249 498.373 451.222 422.188
7194.77 493.933 492.486 415.393 423.822
7197.57 474.275 487.911 404.852 408.681
7200.37 495.525 478.334 405.798 400.35
7203.17 465.202 492.107 390.398 405.717
7205.96 515.595 507.967 420.956 408.077
7208.76 543.103 538.007 412.878 423.41
7211.56 555.324 526.363 436.397 435.314
7214.36 480.661 504.524 456.666 428.596
7217.15 477.585 491.025 392.726 424.482
7219.95 514.828 499.154 424.052 404.549
7222.75 505.05 512.144 396.868 413.317
7225.54 516.555 514.643 419.032 422.566
7228.34 522.323 521.457 451.798 440.347
7231.14 525.493 515.469 450.209 423.088
7233.93 498.59 500.442 367.256 385.252
7236.73 477.242 507.242 338.292 398.008
7239.52 545.894 503.083 488.475 416.699
7242.32 486.112 510.375 423.33 445.616
7245.11 499.118 481.338 425.042 388.942
7247.91 458.785 441.715 318.453 360.146
7250.7 367.241 421.971 336.943 362.68
7253.5 439.888 414.897 432.644 383.873
7256.29 437.563 431.225 382.031 386.943
7259.09 416.223 434.874 346.153 356.328
7261.88 450.836 434.36 340.799 354.745
7264.67 436.022 414.162 377.284 376.631
7267.47 355.627 423.796 411.811 397.436
7270.26 479.74 435.194 403.213 404.48
7273.05 470.216 449.244 398.417 353.027
7275.85 397.777 307.048 257.45 338.53
7278.64 53.1509 176.022 359.724 342.937
7281.43 77.1391 109.378 411.639 405.638
7284.23 197.843 175.609 445.551 423.881
7287.02 251.846 310.542 414.451 409.52
7289.81 481.938 319.562 368.557 387.025
7292.6 224.901 389.962 378.067 379.006
7295.39 463.045 379.953 390.395 393.725
7298.19 451.912 457.526 412.713 390.447
7300.98 457.621 451.058 368.233 372.903
7303.77 443.641 446.911 337.764 361.987
7306.56 439.472 449.104 379.964 361.998
7309.35 464.198 439.035 368.265 364.435
7312.14 413.434 442.911 345.075 343.149
7314.93 451.1 452.905 316.106 340.225
7317.72 494.182 380.351 359.493 344.608
7320.51 195.77 351.813 358.226 350.377
7323.3 365.486 338.33 333.412 382.405
7326.09 453.735 403.557 455.579 357.336
7328.88 391.449 410.928 283.019 389.293
7331.67 387.599 419.053 429.281 345.033
7334.46 478.11 457.177 322.799 390.528
7337.25 505.82 449.045 419.505 308.218
7340.04 363.204 308.831 182.351 328.766
7342.83 57.4669 302.656 384.442 356.65
7345.61 487.296 283.905 503.158 421.323
7348.4 306.95 409.546 376.368 412.823
7351.19 434.392 396.044 358.944 355.768
7353.98 446.791 442.644 331.994 342.404
7356.77 446.751 442.797 336.273 342.211
7359.55 434.85 444.059 358.364 336.776
7362.34 450.575 456.404 315.689 334.259
7365.13 483.788 461.721 328.722 349.178
7367.91 450.8 447.203 403.122 361.191
7370.7 407.021 418.995 351.728 383.492
7373.49 399.164 358.416 395.625 341.81
7376.27 269.062 365.646 278.076 325.658
7379.06 428.71 364.477 303.272 304.305
7381.85 395.658 419.489 331.567 322.149
7384.63 434.101 430.432 331.607 336.509
7387.42 461.538 442.003 346.354 342.042
7390.2 430.369 444.21 348.166 361.595
7392.99 440.722 438.684 390.265 359.235
7395.77 444.96 445.127 339.276 365.401
7398.56 449.7 436.06 366.663 357.67
7401.34 413.521 354.371 367.071 329.994
7404.13 199.892 303.279 256.249 315.675
7406.91 296.425 314.421 323.704 304.752
7409.69 446.946 388.578 334.304 319.058
7412.48 422.363 438.926 299.167 327.266
7415.26 447.467 439.118 348.327 333.195
7418.04 447.524 420.525 352.089 334.33
7420.83 366.585 413.159 302.574 335
7423.61 425.369 406.804 350.336 334.002
7426.39 428.459 412.22 349.095 343.925
7429.18 382.833 365.779 332.343 325.95
7431.96 286.044 313.959 296.413 331.332
7434.74 273.001 336.883 365.239 327.144
7437.52 451.605 372.259 319.78 328.276
7440.3 392.172 423.451 299.81 323.301
7443.09 426.577 420.774 350.314 337.077
7445.87 443.572 430.04 361.106 337.325
7448.65 419.972 427.974 300.555 341.205
7451.43 420.377 422.596 361.954 341.794
7454.21 427.439 417.173 362.872 350.814
7456.99 403.703 418.586 327.614 335.822
7459.77 424.616 405.167 316.979 304.924
7462.55 387.181 358.568 270.178 302.415
7465.33 263.907 373.908 320.089 312.977
7468.11 470.634 392.533 348.664 332.757
7470.89 443.058 440.387 329.518 336.792
7473.67 407.467 407.595 332.195 324.791
7476.45 372.258 383.416 312.66 311.465
7479.23 370.523 331.625 289.539 312.624
7482.01 252.094 345.008 335.674 311.169
7484.79 412.407 332.751 308.293 308.725
7487.56 333.752 372.1 282.208 296.592
7490.34 370.141 383.259 299.275 287.13
7493.12 445.884 401.999 279.907 297.431
7495.9 389.972 403.473 313.111 286.946
7498.68 374.564 403.912 267.819 317.709
7501.45 447.199 414.949 372.198 310.766
7504.23 423.084 434.547 292.281 315.06
7507.01 433.359 415.024 280.699 288.046
7509.78 388.629 405.62 291.158 286.183
7512.56 394.872 402.827 286.692 305.24
7515.34 424.979 344.749 337.871 292.139
7518.11 214.396 339.67 251.853 281.615
7520.89 379.635 350.888 255.12 261.536
7523.67 458.633 395.813 277.636 267.526
7526.44 349.17 405.44 269.823 279.355
7529.22 408.516 361.23 290.607 292.707
7531.99 326.002 334.693 317.691 296.326
7534.77 269.56 336.006 280.68 301.955
7537.54 412.456 357.391 307.494 288.589
7540.32 390.158 390.189 277.593 295.873
7543.09 367.954 353.649 302.532 285.559
7545.87 302.837 353.051 276.552 284.805
7548.64 388.362 368.661 275.331 280.259
7551.41 414.783 409.326 288.894 291.384
7554.19 424.834 383.435 309.927 301.984
7556.96 310.689 379.005 307.131 299.793
7559.73 401.493 380.661 282.32 300.047
7562.51 429.8 400.037 310.69 276.521
7565.28 368.817 413.334 236.555 267.207
7568.05 441.385 398.354 254.378 256.007
7570.82 384.86 403.095 277.088 265.652
7573.6 383.042 365.516 265.491 256.419
7576.37 328.648 381.076 226.678 266.57
7579.14 431.537 377.576 307.541 253.642
7581.91 372.542 381.353 226.708 267.91
7584.68 339.98 334.228 269.482 248.311
7587.45 290.162 303.42 248.744 234.821
7590.23 280.119 274.742 186.238 198.279
7593 253.947 223.187 159.856 161.956
7595.77 135.494 173.658 139.772 138.468
7598.54 131.532 140.532 115.776 125.556
7601.31 154.57 141.351 121.119 109.036
7604.08 137.951 137.491 90.2117 106.622
7606.85 119.951 142.277 108.536 105.346
7609.62 168.929 160.801 117.29 111.738
7612.39 193.521 215.276 109.388 139.71
7615.15 283.378 247.762 192.452 158.879
7617.92 266.387 271.238 174.797 175.994
7620.69 263.949 244.959 160.735 164.079
7623.46 204.54 234.001 156.706 141.673
7626.23 233.514 234.027 107.578 146.782
7629 264.026 260.074 176.06 152.516
7631.77 282.68 231.405 173.908 151.556
7634.53 147.508 232.812 104.7 158.807
7637.3 268.246 220.995 197.811 153.663
7640.07 247.231 253.272 158.479 166.434
7642.83 244.34 241.147 143.013 163.537
7645.6 231.872 248.472 189.119 163.46
7648.37 269.203 251.954 158.247 162.117
7651.13 254.787 253.034 138.984 155.195
7653.9 235.112 259.344 168.355 155.799
7656.67 288.133 282.04 160.058 168.458
7659.43 322.877 298.252 176.962 171.092
7662.2 283.745 287.267 176.255 178.49
7664.96 255.179 293.695 182.254 192.337
7667.73 342.162 322.828 218.501 217.982
7670.49 371.144 349.332 253.192 222.596
7673.26 334.691 335.726 196.093 227.881
7676.02 301.343 326.414 234.356 220.598
7678.79 343.207 338.711 231.345 241.88
7681.55 371.582 339.025 259.939 226.664
7684.32 302.285 327.603 188.708 219.272
7687.08 308.941 306.197 209.17 213.342
7689.84 307.364 292.931 242.148 199.407
7692.61 262.488 307.333 146.902 194.922
7695.37 352.146 327.218 195.716 181.324
7698.13 367.02 324.589 201.355 180.841
7700.9 254.599 332.057 145.452 187.932
7703.66 374.551 303.555 216.988 173.628
7706.42 281.515 343.232 158.443 178.41
7709.18 373.63 363.584 159.799 172.992
7711.94 435.606 380.486 200.735 173.759
7714.71 332.221 371.341 160.742 148.784
7717.47 346.197 350.705 84.8739 173.105
7720.23 373.695 338.807 273.7 182.359
7722.99 296.527 321.889 188.504 223.241
7725.75 295.446 306.706 207.519 185.759
7728.51 328.146 292.758 161.254 198.849
7731.27 254.682 291.824 227.775 189.856
7734.03 292.643 265.024 180.54 187.292
7736.79 247.746 290.438 153.56 175.538
7739.55 330.923 306.802 192.514 181.738
7742.31 341.736 307.998 199.141 178.275
7745.07 251.335 337.443 143.171 184.556
7747.83 419.258 340.059 211.355 189.352
7750.59 349.584 376.033 213.531 207.334
7753.35 359.257 327 197.115 201.478
7756.1 272.16 324.145 193.789 189.426
7758.86 341.02 283.518 177.374 177.652
7761.62 237.374 290.217 161.793 160.597
7764.38 292.255 283.956 142.624 173.277
7767.14 322.24 291.408 215.413 178.665
7769.89 259.728 300.385 177.96 195.395
7772.65 319.188 294.762 192.811 190.977
7775.41 305.371 320.106 202.16 180.968
7778.16 335.761 336.846 147.932 184.827
7780.92 369.407 327.339 204.388 169.327
7783.68 276.851 282.815 155.66 194.849
7786.43 202.187 257.953 224.5 210.491
7789.19 294.821 277 251.314 199.803
7791.94 333.993 303.468 123.595 176.829
7794.7 281.589 296.562 155.578 150.014
7797.46 274.104 232.113 170.868 173.935
7800.21 140.647 220.732 195.359 172.144
7802.97 247.443 240.012 150.205 179.165
7805.72 331.946 313.103 191.931 162.677
7808.47 359.919 311.47 145.896 174.717
7811.23 242.546 241.433 186.326 152.756
7813.98 121.834 251.457 126.046 167.085
7816.74 389.991 133.625 188.882 143.522
7819.49 -110.949 233.738 115.639 177.018
7822.24 422.171 167.863 226.534 149.376
7825 192.367 293.671 105.956 171.981
7827.75 266.475 250.939 183.453 148.335
7830.5 293.973 264.843 155.597 166.33
7833.25 234.08 228.061 159.94 140.411
7836.01 156.13 246.653 105.696 130.69
7838.76 349.751 279.633 126.435 139.863
7841.51 333.018 338.763 187.459 168.635
7844.26 333.52 327.383 192.01 183.306
7847.01 315.611 313.023 170.449 190.176
7849.76 289.939 309.866 208.07 146.852
7852.51 324.049 324.442 62.0382 117.199
7855.27 359.336 206.003 81.4898 80.032
7858.02 -65.376 175.81 96.568 122.422
7860.77 233.47 62.4881 189.208 141.332
7863.52 19.3706 184.554 138.221 136.015
7866.27 300.821 102.958 80.6174 108.149
7869.02 -11.3169 186.709 105.61 86.3117
7871.77 270.624 180.669 72.7079 91.2624
7874.51 282.699 287.684 95.4697 129.317
7877.26 309.73 297.719 219.773 151.089
7880.01 300.727 226.947 138.024 164.26
7882.76 70.3822 108.517 134.984 127.826
7885.51 -45.5574 21.0461 110.47 128.476
7888.26 38.3136 94.2414 139.974 137.628
7891 289.968 208.741 162.441 141.221
7893.75 297.941 290.245 121.249 140.393
7896.5 282.826 285.327 137.488 133.531
7899.25 275.213 257.729 141.856 137.377
7901.99 215.149 259.436 132.786 140.864
7904.74 287.946 271.585 147.951 120.506
7907.49 311.661 294.132 80.7831 96.8748
7910.23 282.789 129.005 61.8905 61.6455
7912.98 -207.435 112.73 42.263 98.0235
7915.73 262.835 108.381 189.917 96.3451
7918.47 269.743 259.892 56.8554 109.653
7921.22 247.099 234.326 82.1855 69.6194
7923.96 186.136 230.305 69.8172 102.117
7926.71 257.679 223.7 154.347 104.776
7929.45 227.284 245.105 90.1644 132.498
7932.2 250.352 207.214 152.981 113.573
7934.94 144.007 220.207 97.5728 125.829
7937.68 266.261 229.859 126.933 123.078
7940.43 279.31 256.554 144.729 135.859
7943.17 224.09 225.928 135.914 123.705
7945.91 174.385 233.295 90.472 125.903
7948.66 301.409 250.876 151.323 130.687
7951.4 276.835 246.012 150.266 136.432
7954.14 159.792 214.68 107.707 126.898
7956.89 207.413 210.53 122.721 88.8688
7959.63 264.384 254.734 36.1778 89.9271
7962.37 292.404 291.409 110.882 99.4736
7965.11 317.438 282.566 151.361 126.411
7967.85 237.856 261.835 116.991 148.038
7970.6 230.21 163.792 175.763 113.449
7973.34 23.3109 175.311 47.5923 120.854
7976.08 272.413 182.496 139.208 94.4802
7978.82 251.763 267.329 96.6403 114.252
7981.56 277.81 253.931 106.909 100.926
7984.3 232.219 266.992 99.2278 131.552
7987.04 290.947 163.992 188.519 134.905
7989.78 -31.1903 165.379 116.968 118.169
7992.52 236.379 147.133 49.0199 79.0412
7995.26 236.209 244.715 71.1357 88.3747
7998 261.557 212.151 144.969 108.77
8000.74 138.688 207.778 110.205 119.451
8003.47 223.089 185.581 103.179 96.4071
8006.21 194.968 225.106 75.8376 80.807
8008.95 257.261 241.703 63.4043 72.8827
8011.69 272.88 266.344 79.4061 84.4869
8014.43 268.89 252.732 110.65 98.0999
8017.16 216.426 243.893 104.243 90.5763
8019.9 246.363 228.069 56.8354 63.6909
8022.64 221.419 232.207 29.9941 59.6242
8025.38 228.84 236.944 92.0433 72.8523
8028.11 260.573 223.616 96.5196 80.2988
8030.85 181.434 193.287 52.3336 105.517
8033.59 137.855 195.687 167.697 110.756
8036.32 267.774 204.588 112.236 122.486
8039.06 208.137 239.958 87.5262 101.47
8041.79 243.963 230.14 104.647 96.0243
8044.53 238.322 219.794 95.8994 102.473
8047.26 177.097 212.25 106.872 100.255
8050 221.33 218.742 97.9928 87.6072
8052.73 257.798 237.848 57.9567 68.1735
8055.47 234.417 234.666 48.5711 56.6793
8058.2 211.783 214.524 63.5101 50.241
8060.93 197.372 209.915 38.6419 49.7817
8063.67 220.591 187.112 47.1932 57.0729
8066.4 143.373 198.687 85.3837 73.328
8069.14 232.097 216.698 87.4072 95.1425
8071.87 274.625 238.369 112.637 91.3262
8074.6 208.385 237.492 73.9346 88.1737
8077.33 229.466 219.154 77.9499 79.7905
8080.07 219.61 222.558 87.4869 96.5308
8082.8 218.599 222.451 124.156 106.838
8085.53 229.142 232.17 108.872 114.59
8088.26 248.769 234.56 110.744 108.471
8090.99 225.769 227.068 105.799 101.764
8093.72 206.667 205.768 88.7506 64.8277
8096.45 184.868 204.408 -0.0661794 45.3752
8099.19 221.689 189.149 47.4412 39.8146
8101.92 160.889 204.065 72.0689 63.2563
8104.65 229.616 194.979 70.2588 60.3815
8107.38 194.43 207.192 38.8169 62.6874
8110.11 197.531 189.658 78.9863 75.0996
8112.84 177.012 190.047 107.496 94.993
8115.56 195.597 191.469 98.4971 96.3669
8118.29 201.8 193.058 83.1081 91.1353
8121.02 181.778 187.371 91.8006 88.2791
8123.75 178.536 193.189 89.9285 90.3408
8126.48 219.254 183.152 89.2934 81.476
8129.21 151.667 183.725 65.206 84.5782
8131.94 180.255 188.111 99.2353 96.9934
8134.66 232.41 203.521 126.539 88.5538
8137.39 197.899 213.79 39.8872 81.5634
8140.12 211.062 212.016 78.2639 71.4679
8142.84 227.088 202.003 96.2525 83.2029
8145.57 167.857 194.005 75.0923 71.6973
8148.3 187.07 177.523 43.7472 65.4035
8151.02 177.642 191.856 77.3711 62.4517
8153.75 210.854 198.129 66.2369 82.7918
8156.48 205.891 206.343 104.767 78.2484
8159.2 202.282 189.626 63.7408 74.2502
8161.93 160.704 186.51 54.2422 63.4211
8164.65 196.545 180.268 72.2802 70.9644
8167.38 183.554 185.617 86.371 78.3962
8170.1 176.754 179.496 76.5375 83.045
8172.83 178.182 173.459 86.2266 78.4483
8175.55 165.44 174.762 72.5807 80.172
8178.27 180.664 178.94 81.7087 83.8624
8181 190.716 179.402 97.2977 90.8787
8183.72 166.825 170.743 93.6296 93.4482
8186.44 154.689 154.798 89.4174 84.8836
8189.17 142.879 156.459 71.6038 79.5038
8191.89 171.809 163.186 77.4902 72.4616
8194.61 174.87 174.328 68.2908 66.8664
8197.33 176.306 175.489 54.8182 60.2905
8200.06 175.292 164.476 57.7625 66.9097
8202.78 141.831 173.034 88.1485 75.2302
8205.5 201.98 172.199 79.7795 86.5699
8208.22 172.786 184.813 91.7818 83.4829
8210.94 179.675 173.563 78.8874 83.7166
8213.66 168.228 174.981 80.4805 75.5756
8216.38 177.04 180.408 67.3588 77.3437
8219.1 195.957 183.313 84.1917 85.6394
8221.82 176.942 183.65 105.368 91.3936
8224.54 178.052 163.683 84.6214 92.8288
8227.26 136.054 148.442 88.4971 77.6177
8229.98 131.22 147.18 59.7345 62.4932
8232.7 174.265 145.284 39.2478 63.6858
8235.42 130.366 166.982 92.075 80.5408
8238.14 196.314 168.44 110.3 97.1864
8240.86 178.641 181.507 89.1846 84.2158
8243.58 169.566 184.07 53.1632 77.3122
8246.3 204.003 194.386 89.5889 81.2913
8249.01 209.591 196.409 101.122 84.9452
8251.73 175.634 174.506 64.125 74.7612
8254.45 138.293 181.914 59.0368 74.5479
8257.16 231.815 178.489 100.482 75.111
8259.88 165.36 185.237 65.8143 75.2785
8262.6 158.536 172.084 59.5394 62.9335
8265.31 192.358 172.94 63.4469 50.6171
8268.03 167.927 168.869 28.8649 46.2556
8270.75 146.322 164.162 46.4549 42.2375
8273.46 178.237 157.868 51.3929 43.96
8276.18 149.045 157.92 34.0322 48.778
8278.89 146.48 156.666 60.909 20.8828
8281.61 174.474 162.079 -32.2928 -6.34537
8284.32 165.284 159.152 -47.6523 -39.9667
8287.04 137.697 155.488 -39.9549 -46.9331
8289.75 163.482 134.932 -53.1921 -33.9775
8292.46 103.616 142.516 -8.78547 0.734341
8295.18 160.449 120.256 64.1806 10.6724
8297.89 96.7032 163.155 -23.3779 23.077
8300.6 232.311 170.331 28.4283 6.06431
8303.32 181.979 169.447 13.1425 28.0617
8306.03 94.0505 147.901 42.6143 44.5143
8308.74 167.674 127.239 77.7862 29.2638
8311.46 119.992 149.143 -32.609 26.4923
8314.17 159.763 143.73 34.2997 27.3202
8316.88 151.435 159.208 80.2701 43.199
8319.59 166.425 161.872 15.0272 51.0231
8322.3 167.756 165.5 57.7721 56.3283
8325.01 162.319 168.365 96.1857 76.9138
8327.72 175.019 177.299 76.7836 79.1135
8330.43 194.558 179.852 64.3712 64.6515
8333.14 169.977 160.541 52.7996 43.7729
8335.85 117.088 160.651 14.1479 23.493
8338.56 194.888 179.874 3.5314 6.86755
8341.27 227.645 221.85 2.92335 -14.7793
8343.98 243.016 190.331 -50.7926 -35.2461
8346.69 100.331 113.373 -57.8691 -53.0679
8349.4 -3.22597 60.4382 -50.5419 -49.0995
8352.11 84.2098 89.8574 -38.8875 -36.1203
8354.82 188.588 138.973 -18.9316 -22.7419
8357.53 144.121 153.659 -10.4067 -5.44442
8360.23 128.268 141.566 13.0051 1.46159
8362.94 152.309 161.477 1.78639 9.79754
8365.65 203.854 182.683 14.6012 14.6024
8368.36 191.885 190.3 27.4197 21.742
8371.06 175.161 181.468 23.2051 36.3133
8373.77 177.358 170.187 58.3151 25.3377
8376.48 158.042 170.655 -5.5071 12.6559
8379.18 176.566 179.843 -14.8403 -5.45878
8381.89 204.92 203.022 3.97105 6.48361
8384.59 227.58 188.144 30.3201 4.11257
8387.3 131.932 180.588 -21.9534 5.27396
8390 182.251 159.954 7.45524 2.46241
8392.71 165.68 187.633 21.8854 -21.9949
8395.41 214.969 167.388 -95.3253 -19.3035
8398.12 121.516 167.949 15.5294 -81.9059
8400.82 167.362 117.089 -165.922 -64.7511
8403.53 62.3897 96.9656 -43.8609 -68.3557
8406.23 61.1449 104.058 4.71585 -3.85087
8408.93 188.638 140.591 27.5924 16.7652
8411.64 171.989 175.69 17.9872 4.86964
8414.34 166.442 173.577 -30.9708 -7.40319
8417.04 182.301 160.749 -9.22603 -17.541
8419.74 133.503 131.968 -12.4261 -13.6615
8422.45 80.0986 120.812 -19.3324 -34.3546
8425.15 148.833 120.036 -71.3052 -53.6201
8427.85 131.175 114.392 -70.2228 -62.2851
8430.55 63.1677 86.9633 -45.3272 -84.5168
8433.25 66.5469 83.3372 -138 -48.3005
8435.95 120.297 96.2303 38.426 -15.5252
8438.65 101.847 130.725 52.9987 47.2846
8441.35 170.03 144.389 50.4292 48.0648
8444.05 161.289 158.798 40.7665 32.6874
8446.75 145.075 160.741 6.86657 13.7943
8449.45 175.86 140.464 -6.25021 5.43159
8452.15 100.455 123.192 15.6784 11.4971
8454.85 93.2618 118.215 25.063 18.8755
8457.55 160.927 146.114 15.8852 26.961
8460.25 184.153 162.591 39.9349 -9.92745
8462.95 142.693 151.117 -85.6025 -62.2355
8465.65 126.506 165.634 -141.039 -108.016
8468.34 227.704 167.505 -97.4068 -77.2699
8471.04 148.306 169.632 6.63593 -43.442
8473.74 132.885 147.432 -39.555 -11.4788
8476.44 161.103 152.491 -1.51728 -8.31343
8479.13 163.485 159.686 16.132 20.9328
8481.83 154.47 154.999 48.1838 28.7957
8484.53 147.043 155.983 22.0713 29.1213
8487.22 166.434 145.908 17.1087 8.43282
8489.92 124.246 145.888 -13.8815 -5.94185
8492.61 146.982 128.651 -21.0527 -18.2087
8495.31 114.724 159.679 -19.6919 -29.237
8498.01 217.329 165.443 -46.9665 -32.6408
8500.7 164.276 178.375 -31.2639 -51.2385
8503.39 153.52 160.026 -75.485 -57.2427
8506.09 162.283 163.073 -64.9793 -58.3877
8508.78 173.417 152.435 -34.6989 -43.005
8511.48 121.605 139.554 -29.3367 -12.3
8514.17 123.639 129.987 27.1355 14.3398
8516.86 144.716 136.08 45.2205 48.5376
8519.56 139.886 150.582 73.2569 50.1557
8522.25 167.143 169.419 31.9898 49.5846
8524.94 201.228 169.394 43.5073 41.3998
8527.64 139.81 172.437 48.7022 48.8062
8530.33 176.274 161.854 54.2092 48.6932
8533.02 169.478 157.027 43.1683 28.3337
8535.71 125.33 149.555 -12.3764 12.3423
8538.4 153.858 152.996 6.23505 -2.03512
8541.09 179.801 163.936 0.0359907 -6.25418
8543.78 158.148 160.612 -25.0336 -7.791
8546.47 143.886 147.859 1.62461 -4.69041
8549.17 141.543 142.645 9.33774 3.06354
8551.86 142.507 137.202 -1.77175 -1.34289
8554.55 127.556 147.388 -11.5947 -3.92009
8557.23 172.102 167.545 1.60613 14.1123
8559.92 202.979 179.227 52.3254 40.2444
8562.61 162.6 177.445 66.8018 53.5413
8565.3 166.755 170.881 41.4967 53.9877
8567.99 183.288 161.731 53.6648 40.4689
8570.68 135.15 161.585 26.2452 27.5733
8573.37 166.319 144.305 2.80981 15.0783
8576.05 131.447 145.961 16.1799 14.965
8578.74 140.117 132.912 25.9052 17.7329
8581.43 127.171 147.624 11.1136 31.0958
8584.12 175.583 150.907 56.2687 46.8933
8586.8 149.967 157.004 73.2978 44.9963
8589.49 145.462 137.415 5.42244 35.2554
8592.18 116.817 114.65 27.046 1.33199
8594.86 81.6709 99.5166 -28.4724 -4.66878
8597.55 100.062 116.156 -12.5799 -15.4443
8600.23 166.736 140.045 -5.28065 -7.62828
8602.92 153.337 162.821 -5.0243 7.0113
8605.6 168.389 152.572 31.3388 13.9604
8608.29 135.989 148.586 15.5667 32.0014
8610.97 141.381 148.686 49.0988 18.4917
8613.66 168.687 172.914 -9.19034 6.87536
8616.34 208.674 176.051 -19.2823 -35.0825
8619.02 150.792 171.242 -76.7747 -64.9128
8621.71 154.261 154.837 -98.6812 -68.0549
8624.39 159.457 159.489 -28.7089 -66.0867
8627.07 164.749 144.282 -70.8699 -21.7356
8629.76 108.641 136.319 34.3719 -15.4088
8632.44 135.566 132.901 -9.72846 -23.5006
8635.12 154.498 154.952 -95.1451 -43.098
8637.8 174.792 150.807 -24.4203 -60.9324
8640.48 123.13 162.434 -63.2318 -27.2599
8643.17 189.38 170.487 5.87253 -36.2296
8645.85 198.95 162.05 -51.3294 -18.9584
8648.53 97.8198 143.477 -11.4185 -40.5888
8651.21 133.661 128.445 -59.0187 -36.2627
8653.89 153.854 142.878 -38.3509 -63.5879
8656.57 141.117 131.178 -93.3941 -53.5707
8659.25 98.5632 133.787 -28.967 -54.5659
8661.93 161.68 124.719 -41.3364 -50.6066
8664.61 113.914 140.202 -81.5163 -48.0243
8667.29 145.013 117.232 -21.22 -67.8524
8669.96 92.7701 140.822 -100.821 -41.1427
8672.64 184.682 119.263 -1.38741 -37.0955
8675.32 80.3355 137.499 -9.07833 10.1731
8678 147.48 128.239 40.9852 12.1463
8680.68 156.902 156.698 4.53209 19.6161
8683.35 165.712 157.448 13.331 15.9744
8686.03 149.731 152.723 30.06 9.66327
8688.71 142.726 151.84 -14.4013 19.343
8691.39 163.063 155.807 42.3701 8.97247
8694.06 161.631 146.556 -1.0514 17.2922
8696.74 114.974 141.052 10.558 9.95351
8699.41 146.55 135.428 20.3539 15.76
8702.09 144.759 143.176 16.3682 12.3506
8704.76 138.218 148.882 0.329686 8.92803
8707.44 163.667 148.51 10.0862 6.37029
8710.11 143.645 156.886 8.69497 17.1669
8712.79 163.346 146.44 32.7194 22.1894
8715.46 132.328 153.723 25.1539 33.8243
8718.14 165.496 143.86 43.5995 35.6046
8720.81 133.756 152.358 38.0606 35.66
8723.48 157.823 155.794 25.32 36.6812
8726.16 175.802 161.239 46.663 38.1222
8728.83 150.091 159.7 42.3836 36.1769
8731.5 153.205 150.141 19.4841 37.5233
8734.18 147.125 153.545 50.7022 33.1823
8736.85 160.303 157.327 29.3605 41.2976
8739.52 164.552 164.257 43.83 36.8393
8742.19 167.917 152.518 37.3275 42.7291
8744.86 125.086 153.614 47.0299 37.0532
8747.53 167.839 141.163 26.8022 42.4163
8750.2 130.563 139.565 53.4167 13.8117
8752.88 120.294 131.194 -38.7838 1.03756
8755.55 142.724 132.62 -11.5203 -57.8523
8758.22 134.842 151.428 -123.253 -31.8273
8760.89 176.719 127.74 39.2912 -49.3135
8763.56 71.6596 137.425 -63.979 -17.9427
8766.22 163.896 143.106 -29.1403 -29.697
8768.89 193.763 154.637 4.0283 29.2588
8771.56 106.254 163.831 112.889 35.9436
8774.23 191.477 146.269 -9.08597 44.8664
8776.9 141.075 151.989 30.7966 -33.5826
8779.57 123.414 143.951 -122.458 -42.5339
8782.23 167.365 150.663 -35.9398 -72.5282
8784.9 161.21 157.584 -59.1863 -26.2903
8787.57 144.178 160.416 16.2553 -24.0668
8790.24 175.86 146.029 -29.2692 -18.4821
8792.9 118.047 163.582 -42.4323 -28.2351
8795.57 196.839 140.186 -13.0039 -29.9088
8798.23 105.67 150.727 -34.2902 -11.1424
8800.9 149.673 139.345 13.8669 -1.34914
8803.57 162.691 145.397 16.3759 27.2381
8806.23 123.826 134.348 51.4716 39.2426
8808.9 116.526 138.661 49.8804 49.1775
8811.56 175.632 144.309 46.1805 44.3515
8814.22 140.768 160.343 36.9937 36.213
8816.89 164.628 157.36 25.4648 3.21095
8819.55 166.683 172.721 -52.8257 5.79524
8822.22 186.853 169.573 44.7465 -12.5671
8824.88 155.182 230.896 -29.6222 -36.8276
8827.54 350.654 247.052 -125.607 -47.6424
8830.21 235.32 246.568 12.302 -71.532
8832.87 153.729 145.357 -101.291 23.3416
8835.53 47.0225 116.916 159.014 17.5317
8838.19 149.997 109.661 -5.1278 72.1044
8840.85 131.963 92.3349 62.4269 57.8978
8843.52 -4.95517 70.2534 116.394 82.1416
8846.18 83.7522 66.2136 67.6036 81.176
8848.84 119.844 110.466 59.53 38.0926
8851.5 127.802 135.205 -12.8556 16.4041
8854.16 157.969 130.413 2.53789 -12.4564
8856.82 105.467 135.863 -27.0516 -13.0227
8859.48 144.153 118.679 -14.5543 -11.4531
8862.14 106.418 121.764 7.24671 3.57546
8864.8 114.722 105.772 18.034 -5.4237
8867.46 96.1763 107.508 -41.5518 -28.5843
8870.12 111.626 125.732 -62.2351 -42.3876
8872.77 169.394 138.811 -23.3759 -1.26627
8875.43 135.412 147.382 81.8122 17.7348
8878.09 137.34 133.638 -5.23185 16.1821
8880.75 128.163 123.158 -28.0339 -47.6019
8883.41 103.972 129.614 -109.54 -95.3598
8886.06 156.708 100.886 -148.506 -101.848
8888.72 41.9782 55.4714 -47.4976 -31.7758
8891.38 -32.2721 25.9905 100.676 87.8772
8894.03 68.2656 31.6903 210.453 139.964
8896.69 59.0775 76.7642 108.763 105.706
8899.34 102.95 79.9243 -2.09974 42.0451
8902 77.7459 149.83 19.4723 -20.4246
8904.65 268.795 148.813 -78.6463 -26.9491
8907.31 99.8992 147.067 -21.6732 -47.9377
8909.96 72.507 83.821 -43.4936 -27.0697
8912.62 79.0569 71.7145 -16.0421 -45.6736
8915.27 63.5798 75.0045 -77.4852 -81.2622
8917.93 82.3768 98.6138 -150.259 -112.593
8920.58 149.885 102.022 -110.035 -110.349
8923.23 73.8035 101.364 -70.7519 -89.0885
8925.89 80.4048 59.8551 -86.4789 -89.055
8928.54 25.3571 58.1455 -109.934 -87.5521
8931.19 68.6745 69.4355 -66.2432 -65.3313
8933.84 114.275 103.048 -19.8165 -68.3356
8936.5 126.196 119.768 -118.947 -77.3387
8939.15 118.834 117.534 -93.2525 -97.9905
8941.8 107.572 126.966 -81.7719 -73.2248
8944.45 154.491 142.315 -44.6502 -60.9124
8947.1 164.883 146.918 -56.3151 -35.4013
8949.75 121.38 116.06 -5.23864 -41.2131
8952.4 61.9175 104.646 -62.0854 -72.8891
8955.05 130.642 106.075 -151.343 -130.142
8957.7 125.665 162.687 -176.997 -141.574
8960.35 231.754 148.912 -96.3829 -117.743
8963 89.3173 96.3267 -79.8476 -152.577
8965.65 -32.0912 34.0909 -281.501 -216.086
8968.3 45.0466 21.9034 -286.909 -255.169
8970.95 52.7548 63.4107 -197.098 -204.317
8973.59 92.4308 95.2984 -128.946 -106.72
8976.24 140.71 103.629 5.88414 -37.6247
8978.89 77.7471 114.788 10.1877 5.18631
8981.54 125.907 104.699 -0.512956 -8.02619
8984.18 110.442 114.27 -33.7534 -27.582
8986.83 106.46 107.766 -48.4796 -50.0241
8989.48 106.397 78.3144 -67.8393 -36.5052
8992.12 22.0864 64.3324 6.80328 -29.6398
8994.77 64.5142 37.6347 -27.8835 -50.8481
8997.41 26.3035 57.1716 -131.464 -55.8181
9000.06 80.6971 56.7621 -8.10669 -70.359
9002.7 63.2858 64.8756 -71.5062 -37.6785
9005.35 50.6439 48.648 -33.4227 -130.439
9007.99 32.0143 35.0048 -286.389 -195.675
9010.64 22.3562 41.541 -267.213 -230.377
9013.28 70.2525 54.6292 -137.528 -178.633
9015.92 71.279 81.6954 -131.157 -98.8038
9018.57 103.555 98.5821 -27.7264 -52.9813
9021.21 120.912 108.868 -0.0608178 -20.7748
9023.85 102.136 102.813 -34.5373 -8.26938
9026.5 85.3895 91.6136 9.79 -7.50709
9029.14 87.315 88.3471 2.22606 -11.4289
9031.78 92.3368 101.184 -46.3027 -16.1554
9034.42 123.901 111.446 -4.38957 -28.9256
9037.06 118.101 137.791 -36.0846 -17.1307
9039.7 171.373 139.339 -10.918 -20.2985
9042.35 128.544 133.426 -13.8928 -17.2758
9044.99 100.36 95.1567 -27.0167 -39.566
9047.63 56.5661 100.221 -77.7885 -32.1309
9050.27 143.738 105.451 8.41234 -0.824467
9052.91 116.048 127.548 66.9027 -6.3852
9055.54 122.857 102.6 -94.4707 -46.0686
9058.18 68.8948 90.5074 -110.638 -125.78
9060.82 79.7707 88.9413 -172.23 -135.929
9063.46 118.158 92.0265 -124.918 -101.175
9066.1 78.1505 102.168 -6.37782 -63.58
9068.74 110.196 100.338 -59.4437 -21.2593
9071.38 112.668 99.4756 2.04364 -23.6203
9074.01 75.5633 94.8316 -13.4607 -21.0654
9076.65 96.2638 85.0351 -51.7792 -26.4238
9079.29 83.2783 76.5589 -14.0316 -34.668
9081.92 50.1345 44.4709 -38.193 -17.4082
