wavelength spectrum_sum 3smoothed_sum spectrum_optimal 3smoothed_optimal
3517.13 151.936 116.462 122.911 97.8323
3520.05 197.449 207.912 170.586 177.162
3522.96 274.351 242.042 237.988 210.128
3525.88 254.326 268.171 221.811 233.228
3528.79 275.838 268.913 239.884 231.028
3531.7 276.576 278.671 231.388 240.75
3534.62 283.599 268.594 250.979 241.591
3537.53 245.608 274.718 242.405 249.135
3540.45 294.946 265.753 254.02 243.334
3543.36 256.705 270.302 233.576 237.157
3546.28 259.256 276.723 223.873 249.737
3549.19 314.21 286.752 291.762 261.642
3552.1 286.79 311.43 269.291 283.522
3555.02 333.29 317.131 289.513 296.194
3557.93 331.313 318.539 329.777 300.325
3560.85 291.014 312.51 281.685 301.208
3563.76 315.202 320.107 292.161 299.956
3566.67 354.104 347.689 326.02 319.178
3569.59 373.759 369.226 339.352 342.197
3572.5 379.814 363.09 361.219 342.608
3575.42 335.696 360.896 327.253 343.144
3578.33 367.177 348.982 340.959 328.549
3581.25 344.073 361.684 317.435 337.551
3584.16 373.803 368.757 354.26 349.394
3587.07 388.395 381.947 376.487 368.941
3589.99 383.642 386.487 376.076 374.259
3592.9 387.424 385.609 370.215 370.635
3595.82 385.762 388.778 365.615 367.986
3598.73 393.147 387.359 368.129 366.766
3601.65 383.17 380.094 366.553 354.023
3604.56 363.965 376.551 327.389 351.947
3607.47 382.517 387.987 361.9 367.285
3610.39 417.48 403.943 412.567 388.892
3613.3 411.831 419.018 392.21 412.221
3616.22 427.742 430.533 431.887 425.069
3619.13 452.028 444.506 451.109 438.308
3622.04 453.749 447.832 431.926 441.455
3624.96 437.72 452.163 441.329 441.301
3627.87 465.022 448.576 450.647 452.003
3630.79 442.986 462.68 464.032 461.431
3633.7 480.032 463.772 469.613 470.141
3636.61 468.299 473.889 476.778 478.392
3639.53 473.337 467.296 488.787 475.888
3642.44 460.251 470.437 462.1 472.843
3645.36 477.724 486.373 467.644 477.818
3648.27 521.146 499.527 503.711 488.667
3651.18 499.712 510.443 494.647 495.057
3654.1 510.471 512.415 486.815 498.906
3657.01 527.063 526.179 515.257 506.303
3659.93 541.002 539.496 516.837 525.544
3662.84 550.421 537.112 544.537 529.904
3665.75 519.912 528.936 528.338 523.558
3668.67 516.474 512.324 497.8 506.549
3671.58 500.588 531.699 493.51 520.471
3674.5 578.034 547.407 570.104 538.359
3677.41 563.599 557.141 551.463 546.328
3680.32 529.79 533.664 517.417 520.284
3683.24 507.604 532.302 491.971 524.229
3686.15 559.512 529.164 563.299 532.776
3689.07 520.375 563.889 543.058 562.648
3691.98 611.78 588.645 581.588 589.847
3694.89 633.78 611.31 644.894 604.499
3697.81 588.37 586.811 587.016 597.587
3700.72 538.283 557.801 560.851 562.783
3703.63 546.751 551.702 540.481 549.075
3706.55 570.071 559.161 545.892 557.223
3709.46 560.66 578.68 585.297 585.923
3712.38 605.308 607.623 626.58 625.077
3715.29 656.9 643.241 663.353 650.635
3718.2 667.516 662.484 661.971 666.954
3721.12 663.036 665.118 675.537 665.238
3724.03 664.803 640.774 658.205 645.903
3726.94 594.482 636.913 603.968 640.259
3729.86 651.454 627.92 658.604 630.947
3732.77 637.824 655.642 630.268 664.115
3735.69 677.649 671.967 703.472 684.426
3738.6 700.427 672.803 719.537 707.433
3741.51 640.331 758.111 699.29 830.818
3744.43 933.576 780.517 1073.63 854.784
3747.34 767.643 758.359 791.435 822.314
3750.25 573.856 860.109 601.88 903.96
3753.17 1238.83 851.685 1318.57 885.838
3756.08 742.371 876.518 737.068 908.692
3758.99 648.354 706.484 670.442 712.339
3761.91 728.728 692.218 729.506 700.005
3764.82 699.573 727.612 700.067 729.204
3767.74 754.534 729.619 758.039 737.556
3770.65 734.751 737.14 754.562 752.344
3773.56 722.136 742.314 744.432 761.403
3776.48 770.056 743.561 785.216 766.353
3779.39 738.491 748.044 769.409 766.115
3782.3 735.584 740.456 743.719 765.826
3785.22 747.293 741.845 784.349 764.828
3788.13 742.659 730.59 766.416 754.272
3791.04 701.817 742.04 712.05 753.218
3793.96 781.642 759.098 781.188 779.039
3796.87 793.834 781.02 843.879 812.833
3799.78 767.584 803.224 813.431 857.012
3802.7 848.253 804.218 913.727 851.201
3805.61 796.818 837.29 826.444 881.494
3808.52 866.801 835.193 904.311 870.052
3811.44 841.959 853.144 879.4 887.465
3814.35 850.672 851.178 878.684 879.886
3817.26 860.904 865.125 881.575 897.402
3820.18 883.798 867.36 931.946 896.085
3823.09 857.378 874.945 874.734 912.879
3826 883.66 874.108 931.958 899.955
3828.91 881.287 867.926 893.174 906.009
3831.83 838.832 854.908 892.893 895.096
3834.74 844.606 855.244 899.219 903.183
3837.65 882.295 866.037 917.438 907.045
3840.57 871.209 906.008 904.478 934.762
3843.48 964.519 929.047 982.371 953.154
3846.39 951.413 941.065 972.613 965.235
3849.31 907.263 947.775 940.723 975.184
3852.22 984.648 942.377 1012.22 978.021
3855.13 935.22 973.425 981.122 1005.42
3858.05 1000.41 961.014 1022.92 1003.52
3860.96 947.415 949.829 1006.53 986.931
3863.87 901.665 940.092 931.346 979.876
3866.78 971.195 933.05 1001.75 959.876
3869.7 926.289 923.545 946.531 950.892
3872.61 873.152 901.903 904.393 928.473
3875.52 906.269 901.773 934.496 924.915
3878.44 925.897 898.066 935.857 915.2
3881.35 862.034 904.261 875.248 923.449
3884.26 924.853 908.002 959.241 940.97
3887.17 937.12 936.597 988.421 984.624
3890.09 947.818 949.761 1006.21 993.786
3893 964.343 950.316 986.727 981.649
3895.91 938.785 967.235 952.011 995.731
3898.83 998.575 988.89 1048.45 1021.19
3901.74 1029.31 1028.16 1063.11 1072.17
3904.65 1056.6 1041.69 1104.96 1093.17
3907.56 1039.15 1030.4 1111.43 1093.38
3910.48 995.436 1039.59 1063.74 1098.92
3913.39 1084.19 1032.27 1121.57 1089.01
3916.3 1017.17 1066.47 1081.71 1118.12
3919.21 1098.04 1070.08 1151.07 1130.37
3922.13 1095.02 1089.69 1158.33 1152.63
3925.04 1076.02 1095.15 1148.48 1154.55
3927.95 1114.41 1079.24 1156.83 1136.82
3930.86 1047.28 1104.16 1105.14 1155.68
3933.78 1150.78 1103.64 1205.05 1171.14
3936.69 1112.86 1128.71 1203.23 1200.25
3939.6 1122.48 1110.16 1192.48 1188.02
3942.51 1095.13 1105.26 1168.36 1179.48
3945.43 1098.19 1085 1177.6 1155.7
3948.34 1061.7 1088.54 1121.13 1163.84
3951.25 1105.73 1098.02 1192.8 1172.6
3954.16 1126.64 1116.07 1203.88 1209.36
3957.07 1115.82 1113.61 1231.41 1208.38
3959.99 1098.37 1105.07 1189.85 1191.09
3962.9 1101.02 1105.43 1152.02 1169.2
3965.81 1116.9 1090.42 1165.72 1144.02
3968.72 1053.35 1080.59 1114.32 1146.54
3971.64 1071.53 1063.54 1159.57 1131.3
3974.55 1065.73 1067.29 1120.02 1130.99
3977.46 1064.61 1098.61 1113.38 1161.26
3980.37 1165.49 1101.36 1250.38 1162.08
3983.28 1073.99 1137.24 1122.47 1199.47
3986.2 1172.23 1132.42 1225.57 1198.54
3989.11 1151.03 1163.86 1247.58 1241.35
3992.02 1168.33 1151.35 1250.9 1239.14
3994.93 1134.68 1165.81 1218.95 1246.7
3997.84 1194.42 1169.35 1270.25 1262.98
4000.76 1178.94 1196.66 1299.75 1295.35
4003.67 1216.62 1200.88 1316.05 1300.98
4006.58 1207.09 1214.17 1287.16 1302.99
4009.49 1218.8 1223.2 1305.77 1322.79
4012.4 1243.7 1236.9 1375.45 1336.77
4015.31 1248.19 1259.58 1329.08 1356.07
4018.23 1286.85 1273.44 1363.68 1362.79
4021.14 1285.27 1212.32 1395.61 1401.24
4024.05 1064.83 1126.99 1444.44 1408.3
4026.96 1030.88 1040.03 1384.85 1405.04
4029.87 1024.39 1020.99 1385.82 1377.5
4032.78 1007.69 1017.22 1361.84 1375.72
4035.7 1019.56 1019.53 1379.5 1381.1
4038.61 1031.34 1002.94 1401.94 1371.33
4041.52 957.926 1021.99 1332.53 1397.85
4044.43 1076.71 1024.81 1459.08 1402.45
4047.34 1039.8 1043.43 1415.72 1413.52
4050.25 1013.79 1027.19 1365.77 1402.13
4053.17 1027.97 1034.04 1424.88 1409.86
4056.08 1060.37 1066.28 1438.92 1448.53
4058.99 1110.49 1050.65 1481.79 1414.36
4061.9 981.081 1041.33 1322.37 1411.21
4064.81 1032.42 1032.91 1429.46 1404.36
4067.72 1085.23 1069.99 1461.25 1457.08
4070.63 1092.32 1069.46 1480.54 1455.34
4073.54 1030.84 1026.27 1424.24 1405.07
4076.46 955.637 1009.21 1310.44 1375.66
4079.37 1041.16 998.656 1392.3 1354.2
4082.28 999.169 1029.25 1359.86 1393.77
4085.19 1047.42 1034.82 1429.16 1410.75
4088.1 1057.88 1030.66 1443.22 1410.94
4091.01 986.672 1032.03 1360.45 1413.08
4093.92 1051.53 1009.3 1435.57 1393.7
4096.83 989.703 1010.05 1385.09 1387.29
4099.74 988.906 978.366 1341.2 1343.39
4102.65 956.488 986.203 1303.87 1345.19
4105.57 1013.21 992.486 1390.49 1357.17
4108.48 1007.76 1004.04 1377.15 1372.35
4111.39 991.137 1008.13 1349.4 1366.25
4114.3 1025.49 1022.21 1372.2 1385.15
4117.21 1050 1039.99 1433.84 1411.07
4120.12 1044.48 1065.67 1427.17 1454.83
4123.03 1102.51 1071.24 1503.49 1449.7
4125.94 1066.73 1099.64 1418.44 1485.61
4128.85 1129.67 1107.79 1534.91 1486.63
4131.76 1126.96 1101.76 1506.53 1496.29
4134.67 1048.65 1104.35 1447.43 1498.11
4137.58 1137.44 1113.24 1540.37 1515.59
4140.49 1153.61 1151.53 1558.96 1561.14
4143.4 1163.54 1157.25 1584.08 1564.96
4146.32 1154.6 1166.44 1551.86 1575.01
4149.23 1181.2 1180.49 1589.1 1583.92
4152.14 1205.68 1198.72 1610.81 1609.94
4155.05 1209.29 1188.52 1629.91 1598.35
4157.96 1150.57 1192.89 1554.32 1610.22
4160.87 1218.8 1193.07 1646.43 1616.71
4163.78 1209.85 1213.95 1649.38 1646.5
4166.69 1213.21 1209.79 1643.7 1637.99
4169.6 1206.31 1213.15 1620.88 1642.57
4172.51 1219.91 1230.66 1663.12 1656.99
4175.42 1265.76 1231.61 1686.98 1658.68
4178.33 1209.15 1225 1625.94 1650.58
4181.24 1200.08 1205.56 1638.8 1636.54
4184.15 1207.45 1210.06 1644.89 1636.4
4187.06 1222.65 1234.96 1625.5 1662.74
4189.97 1274.77 1262.34 1717.84 1694.52
4192.88 1289.61 1272.47 1740.22 1709.31
4195.79 1253.04 1275.95 1669.86 1710.96
4198.7 1285.2 1282.03 1722.8 1712.32
4201.61 1307.84 1283.7 1744.31 1731
4204.52 1258.04 1280.55 1725.89 1732.83
4207.43 1275.75 1255.77 1728.28 1709.21
4210.34 1233.51 1251.9 1673.47 1697.34
4213.25 1246.42 1259.96 1690.27 1715.88
4216.16 1299.94 1272.48 1783.92 1733.15
4219.07 1271.08 1289.93 1725.28 1760.23
4221.98 1298.77 1267.07 1771.5 1723.46
4224.89 1231.37 1277.37 1673.61 1732.66
4227.79 1301.95 1275.37 1752.86 1722.18
4230.7 1292.77 1300.55 1740.07 1751.15
4233.61 1306.93 1308.02 1760.52 1760.52
4236.52 1324.35 1294.07 1780.97 1741.17
4239.43 1250.92 1279.04 1682.03 1720.29
4242.34 1261.86 1253.88 1697.86 1693.19
4245.25 1248.86 1258.72 1699.69 1700.33
4248.16 1265.43 1285.86 1703.44 1734.75
4251.07 1343.28 1310 1801.12 1766.92
4253.98 1321.29 1326.33 1796.21 1790.17
4256.89 1314.43 1328.3 1773.19 1793.95
4259.8 1349.18 1328.76 1812.46 1792.15
4262.71 1322.69 1331.51 1790.82 1794.9
4265.61 1322.67 1334.79 1781.43 1799.57
4268.52 1359.01 1316.7 1826.46 1781.17
4271.43 1268.42 1339.91 1735.63 1810.59
4274.34 1392.31 1336.48 1869.69 1812.99
4277.25 1348.7 1370.9 1833.65 1850.34
4280.16 1371.69 1362.99 1847.68 1836.47
4283.07 1368.57 1379.5 1828.08 1849.39
4285.98 1398.25 1377.46 1872.39 1844.19
4288.89 1365.56 1380.64 1832.09 1849.7
4291.79 1378.12 1368.13 1844.61 1840.68
4294.7 1360.72 1367.22 1845.35 1845.93
4297.61 1362.82 1341.5 1847.83 1820.71
4300.52 1300.96 1361.16 1768.95 1836.23
4303.43 1419.7 1351.55 1891.9 1823.29
4306.34 1333.99 1369.9 1809.02 1838.64
4309.25 1356 1352.63 1815 1812.11
4312.15 1367.91 1358.44 1812.3 1808.31
4315.06 1351.42 1373.16 1797.64 1831.72
4317.97 1400.16 1360.19 1885.21 1825.97
4320.88 1329 1345.28 1795.06 1818.75
4323.79 1306.67 1311.97 1775.99 1778.58
4326.7 1300.23 1314.4 1764.68 1780.85
4329.6 1336.28 1302.25 1801.89 1754.81
4332.51 1270.22 1311.38 1697.86 1754.45
4335.42 1327.64 1263.32 1763.59 1694.49
4338.33 1192.09 1249.24 1622.02 1679.94
4341.24 1227.98 1183.47 1654.22 1608.08
4344.14 1130.33 1207.51 1547.99 1631.88
4347.05 1264.21 1219.11 1693.43 1645.86
4349.96 1262.78 1278.83 1696.17 1709.82
4352.87 1309.51 1279.83 1739.87 1719.6
4355.78 1267.2 1298.06 1722.76 1748.47
4358.68 1317.47 1295.34 1782.79 1751.47
4361.59 1301.35 1312.27 1748.88 1770.12
4364.5 1317.98 1336.87 1778.7 1797.47
4367.41 1391.28 1365.92 1864.85 1836.92
4370.31 1388.5 1379.33 1867.21 1862.2
4373.22 1358.22 1379.47 1854.54 1867.25
4376.13 1391.69 1400.84 1879.99 1901.54
4379.04 1452.61 1422.49 1970.09 1929.02
4381.94 1423.16 1428.39 1936.98 1935.78
4384.85 1409.4 1414.99 1900.26 1913.91
4387.76 1412.42 1414.12 1904.49 1908.46
4390.67 1420.54 1413.44 1920.65 1895.12
4393.57 1407.36 1414.64 1860.22 1897.48
4396.48 1416.01 1392.8 1911.58 1872.57
4399.39 1355.02 1398.39 1845.91 1893.06
4402.3 1424.14 1417.38 1921.68 1917.36
4405.2 1472.98 1447.03 1984.5 1951.85
4408.11 1443.97 1488.8 1949.37 2009.69
4411.02 1549.46 1470.83 2095.21 1988.39
4413.92 1419.06 1462.97 1920.59 1978.93
4416.83 1420.37 1408.83 1920.98 1907.77
4419.74 1387.04 1416.68 1881.74 1919.71
4422.64 1442.64 1416.31 1956.42 1920.09
4425.55 1419.27 1440.5 1922.1 1954.82
4428.46 1459.58 1454.52 1985.94 1961.02
4431.36 1484.71 1458.97 1975.03 1961.12
4434.27 1432.62 1434.84 1922.39 1924.3
4437.18 1387.19 1435.78 1875.48 1941.84
4440.08 1487.52 1443.7 2027.64 1960.62
4442.99 1456.4 1474.02 1978.73 1995.33
4445.9 1478.12 1475.77 1979.62 1995.06
4448.8 1492.8 1439.29 2026.82 1944.59
4451.71 1346.95 1437.37 1827.33 1949.7
4454.62 1472.35 1422.4 1994.96 1927.23
4457.52 1447.9 1464.85 1959.39 1978.98
4460.43 1474.29 1458.29 1982.6 1970.69
4463.34 1452.69 1475.95 1970.09 1993.23
4466.24 1500.87 1456.61 2027 1969.28
4469.15 1416.28 1484.1 1910.75 1997.71
4472.05 1535.17 1482.27 2055.37 1996.76
4474.96 1495.35 1503.79 2024.16 2029.12
4477.87 1480.86 1494.56 2007.82 2018.66
4480.77 1507.48 1515.47 2024 2043.36
4483.68 1558.09 1510.34 2098.25 2033.39
4486.58 1465.46 1484.81 1977.91 1998.22
4489.49 1430.88 1467.42 1918.5 1982.62
4492.39 1505.91 1494.93 2051.44 2028.57
4495.3 1548 1470.25 2115.78 2010.78
4498.21 1356.83 1460.96 1865.12 2001.48
4501.11 1478.05 1453.31 2023.53 1976.69
4504.02 1525.03 1499.36 2041.41 2025.4
4506.92 1495.01 1498.3 2011.27 2020.59
4509.83 1474.85 1491.17 2009.08 2018.04
4512.73 1503.66 1474.83 2033.77 1994.46
4515.64 1445.98 1484.2 1940.54 1997.21
4518.54 1502.95 1503.24 2017.33 2022.21
4521.45 1560.79 1507.16 2108.77 2035.99
4524.35 1457.73 1505.7 1981.88 2043.48
4527.26 1498.57 1487.89 2039.8 2019.53
4530.16 1507.37 1498.99 2036.92 2034.71
4533.07 1491.03 1500.29 2027.41 2035.66
4535.97 1502.47 1492.46 2042.64 2028.94
4538.88 1483.89 1505.71 2016.77 2044.73
4541.78 1530.78 1518.42 2074.77 2052.66
4544.69 1540.6 1525.7 2066.44 2055.94
4547.59 1505.73 1546.21 2026.61 2080.4
4550.5 1592.29 1549.24 2148.15 2083.31
4553.4 1549.71 1526.79 2075.18 2056.37
4556.31 1438.38 1483.69 1945.8 2001.62
4559.21 1462.97 1459.6 1983.88 1983.52
4562.12 1477.44 1497.81 2020.9 2029.64
4565.02 1553.02 1509.92 2084.15 2044.31
4567.93 1499.3 1516.72 2027.89 2040.97
4570.83 1497.83 1514.03 2010.89 2047.4
4573.74 1544.95 1516.1 2103.44 2055.1
4576.64 1505.51 1521.14 2050.97 2062.75
4579.54 1512.95 1487.6 2033.84 2008.59
4582.45 1444.32 1512.85 1940.97 2034.73
4585.35 1581.27 1508.12 2129.4 2017.54
4588.26 1498.76 1535.36 1982.25 2055.97
4591.16 1526.04 1526.39 2056.28 2042.25
4594.06 1554.37 1538.43 2088.21 2069.24
4596.97 1534.89 1542.34 2063.23 2073.45
4599.87 1537.76 1527.64 2068.92 2053.73
4602.78 1510.26 1533.46 2029.04 2071.17
4605.68 1552.37 1531.84 2115.54 2064.46
4608.58 1532.9 1564.38 2048.78 2106.57
4611.49 1607.88 1555.84 2155.4 2097.25
4614.39 1526.73 1556.3 2087.58 2107.43
4617.29 1534.29 1550.74 2079.32 2105.11
4620.2 1591.19 1567 2148.42 2118.97
4623.1 1575.53 1546.09 2129.18 2090.28
4626 1471.55 1533.77 1993.25 2072.29
4628.91 1554.24 1524.57 2094.44 2063.03
4631.81 1547.92 1511.72 2101.4 2045.4
4634.71 1433.02 1537.96 1940.35 2081.61
4637.62 1632.95 1545.36 2203.07 2083.13
4640.52 1570.13 1591.76 2105.96 2133.76
4643.42 1572.2 1557.4 2092.27 2092.21
4646.33 1529.87 1581.86 2078.41 2129.42
4649.23 1643.5 1592.59 2217.57 2154.1
4652.13 1604.41 1600.3 2166.32 2158.12
4655.04 1553 1579.96 2090.46 2130.24
4657.94 1582.49 1594.03 2133.92 2148.94
4660.84 1646.59 1606.01 2222.44 2164.67
4663.74 1588.93 1597.14 2137.66 2164.88
4666.65 1555.9 1573.74 2134.54 2138.39
4669.55 1576.38 1582.37 2142.97 2157.09
4672.45 1614.83 1593.77 2193.74 2159.87
4675.35 1590.1 1603.25 2142.9 2164.06
4678.26 1604.82 1601.34 2155.54 2162.15
4681.16 1609.1 1579.94 2188.01 2134.2
4684.06 1525.92 1560.49 2059.06 2117.3
4686.96 1546.44 1549.73 2104.83 2102.89
4689.87 1576.84 1570.95 2144.77 2133.86
4692.77 1589.56 1566.82 2151.97 2121.69
4695.67 1534.06 1567.37 2068.34 2118.14
4698.57 1578.49 1568.52 2134.12 2124.05
4701.47 1593.02 1599.63 2169.69 2164.87
4704.38 1627.37 1593.49 2190.81 2163.84
4707.28 1560.09 1608.53 2131.02 2171.88
4710.18 1638.13 1581.46 2193.81 2140.32
4713.08 1546.15 1601.7 2096.15 2154.67
4715.98 1620.82 1580.88 2174.05 2136.8
4718.88 1575.66 1607.02 2140.2 2172.87
4721.79 1624.58 1588.83 2204.37 2162.56
4724.69 1566.26 1593.55 2143.1 2166.68
4727.59 1589.81 1567 2152.56 2122.28
4730.49 1544.94 1586.08 2071.17 2137.86
4733.39 1623.5 1587.29 2189.85 2139.83
4736.29 1593.45 1588.18 2158.47 2150.28
4739.19 1547.6 1567.31 2102.53 2122.31
4742.09 1560.89 1548 2105.92 2091.17
4745 1535.52 1546.73 2065.06 2084.88
4747.9 1543.78 1535.44 2083.66 2079.21
4750.8 1527.01 1521.16 2088.91 2071.41
4753.7 1492.68 1537.27 2041.67 2100.31
4756.6 1592.12 1553.95 2170.35 2112.68
4759.5 1577.05 1571.89 2126.03 2134.34
4762.4 1546.49 1580.53 2106.65 2142.41
4765.3 1618.06 1571.72 2194.56 2127.51
4768.2 1550.6 1596.21 2081.31 2157.7
4771.1 1619.96 1574.94 2197.24 2123.38
4774 1554.26 1559.48 2091.59 2116.73
4776.9 1504.23 1537.72 2061.37 2091.97
4779.8 1554.66 1530.74 2122.96 2081.94
4782.7 1533.33 1563.3 2061.49 2122.2
4785.6 1601.93 1549.76 2182.16 2106.29
4788.5 1514.04 1543.82 2075.22 2100.97
4791.4 1515.5 1521.58 2045.53 2071.05
4794.31 1535.21 1525.37 2092.41 2070.95
4797.2 1525.39 1527.94 2074.92 2079.5
4800.1 1523.21 1505.56 2071.17 2043.24
4803 1468.07 1496.26 1983.62 2019.18
4805.9 1497.51 1485.77 2002.74 2010.66
4808.8 1491.73 1504.4 2045.61 2042.46
4811.7 1523.98 1501.79 2079.03 2046.75
4814.6 1489.67 1528.42 2015.61 2065.53
4817.5 1571.6 1526.64 2101.96 2052.47
4820.4 1518.64 1535.17 2039.85 2063.44
4823.3 1515.28 1550.77 2048.5 2078.61
4826.2 1618.38 1579.51 2147.47 2108.85
4829.1 1604.88 1568.71 2130.56 2087.72
4832 1482.88 1516.6 1985.13 2033.99
4834.9 1462.03 1469.66 1986.27 1986.99
4837.8 1464.08 1476.88 1989.58 2007.6
4840.7 1504.52 1479.63 2046.96 2005.89
4843.6 1470.31 1475.2 1981.14 1998.21
4846.5 1450.77 1452.95 1966.54 1971.14
4849.39 1437.78 1423.04 1965.73 1935.07
4852.29 1380.57 1390.81 1872.93 1889.87
4855.19 1354.08 1345.51 1830.96 1828.11
4858.09 1301.89 1301.15 1780.45 1769.43
4860.99 1247.47 1263.92 1696.87 1718.18
4863.89 1242.4 1272.51 1677.23 1722.97
4866.79 1327.66 1313.38 1794.82 1767.56
4869.68 1370.08 1357.47 1830.64 1822.24
4872.58 1374.68 1385.8 1841.26 1849.52
4875.48 1412.66 1386.76 1876.66 1857.38
4878.38 1372.93 1416.82 1854.23 1900.53
4881.28 1464.87 1424.61 1970.71 1925.32
4884.18 1436.01 1430.36 1951.02 1932.82
4887.07 1390.2 1432.08 1876.72 1932.59
4889.97 1470.03 1412.57 1970.04 1907.86
4892.87 1377.48 1446.63 1876.83 1943.72
4895.77 1492.38 1448.69 1984.28 1952.45
4898.66 1476.22 1492.08 1996.24 2001.24
4901.56 1507.64 1480.51 2023.22 1992.99
4904.46 1457.69 1494.95 1959.5 2010.3
4907.36 1519.51 1480.52 2048.19 1992.53
4910.25 1464.36 1503.34 1969.9 2018.08
4913.15 1526.13 1499.51 2036.14 2016.51
4916.05 1508.03 1512.23 2043.49 2034.8
4918.95 1502.51 1525.86 2024.75 2051.9
4921.84 1567.04 1512.34 2087.45 2017.14
4924.74 1467.46 1514.44 1939.21 2022.5
4927.64 1508.82 1504.2 2040.84 2004.47
4930.54 1536.31 1523.22 2033.37 2036.51
4933.43 1524.54 1530.76 2035.32 2036.91
4936.33 1531.41 1537.69 2042.04 2042.71
4939.23 1557.11 1542.67 2050.77 2038.96
4942.12 1539.48 1544.45 2024.09 2035.88
4945.02 1536.75 1559.11 2032.8 2075.24
4947.92 1601.1 1567.71 2168.85 2108.39
4950.81 1565.27 1560.08 2123.54 2110.57
4953.71 1513.86 1527.06 2039.34 2053.38
4956.61 1502.04 1516.01 1997.26 2026.38
4959.5 1532.14 1530.27 2042.53 2050.83
4962.4 1556.63 1528.79 2112.69 2049.98
4965.29 1497.59 1503.11 1994.71 2004.63
4968.19 1455.12 1484.84 1906.48 1975.09
4971.09 1501.81 1509.87 2024.09 2006.8
4973.98 1572.69 1561.46 2089.84 2077.37
4976.88 1609.87 1579.71 2118.2 2097.24
4979.77 1556.56 1567.41 2083.67 2085.01
4982.67 1535.79 1560.97 2053.16 2090.92
4985.57 1590.56 1556.33 2135.93 2078.86
4988.46 1542.64 1566.18 2047.49 2092.47
4991.36 1565.35 1560.45 2093.98 2069.01
4994.25 1573.37 1591.46 2065.57 2112.61
4997.15 1635.68 1590.75 2178.27 2105.71
5000.04 1563.21 1593.29 2073.29 2119.71
5002.94 1580.99 1541.19 2107.56 2070.6
5005.83 1479.38 1539.44 2030.94 2060.72
5008.73 1557.93 1551.26 2043.66 2068.71
5011.62 1616.47 1586.91 2131.54 2101.74
5014.52 1586.32 1590.05 2130.01 2112.92
5017.41 1567.37 1586.58 2077.2 2114.11
5020.31 1606.05 1583.13 2135.13 2106.31
5023.2 1575.97 1584.56 2106.6 2103.95
5026.1 1571.67 1549.46 2070.13 2058.83
5028.99 1500.73 1537.59 1999.77 2039.22
5031.89 1540.38 1543.63 2047.76 2060.42
5034.78 1589.8 1539.02 2133.73 2063.53
5037.68 1486.88 1552.62 2009.11 2077.4
5040.57 1581.18 1538.39 2089.35 2055.35
5043.46 1547.12 1563.49 2067.57 2079.04
5046.36 1562.18 1565.59 2080.2 2086.09
5049.25 1587.46 1590.97 2110.5 2113.92
5052.15 1623.28 1565.85 2151.06 2070.85
5055.04 1486.82 1590.4 1950.98 2097.59
5057.93 1661.1 1568.08 2190.72 2068.62
5060.83 1556.33 1593.99 2064.15 2098.46
5063.72 1564.53 1570.98 2040.52 2074.11
5066.62 1592.06 1573.6 2117.68 2082.84
5069.51 1564.2 1597.14 2090.33 2126.13
5072.4 1635.16 1584.03 2170.39 2110.31
5075.3 1552.73 1579.27 2070.21 2094.26
5078.19 1549.92 1581.04 2042.19 2096.46
5081.08 1640.48 1561.07 2176.98 2070.51
5083.98 1492.8 1573.85 1992.36 2089.97
5086.87 1588.27 1554.78 2100.58 2073.42
5089.76 1583.29 1559.15 2127.32 2096.83
5092.65 1505.9 1541.69 2062.59 2091.09
5095.55 1535.89 1544.43 2083.37 2079.09
5098.44 1591.51 1551.76 2091.31 2064.84
5101.33 1527.88 1545.86 2019.83 2039.5
5104.23 1518.2 1519.72 2007.36 2017.18
5107.12 1513.09 1541.8 2024.35 2048.85
5110.01 1594.12 1533.02 2114.85 2037.8
5112.9 1491.86 1534.31 1974.19 2052.83
5115.8 1516.95 1534.27 2069.46 2058.12
5118.69 1594 1527.63 2130.7 2058.95
5121.58 1471.95 1524.71 1976.69 2039.08
5124.47 1508.17 1518.18 2009.84 2025.2
5127.36 1574.42 1547.9 2089.06 2050.76
5130.26 1561.11 1534.82 2053.38 2036.95
5133.15 1468.92 1515.25 1968.4 2015.11
5136.04 1515.7 1505.17 2023.55 2010.42
5138.93 1530.89 1522.61 2039.32 2023.9
5141.82 1521.25 1531.28 2008.83 2037.85
5144.72 1541.7 1501.18 2065.39 1995.91
5147.61 1440.59 1482 1913.51 1971.32
5150.5 1463.7 1499.24 1935.06 1980.84
5153.39 1593.42 1524.18 2093.96 2017.13
5156.28 1515.42 1553.21 2022.36 2055.34
5159.17 1550.79 1521.5 2049.7 2025.14
5162.06 1498.28 1557.31 2003.36 2063.9
5164.95 1622.87 1535.16 2138.64 2043.05
5167.85 1484.32 1527.37 1987.14 2028.55
5170.74 1474.93 1497.58 1959.85 1993.9
5173.63 1533.51 1511.85 2034.71 2014.09
5176.52 1527.11 1521.87 2047.7 2033.96
5179.41 1504.99 1519.08 2019.47 2034.63
5182.3 1525.15 1517.89 2036.74 2025.55
5185.19 1523.54 1519.05 2020.45 2025
5188.08 1508.47 1512.67 2017.82 2010.48
5190.97 1506.01 1497.1 1993.16 1983.6
5193.86 1476.82 1503.53 1939.81 1980.28
5196.75 1527.78 1507.96 2007.86 1989.37
5199.64 1519.3 1512.85 2020.45 2008.58
5202.53 1491.48 1510.95 1997.44 2017.57
5205.42 1522.06 1510.84 2034.82 2015.71
5208.31 1518.99 1505.23 2014.86 1997.76
5211.2 1474.64 1516.49 1943.61 2002.07
5214.09 1555.84 1497.05 2047.75 1978.18
5216.98 1460.67 1519.43 1943.18 2012.69
5219.87 1541.78 1496.05 2047.15 1987.37
5222.76 1485.7 1523.91 1971.78 2026.45
5225.65 1544.24 1507.7 2060.42 2005.84
5228.54 1493.15 1516.22 1985.33 2017.8
5231.43 1511.27 1499.44 2007.66 1992.43
5234.32 1493.89 1483.34 1984.31 1975.74
5237.2 1444.85 1489.14 1935.26 1973.55
5240.09 1528.67 1503.38 2001.08 1993.71
5242.98 1536.62 1511.98 2044.79 2009.2
5245.87 1470.66 1496.96 1981.74 1996.15
5248.76 1483.59 1456.83 1961.91 1945.51
5251.65 1416.24 1460.4 1892.88 1931.62
5254.54 1481.37 1451.43 1940.06 1930.01
5257.42 1456.67 1463.62 1957.09 1949.7
5260.31 1452.83 1347.18 1951.94 1965.25
5263.2 1132.04 1245.87 1986.71 1977.3
5266.09 1152.74 1135.5 1993.24 1982.8
5268.98 1121.74 1121.71 1968.44 1974.12
5271.87 1090.66 1108.38 1960.67 1955.3
5274.75 1112.75 1108.6 1936.8 1956.6
5277.64 1122.39 1135.49 1972.31 1973.25
5280.53 1171.33 1132.16 2010.65 1970.06
5283.42 1102.77 1123.31 1927.21 1949.13
5286.3 1095.84 1088.27 1909.54 1902.88
5289.19 1066.19 1111.18 1871.89 1938.25
5292.08 1171.51 1110.86 2033.32 1936.33
5294.97 1094.87 1120.28 1903.77 1947.66
5297.85 1094.46 1125.65 1905.89 1937.15
5300.74 1187.63 1133.42 2001.78 1941.85
5303.63 1118.18 1155.17 1917.88 1955.03
5306.52 1159.7 1128.69 1945.42 1906.7
5309.4 1108.19 1137.34 1856.8 1924.72
5312.29 1144.11 1125.33 1971.94 1929.45
5315.18 1123.69 1122.35 1959.62 1936.33
5318.06 1099.25 1112.95 1877.43 1913.31
5320.95 1115.89 1095.51 1902.86 1876.85
5323.84 1071.38 1096.01 1850.25 1874.54
5326.72 1100.77 1103.63 1870.5 1880.8
5329.61 1138.74 1120.88 1921.64 1907.33
5332.49 1123.12 1117.57 1929.87 1896.98
5335.38 1090.86 1092.8 1839.42 1867.04
5338.27 1064.42 1068.85 1831.84 1832.91
5341.15 1051.27 1080.52 1827.47 1856.69
5344.04 1125.87 1104.68 1910.76 1888.67
5346.92 1136.89 1119.13 1927.78 1895.61
5349.81 1094.64 1129.99 1848.29 1921.73
5352.7 1158.46 1129.09 1989.11 1917.78
5355.58 1134.16 1136.3 1915.94 1929.15
5358.47 1116.27 1108.31 1882.41 1901.64
5361.35 1074.5 1121.51 1906.58 1915.56
5364.24 1173.78 1115.79 1957.71 1907.28
5367.12 1099.1 1141.43 1857.55 1906.51
5370.01 1151.42 1114.81 1904.27 1875.34
5372.89 1093.9 1136.98 1864.19 1906.64
5375.78 1165.63 1119.64 1951.45 1884.26
5378.66 1099.39 1141.32 1837.15 1911.6
5381.55 1158.94 1135.2 1946.21 1909.38
5384.43 1147.26 1138.64 1944.79 1934.17
5387.32 1109.73 1131.61 1911.52 1918.53
5390.2 1137.82 1127.72 1899.27 1900.59
5393.08 1135.61 1135.5 1890.97 1870.41
5395.97 1133.08 1140.08 1821 1865.67
5398.85 1151.57 1119.07 1885.03 1835.8
5401.74 1072.56 1110.69 1801.36 1857.96
5404.62 1107.95 1091.62 1887.49 1836.42
5407.51 1094.35 1101.85 1820.42 1853.95
5410.39 1103.24 1111.21 1853.93 1871.14
5413.27 1136.03 1132.05 1939.07 1900.96
5416.16 1156.89 1155.62 1909.88 1932.21
5419.04 1173.94 1140.48 1947.7 1888.28
5421.92 1090.6 1113.62 1807.26 1846.98
5424.81 1076.32 1117.08 1785.98 1830.1
5427.69 1184.31 1132.48 1897.05 1849.25
5430.57 1136.82 1141.66 1864.7 1861.72
5433.46 1103.85 1120.5 1823.41 1849.11
5436.34 1120.83 1121.98 1859.21 1844.87
5439.22 1141.25 1141.88 1851.97 1863.67
5442.1 1163.56 1136.42 1879.82 1857.17
5444.99 1104.46 1141.92 1839.73 1865.54
5447.87 1157.75 1143.07 1877.07 1863.42
5450.75 1167.02 1148.63 1873.45 1867.38
5453.64 1121.13 1141.27 1851.61 1858.48
5456.52 1135.66 1121.34 1850.39 1835.84
5459.4 1107.22 1126.1 1805.51 1839.62
5462.28 1135.42 1130.1 1862.97 1841.57
5465.16 1147.67 1131.73 1856.25 1840.94
5468.05 1112.11 1128.87 1803.6 1819.23
5470.93 1126.84 1124.14 1797.84 1810.97
5473.81 1133.47 1127.27 1831.47 1812.77
5476.69 1121.5 1132.52 1809 1829.01
5479.57 1142.59 1145.1 1846.56 1846.2
5482.45 1171.22 1158.16 1883.05 1844.5
5485.34 1160.68 1163.32 1803.9 1853.49
5488.22 1158.07 1157.66 1873.52 1843.97
5491.1 1154.25 1162.95 1854.49 1871.71
5493.98 1176.52 1153.3 1887.11 1854.19
5496.86 1129.11 1144.31 1820.95 1838.96
5499.74 1127.29 1136.46 1808.8 1825.42
5502.62 1152.99 1120.8 1846.51 1809.05
5505.5 1082.12 1145.25 1771.84 1833.55
5508.38 1200.65 1144.74 1882.31 1811.97
5511.26 1151.44 1164.06 1781.77 1841.68
5514.14 1140.1 1127.07 1860.96 1796.62
5517.02 1089.67 1138.51 1747.13 1825.27
5519.91 1185.77 1126.52 1867.73 1791.77
5522.79 1104.12 1121.87 1760.45 1790.71
5525.67 1075.72 1113.67 1743.95 1778.63
5528.55 1161.19 1138.66 1831.5 1807.65
5531.43 1179.07 1141.55 1847.51 1799.59
5534.3 1084.38 1126.11 1719.76 1778.94
5537.18 1114.88 1126.22 1769.55 1793.9
5540.06 1179.4 1166.16 1892.38 1845.04
5542.94 1204.19 1158.31 1873.19 1824.47
5545.82 1091.34 1133.52 1707.84 1776.66
5548.7 1105.02 1097.58 1748.94 1724.25
5551.58 1096.36 1104.37 1715.97 1737.5
5554.46 1111.74 1112.51 1747.57 1751.97
5557.34 1129.42 1110.16 1792.36 1779.39
5560.22 1089.31 1111.36 1798.25 1786.4
5563.1 1115.33 1115.51 1768.6 1784.64
5565.98 1141.88 1172.9 1787.07 1841.26
5568.85 1261.47 1159.59 1968.11 1787.07
5571.73 1075.41 1173.91 1606.04 1799.28
5574.61 1184.84 1111.31 1823.68 1705.3
5577.49 1073.7 1131.09 1686.18 1805.38
5580.37 1134.74 1129.26 1906.29 1799.93
5583.25 1179.33 1159.35 1807.33 1868.74
5586.12 1163.98 1164.88 1892.61 1835.62
5589 1151.34 1117.44 1806.92 1796.01
5591.88 1037 1116.68 1688.5 1767.78
5594.76 1161.71 1105.37 1807.91 1740.11
5597.64 1117.4 1139.48 1723.9 1768.63
5600.51 1139.32 1121.9 1774.07 1728.7
5603.39 1108.96 1137.67 1688.13 1744.81
5606.27 1164.74 1111.79 1772.23 1718.66
5609.14 1061.68 1128.58 1695.63 1741.94
5612.02 1159.31 1121.73 1757.97 1734.89
5614.9 1144.21 1156.92 1751.06 1757.76
5617.78 1167.25 1138.93 1764.25 1731.53
5620.65 1105.33 1135.38 1679.28 1717.6
5623.53 1133.56 1119.77 1709.25 1714.91
5626.41 1120.42 1115.38 1756.19 1726.24
5629.28 1092.15 1112.67 1713.29 1726.82
5632.16 1125.46 1123.74 1710.98 1736.03
5635.03 1153.63 1104.3 1783.82 1707.38
5637.91 1033.82 1086.2 1627.33 1692.34
5640.79 1071.15 1066.79 1665.88 1664.3
5643.66 1095.38 1100.34 1699.7 1690.29
5646.54 1134.49 1108.57 1705.3 1705.13
5649.41 1095.83 1094.36 1710.4 1690.69
5652.29 1052.77 1084.49 1656.37 1681.02
5655.17 1104.88 1074.93 1676.29 1663.68
5658.04 1067.16 1103.18 1658.38 1668.9
5660.92 1137.5 1103.39 1672.03 1671.05
5663.79 1105.5 1141.24 1682.74 1719.69
5666.67 1180.71 1122.4 1804.31 1719.42
5669.54 1080.98 1126.58 1671.2 1712.19
5672.42 1118.06 1107.62 1661.04 1679.89
5675.29 1123.81 1109.51 1707.42 1675
5678.17 1086.66 1108.88 1656.55 1687.46
5681.04 1116.18 1099.16 1698.41 1668.18
5683.92 1094.66 1109.8 1649.58 1676.24
5686.79 1118.56 1104.89 1680.73 1658.36
5689.66 1101.46 1107.98 1644.76 1663.11
5692.54 1103.93 1092.12 1663.84 1654.61
5695.41 1070.97 1090.59 1655.24 1669.37
5698.29 1096.86 1076.47 1689.04 1658.87
5701.16 1061.58 1050.74 1632.35 1610.96
5704.03 993.772 1050.73 1511.49 1597.64
5706.91 1096.84 1062.06 1649.07 1600.67
5709.78 1095.57 1086.39 1641.45 1636.38
5712.66 1066.75 1099.65 1618.62 1643.78
5715.53 1136.62 1110.17 1671.28 1653.09
5718.4 1127.14 1110.33 1669.38 1634.72
5721.28 1067.24 1099.02 1563.49 1624.35
5724.15 1102.69 1082.32 1640.18 1597
5727.02 1077.03 1099.95 1587.34 1629.73
5729.89 1120.13 1097.02 1661.67 1631.02
5732.77 1093.9 1091.51 1644.06 1625.3
5735.64 1060.49 1068.26 1570.16 1576.92
5738.51 1050.39 1064.54 1516.53 1564.99
5741.38 1082.75 1076.04 1608.29 1572.57
5744.26 1094.99 1078.57 1592.88 1603.51
5747.13 1057.96 1081.19 1609.35 1604.3
5750 1090.63 1073.53 1610.68 1596.99
5752.87 1072 1059.77 1570.94 1559.43
5755.75 1016.69 1077.3 1496.68 1583.65
5758.62 1143.22 1053.9 1683.34 1565.53
5761.49 1001.8 1073.62 1516.58 1600.96
5764.36 1075.84 1023.02 1602.96 1522.57
5767.23 991.414 1041.97 1448.16 1558.28
5770.1 1058.66 1035.46 1623.72 1538.38
5772.97 1056.29 1072.93 1543.26 1593.51
5775.85 1103.83 1060.94 1613.56 1562.46
5778.72 1022.71 1060.44 1530.58 1553.43
5781.59 1054.78 1044.12 1516.17 1533.73
5784.46 1054.85 1037.54 1554.45 1508.36
5787.33 1003 1039.46 1454.45 1522.79
5790.2 1060.52 1037.43 1559.47 1520.31
5793.07 1048.77 1036.46 1547 1539.41
5795.94 1000.08 1026.4 1511.77 1516.01
5798.81 1030.35 1015.13 1489.26 1503.8
5801.68 1014.97 1018.74 1510.37 1486.31
5804.55 1010.91 1001.61 1459.3 1466.78
5807.42 978.968 1005.63 1430.66 1477.99
5810.29 1027.03 1019.48 1544.01 1491.23
5813.16 1052.46 1031.84 1499.03 1516.73
5816.03 1016.03 1040.3 1507.14 1519.25
5818.9 1052.42 1041.59 1551.59 1526.39
5821.77 1056.32 1064.27 1520.44 1564.77
5824.64 1084.08 1070.58 1622.29 1560.96
5827.51 1071.36 1060.17 1540.16 1548.67
5830.38 1025.08 1040.44 1483.56 1512.38
5833.24 1024.89 1021.92 1513.44 1501.46
5836.11 1015.79 1020.54 1507.4 1492.19
5838.98 1020.92 1029.98 1455.75 1500.08
5841.85 1053.22 1048.11 1537.09 1509.01
5844.72 1070.2 1056.44 1534.19 1526.85
5847.59 1045.91 1047 1509.26 1504.45
5850.46 1024.89 1048.17 1469.91 1502.87
5853.32 1073.71 1052.3 1529.44 1503.03
5856.19 1058.29 1042.22 1509.73 1493.17
5859.06 994.665 1038.35 1440.33 1477.93
5861.93 1062.08 1041.83 1483.72 1493.3
5864.8 1068.74 1053.37 1555.85 1523.82
5867.66 1029.29 1058.67 1531.9 1554.53
5870.53 1077.97 1054.09 1575.83 1543.58
5873.4 1055.01 1061.67 1523.02 1545.16
5876.27 1052.03 1033.64 1536.62 1484.65
5879.13 993.894 1025.75 1394.32 1483.72
5882 1031.31 1024.12 1520.21 1461.16
5884.87 1047.16 1022.77 1468.94 1465.54
5887.73 989.833 1013.67 1407.47 1407.8
5890.6 1004.02 985.531 1346.99 1378.22
5893.47 962.743 998.78 1380.19 1365.58
5896.33 1029.58 980.868 1369.56 1369.5
5899.2 950.279 992.35 1358.76 1383.56
5902.07 997.19 997.512 1422.37 1415.03
5904.93 1045.07 1014.07 1463.97 1435.65
5907.8 999.938 1005.49 1420.62 1420.45
5910.66 971.456 996.224 1376.75 1415.94
5913.53 1017.28 997.868 1450.45 1402.99
5916.39 1004.87 1014.37 1381.76 1426.66
5919.26 1020.97 1017.02 1447.77 1420.1
5922.13 1025.22 1022.05 1430.77 1431.82
5924.99 1019.97 1032.23 1416.91 1440.56
5927.86 1051.49 1034.89 1474.01 1452.11
5930.72 1033.21 1026.95 1465.41 1450.03
5933.59 996.148 1024.16 1410.66 1435.71
5936.45 1043.12 1006.78 1431.05 1407.64
5939.32 981.069 1023.67 1381.23 1433.56
5942.18 1046.84 994.881 1488.42 1413.11
5945.04 956.737 1011.06 1369.68 1429.62
5947.91 1029.61 998.617 1430.77 1398.57
5950.77 1009.51 1019.81 1395.25 1419.76
5953.64 1020.32 1008.52 1433.26 1402.4
5956.5 995.733 987.366 1378.69 1373.12
5959.36 946.039 974.812 1307.41 1342.25
5962.23 982.662 998.664 1340.65 1354.02
5965.09 1067.29 1005.48 1414 1353.72
5967.96 966.494 994.61 1306.51 1346.21
5970.82 950.045 977.975 1318.13 1347.42
5973.68 1017.38 997.772 1417.61 1392.74
5976.55 1025.89 1019.02 1442.48 1425.31
5979.41 1013.78 988.751 1415.85 1388.33
5982.27 926.584 983.685 1306.65 1369.18
5985.13 1010.69 967.636 1385.04 1325.4
5988 965.635 997.154 1284.52 1352.93
5990.86 1015.14 988.362 1389.24 1341.11
5993.72 984.313 1014.29 1349.59 1383.91
5996.58 1043.41 1008.11 1412.9 1377.7
5999.45 996.6 1012.67 1370.62 1379.84
6002.31 997.999 978.183 1356.01 1323.73
6005.17 939.951 977.82 1244.56 1328.46
6008.03 995.508 999.64 1384.81 1356.31
6010.89 1063.46 997.503 1439.56 1382.48
6013.76 933.54 975.293 1323.08 1344.5
6016.62 928.875 938.886 1270.88 1310.76
6019.48 954.241 958.512 1338.32 1318.02
6022.34 992.42 959.81 1344.85 1317.29
6025.2 932.768 965.877 1268.7 1308.13
6028.06 972.443 937.776 1310.84 1279.94
6030.92 908.118 940.318 1260.28 1280.91
6033.78 940.393 935.751 1271.6 1273.93
6036.64 958.743 965.804 1289.9 1304.97
6039.5 998.274 966.315 1353.41 1304.69
6042.36 941.929 962.607 1270.75 1298.62
6045.23 947.619 942.431 1271.71 1281.1
6048.09 937.745 946.619 1300.84 1274.99
6050.95 954.492 962.222 1252.41 1296.08
6053.81 994.43 981.878 1334.97 1319.74
6056.67 996.712 980.665 1371.83 1327.32
6059.52 950.853 971.986 1275.17 1307.39
6062.38 968.394 956.73 1275.17 1276.84
6065.24 950.943 985.616 1280.19 1322.83
6068.1 1037.51 980.978 1413.12 1331.59
6070.96 954.479 980.361 1301.47 1334.23
6073.82 949.092 945.205 1288.09 1291.39
6076.68 932.045 947.669 1284.62 1299.61
6079.54 961.87 952.118 1326.13 1309.03
6082.4 962.441 972.728 1316.35 1330.9
6085.26 993.872 990.75 1350.23 1332.7
6088.11 1015.94 977.969 1331.53 1327.11
6090.97 924.096 947.104 1299.55 1297.67
6093.83 901.279 913.694 1261.94 1269.78
6096.69 915.707 923.849 1247.85 1269.9
6099.55 954.561 939.628 1299.91 1280.55
6102.4 948.618 949.039 1293.87 1266.68
6105.26 943.939 941.108 1206.24 1248.81
6108.12 930.766 928.25 1246.31 1229.28
6110.98 910.045 929.315 1235.3 1251.81
6113.83 947.135 946.809 1273.82 1286.66
6116.69 983.247 963.921 1350.87 1303.28
6119.55 961.381 963.749 1285.15 1287.86
6122.41 946.621 962.391 1227.55 1254.98
6125.26 979.172 958.081 1252.25 1231.86
6128.12 948.452 1003.84 1215.77 1274.66
6130.98 1083.89 2066.41 1355.95 2395.14
6133.83 4166.88 2124.8 4613.7 2460.51
6136.69 1123.63 2076.23 1411.87 2417.3
6139.54 938.182 987.492 1226.32 1292.29
6142.4 900.668 926.025 1238.68 1228.3
6145.26 939.225 925.853 1219.9 1231.85
6148.11 937.667 924.241 1236.98 1202.86
6150.97 895.831 919.327 1151.7 1196.51
6153.82 924.484 914.266 1200.86 1183.34
6156.68 922.485 928.293 1197.47 1219.48
6159.53 937.912 922.32 1260.12 1217.88
6162.39 906.564 912.921 1196.05 1199.19
6165.24 894.288 897.374 1141.41 1161.25
6168.1 891.271 901.348 1146.29 1162.08
6170.95 918.485 931.042 1198.53 1209.93
6173.81 983.37 925.562 1284.98 1208.76
6176.66 874.83 943.419 1142.76 1225.71
6179.52 972.057 927.998 1249.4 1211.95
6182.37 937.108 938.581 1243.69 1215.69
6185.23 906.579 912.333 1153.98 1188.33
6188.08 893.311 925.276 1167.32 1189.67
6190.93 975.937 921.82 1247.69 1198.38
6193.79 896.21 925.144 1180.12 1214.77
6196.64 903.286 899.999 1216.49 1189.81
6199.49 900.501 916.182 1172.82 1201.61
6202.35 944.76 912.344 1215.51 1179.36
6205.2 891.77 916.991 1149.75 1190.14
6208.05 914.442 899.873 1205.17 1170.89
6210.91 893.407 894.914 1157.74 1169.77
6213.76 876.891 883.596 1146.4 1142.57
6216.61 880.489 877.013 1123.56 1130.04
6219.46 873.66 893.1 1120.18 1141.77
6222.32 925.153 902.021 1181.58 1170.46
6225.17 907.251 901.438 1209.62 1170.57
6228.02 871.909 893.859 1120.49 1149.54
6230.87 902.416 885.403 1118.5 1112.33
6233.73 881.884 915.297 1098 1134.28
6236.58 961.59 917.946 1186.36 1159.78
6239.43 910.364 938.069 1194.98 1178.84
6242.28 942.253 925.962 1155.19 1186.3
6245.13 925.269 907.152 1208.71 1150.22
6247.98 853.936 879.694 1086.77 1139.93
6250.83 859.878 863.879 1124.31 1108.74
6253.68 877.823 882.045 1115.15 1109.76
6256.54 908.434 893.415 1089.83 1122.93
6259.39 893.989 887 1163.81 1119.08
6262.24 858.575 875.255 1103.59 1118.05
6265.09 873.201 856.784 1086.76 1080.58
6267.94 838.576 862.501 1051.4 1074.82
6270.79 875.726 845.875 1086.29 1063.65
6273.64 823.322 843.155 1053.25 1071.48
6276.49 830.418 828.609 1074.9 1053.84
6279.34 832.086 825.349 1033.37 1039.84
6282.19 813.542 830.073 1011.25 1028.38
6285.04 844.592 814.697 1040.53 1016.38
6287.89 785.959 829.804 997.355 1044.74
6290.73 858.862 827.046 1096.32 1041.2
6293.58 836.317 840.015 1029.93 1038.16
6296.43 824.866 854.62 988.218 1037.44
6299.28 902.678 870.174 1094.18 1044.18
6302.13 882.977 870.156 1050.14 1043.45
6304.98 824.811 866.615 986.02 1038.83
6307.83 892.056 850.559 1080.33 1040.77
6310.68 834.809 872.43 1055.97 1090.35
6313.52 890.426 866.356 1134.75 1086.63
6316.37 873.832 876.839 1069.17 1089.19
6319.22 866.258 852.575 1063.66 1057.5
6322.07 817.636 854.012 1039.67 1066.21
6324.91 878.142 872.646 1095.31 1092.48
6327.76 922.161 882.237 1142.47 1110.8
6330.61 846.407 835.606 1094.63 1151.48
6333.46 738.252 738.782 1217.35 1119
6336.3 631.688 669.839 1045.01 1082.7
6339.15 639.577 654.377 985.737 1037.48
6342 691.867 665.969 1081.69 1040.57
6344.84 666.463 669.395 1054.29 1063.74
6347.69 649.855 681.986 1055.22 1064.81
6350.54 729.641 677.986 1084.91 1063.35
6353.38 654.464 686.434 1049.93 1056.75
6356.23 675.196 672.032 1035.41 1054.94
6359.08 686.436 690.322 1079.49 1080.29
6361.92 709.335 680.617 1125.97 1073.5
6364.77 646.081 664.446 1015.03 1047.35
6367.61 637.921 645.467 1001.05 1002.53
6370.46 652.399 651.658 991.525 1017.1
6373.3 664.654 663.192 1058.72 1034.13
6376.15 672.524 677.046 1052.14 1051.48
6378.99 693.962 661.102 1043.56 1034.7
6381.84 616.82 653.508 1008.4 1015.45
6384.68 649.741 624.457 994.391 995.181
6387.53 606.81 628.313 982.748 990.973
6390.37 628.387 631.245 995.781 1003.01
6393.22 658.537 652.58 1030.49 1009.49
6396.06 670.814 658.555 1002.2 998.859
6398.9 646.313 664.871 963.893 1013.9
6401.75 677.484 660.044 1075.61 1018.9
6404.59 656.336 671.137 1017.19 1043.44
6407.43 679.59 672.382 1037.51 1031.78
6410.28 681.221 664.376 1040.65 1011.78
6413.12 632.316 664.469 957.176 986.082
6415.96 679.871 658.225 960.421 973.578
6418.81 662.489 678.767 1003.14 1003.58
6421.65 693.942 674.039 1047.2 1023.8
6424.49 665.685 667.328 1021.06 996.046
6427.34 642.358 657.668 919.885 976.798
6430.18 664.961 663.748 989.453 958.642
6433.02 683.923 662.189 966.589 982.571
6435.86 637.682 650.389 991.672 977.381
6438.7 629.562 635.09 973.881 972.895
6441.55 638.026 649.702 953.131 962.936
6444.39 681.519 670.239 961.796 955.282
6447.23 691.174 684.615 950.918 970.539
6450.07 681.152 679.569 998.904 961.88
6452.91 666.382 677.26 935.819 964.772
6455.75 684.246 679.196 959.595 966.597
6458.59 686.961 669.726 1004.38 977.653
6461.44 637.97 652.075 968.987 962.018
6464.28 631.295 644.544 912.691 952.106
6467.12 664.369 653.387 974.639 938.696
6469.96 664.498 651.839 928.759 931.093
6472.8 626.651 661.01 889.88 925.66
6475.64 691.88 653.646 958.342 924.878
6478.48 642.406 671.732 926.413 964.904
6481.32 680.911 663.452 1009.96 973.55
6484.16 667.04 659.648 984.282 976.876
6487 630.993 650.744 936.391 945.194
6489.84 654.198 643.604 914.908 914.87
6492.68 645.622 638.015 893.311 919.086
6495.51 614.226 623.498 949.038 903.566
6498.35 610.647 612.206 868.349 888.74
6501.19 611.744 621.699 848.834 892.856
6504.03 642.705 638.595 961.384 905.109
6506.87 661.336 657.106 905.108 941.365
6509.71 667.278 658.483 957.603 920.896
6512.55 646.836 637.834 899.976 911.609
6515.38 599.389 634.65 877.248 912.805
6518.22 657.726 641.388 961.19 917.752
6521.06 667.05 661.806 914.817 932.182
6523.9 660.643 672.471 920.538 939.968
6526.74 689.721 688.439 984.548 941.824
6529.57 714.953 679.96 920.385 922.442
6532.41 635.206 658.311 862.394 897.033
6535.25 624.775 638.794 908.319 876.665
6538.08 656.403 644.741 859.283 876.967
6540.92 653.047 646.686 863.301 873.747
6543.76 630.608 618.876 898.657 847.39
6546.59 572.974 596.406 780.211 832.196
6549.43 585.636 586.96 817.72 809.642
6552.27 602.269 590.646 830.995 820.356
6555.1 584.034 586.159 812.354 809.456
6557.94 572.173 570.648 785.019 796.33
6560.77 555.737 570.499 791.618 789.872
6563.61 583.588 570.848 792.978 781.098
6566.45 573.219 576.957 758.697 781.613
6569.28 574.064 581.741 793.165 785.289
6572.12 597.941 600.757 804.004 801.283
6574.95 630.267 608.033 806.681 806.642
6577.79 595.89 615.86 809.242 793.243
6580.62 621.422 594.794 763.808 796.789
6583.46 567.069 618.172 817.318 818.353
6586.29 666.023 618.582 873.933 840.473
6589.12 622.654 625.404 830.168 832.153
6591.96 587.536 621.916 792.36 855.483
6594.79 655.558 651.322 943.921 881.171
6597.63 710.873 671.775 907.233 907.941
6600.46 648.894 668.677 872.668 874.125
6603.29 646.263 644.144 842.474 839.82
6606.13 637.274 647.64 804.317 844.721
6608.96 659.383 631.678 887.371 829.519
6611.79 598.377 637.511 796.867 854.952
6614.63 654.774 625.985 880.616 831.893
6617.46 624.805 654.534 818.196 860.014
6620.29 684.024 668.401 881.23 870.659
6623.12 696.374 679.353 912.55 882.661
6625.96 657.66 663.812 854.203 871.433
6628.79 637.401 637.9 847.545 841.025
6631.62 618.638 626.701 821.327 811.771
6634.45 624.063 621.68 766.44 797.413
6637.28 622.338 625.079 804.473 806.536
6640.11 628.835 615.655 848.695 822.113
6642.95 595.792 623.761 813.171 827.977
6645.78 646.656 634.805 822.065 825.177
6648.61 661.967 651.437 840.294 834.543
6651.44 645.689 651.348 841.27 852.094
6654.27 646.387 651.173 874.717 862.055
6657.1 661.443 666.799 870.177 853.333
6659.93 692.567 672.577 815.105 853.642
6662.76 663.72 677.837 875.644 852.229
6665.59 677.223 638.715 865.938 821.324
6668.42 575.203 645.152 722.388 824.285
6671.25 683.03 620.188 884.528 788.735
6674.08 602.33 632.81 759.287 806.32
6676.91 613.07 634.656 775.144 808.587
6679.74 688.567 648.402 891.329 816.553
6682.57 643.57 670.919 783.184 843.052
6685.4 680.619 670.639 854.643 833.464
6688.23 687.729 673.336 862.563 832.459
6691.06 651.661 666.63 780.17 818.518
6693.88 660.501 662.381 812.82 800.635
6696.71 674.98 647.635 808.914 798.865
6699.54 607.425 645.412 774.862 800.53
6702.37 653.832 643.693 817.814 806.785
6705.2 669.823 660.04 827.679 808.303
6708.03 656.465 653.761 779.415 811.09
6710.85 634.995 641.521 826.175 782.552
6713.68 633.101 625.231 742.066 775.904
6716.51 607.597 628.431 759.469 766.047
6719.33 644.595 635.772 796.606 799.263
6722.16 655.122 657.09 841.715 820.597
6724.99 671.552 665.462 823.47 826.522
6727.82 669.712 659.602 814.38 813.712
6730.64 637.543 639.14 803.286 784.583
6733.47 610.165 614.127 736.083 767.093
6736.29 594.674 610.318 761.911 750.599
6739.12 626.114 601.726 753.804 752.276
6741.95 584.39 623.007 741.115 751.075
6744.77 658.517 620.936 758.306 753.45
6747.6 619.903 640.994 760.93 777.615
6750.42 644.562 634.585 813.611 777.9
6753.25 639.289 650.655 759.159 793.831
6756.07 668.115 655.914 808.723 786.78
6758.9 660.34 649.071 792.457 800.009
6761.72 618.76 633.685 798.847 786.457
6764.55 621.955 634.575 768.068 791.632
6767.37 663.01 659.672 807.982 796.025
6770.2 694.051 671.847 812.025 800.942
6773.02 658.479 653.914 782.818 786.457
6775.85 609.212 622.441 764.529 764.541
6778.67 599.633 599.005 746.276 729.657
6781.49 588.169 606.976 678.166 717.056
6784.32 633.125 604.715 726.727 710.774
6787.14 592.851 622.279 727.428 733.997
6789.96 640.86 621.108 747.835 747.94
6792.79 629.613 633.615 768.555 742.063
6795.61 630.372 623.309 709.799 738.409
6798.43 609.943 633.88 736.871 727.428
6801.25 661.324 635.631 735.613 728.708
6804.08 635.625 643.155 713.638 743.323
6806.9 632.514 628.505 780.718 733.336
6809.72 617.377 622.727 705.652 737.094
6812.54 618.29 618.333 724.91 713.47
6815.36 619.332 630.297 709.847 744.366
6818.19 653.268 636.797 798.341 739.233
6821.01 637.789 645.242 709.511 764.847
6823.83 644.668 626.024 786.69 724.148
6826.65 595.616 654.266 676.244 759.938
6829.47 722.516 665.773 816.882 749.15
6832.29 679.186 656.595 754.324 718.439
6835.11 568.081 630.874 584.111 689.588
6837.93 645.354 621.409 730.33 691.647
6840.75 650.794 636.065 760.5 730.184
6843.57 612.047 604.72 699.724 698.123
6846.39 551.318 591.52 634.145 676.516
6849.21 611.195 579.949 695.68 671.71
6852.03 577.334 603.102 685.305 698.218
6854.85 620.778 597.433 713.671 687.179
6857.67 594.188 586.73 662.56 657.495
6860.49 545.223 566.003 596.253 629.186
6863.31 558.597 542.497 628.744 610.934
6866.13 523.67 512.805 607.805 585.107
6868.95 456.149 480.97 518.772 547.149
6871.77 463.092 472.38 514.872 533.008
6874.58 497.899 501.844 565.38 569.4
6877.4 544.543 544.955 627.949 630.025
6880.22 592.422 576.381 696.746 672.116
6883.04 592.179 571.127 691.653 652.972
6885.86 528.78 542.913 570.516 617.335
6888.67 507.779 530.577 589.836 603.153
6891.49 555.171 532.616 649.105 620.07
6894.31 534.898 562.557 621.268 631.593
6897.13 597.602 549.985 624.407 598.584
6899.94 517.456 554.19 550.078 599.258
6902.76 547.512 560.482 623.29 608.987
6905.58 616.479 575.456 653.592 646.416
6908.39 562.378 599.532 662.365 656.465
6911.21 619.739 591.441 653.437 642.971
6914.02 592.207 582.57 613.112 614.527
6916.84 535.764 577.904 577.032 606.328
6919.66 605.74 587.368 628.841 615.335
6922.47 620.601 595.281 640.131 630.074
6925.29 559.501 594.174 621.249 629.522
6928.1 602.421 587.532 627.187 636.794
6930.92 600.673 582.279 661.947 594.315
6933.73 543.743 569.632 493.811 587.153
6936.55 564.481 559.599 605.701 576.64
6939.36 570.573 560.022 630.408 614.91
6942.17 545.013 559.341 608.62 611.743
6944.99 562.438 548.462 596.2 592.536
6947.8 537.936 558.972 572.788 605.364
6950.62 576.542 547.132 647.105 588.917
6953.43 526.917 560.118 546.858 621.676
6956.24 576.893 534.977 671.067 590.868
6959.06 501.122 560.575 554.681 631.576
6961.87 603.71 555.119 668.981 587.745
6964.68 560.524 591.312 539.573 632.189
6967.5 609.701 590.126 688.014 618.577
6970.31 600.152 609.931 628.143 663.935
6973.12 619.941 597.703 675.649 620.417
6975.93 573.015 573.383 557.461 572.164
6978.75 527.194 562.42 483.384 549.14
6981.56 587.049 557.662 606.576 557.747
6984.37 558.742 564.907 583.281 580.911
6987.18 548.929 564.808 552.875 568.348
6989.99 586.754 567.095 568.888 560.486
6992.8 565.601 590.822 559.695 596.047
6995.61 620.11 576.881 659.558 603.274
6998.43 544.932 580.636 590.57 630.327
7001.24 576.865 569.841 640.854 619.272
7004.05 587.726 582.971 626.393 620.681
7006.86 584.323 585.315 594.797 601.441
7009.67 583.896 546.913 583.133 562.132
7012.48 472.52 540.502 508.465 560.939
7015.29 565.09 528.641 591.219 556.377
7018.1 548.312 568.63 569.448 594.891
7020.91 592.49 572.33 624.005 598.949
7023.72 576.188 584.817 603.392 601.972
7026.53 585.773 569.967 578.518 591.419
7029.33 547.94 560.855 592.345 582.87
7032.14 548.851 543.83 577.746 575.161
7034.95 534.697 536.598 555.392 568.503
7037.76 526.245 538.947 572.372 565.685
7040.57 555.899 544.652 569.292 579.776
7043.38 551.811 550.273 597.665 563.316
7046.18 543.108 555.395 522.992 571.184
7048.99 571.266 555.677 592.894 554.246
7051.8 552.658 556.465 546.852 563.647
7054.61 545.472 543.035 551.195 546.385
7057.42 530.976 531.281 541.108 532.436
7060.22 517.395 534.321 505.005 533.96
7063.03 554.593 531.777 555.766 524.635
7065.84 523.344 533.375 513.133 543.018
7068.64 522.187 523.919 560.154 546.132
7071.45 526.225 523.739 565.11 564.168
7074.26 522.804 515.419 567.241 555.37
7077.06 497.229 512.612 533.759 528.051
7079.87 517.803 524.12 483.154 531.654
7082.67 557.328 538.557 578.05 529.314
7085.48 540.541 536.594 526.738 532.525
7088.28 511.912 525 492.787 502.323
7091.09 522.548 518.483 487.444 496.692
7093.89 520.988 524.7 509.845 509.608
7096.7 530.564 524.428 531.535 534.024
7099.5 521.732 514.259 560.692 522.989
7102.31 490.482 502.812 476.741 515.465
7105.11 496.224 508.036 508.961 497.646
7107.92 537.403 516.29 507.235 518.216
7110.72 515.242 511.571 538.453 503.637
7113.52 482.067 521.111 465.222 525.353
7116.33 566.023 539.972 572.384 533.535
7119.13 571.827 566.325 562.999 568.589
7121.93 561.126 554.397 570.384 553.333
7124.74 530.236 532.238 526.616 526.661
7127.54 505.35 540.082 482.982 521.338
7130.34 584.661 550.045 554.415 532.38
7133.15 560.124 554.591 559.745 536.883
7135.95 518.987 514.374 496.489 506.586
7138.75 464.011 500.616 463.523 489.4
7141.55 518.851 510.905 508.186 502.798
7144.35 549.855 536.723 536.684 518.806
7147.15 541.463 542.317 511.548 529.34
7149.96 535.634 514.362 539.787 503.721
7152.76 465.989 511.936 459.827 503.623
7155.56 534.185 507.55 511.255 495.451
7158.36 522.477 518.614 515.269 517.823
7161.16 499.179 498.904 526.945 506.713
7163.96 475.056 487.491 477.925 497.757
7166.76 488.237 487.09 488.401 479.415
7169.56 497.978 470.567 471.919 450.526
7172.36 425.486 463.021 391.259 431.334
7175.16 465.6 450.31 430.824 428.097
7177.96 459.843 465.746 462.207 447.771
7180.76 471.793 452.304 450.282 440.742
7183.56 425.276 449.892 409.738 426.242
7186.36 452.608 437.603 418.706 410.325
7189.16 434.925 456.402 402.53 425.095
7191.96 481.674 451.867 454.049 424.829
7194.75 439 449.943 417.907 426.422
7197.55 429.156 436.502 407.309 411.173
7200.35 441.349 430.815 408.303 402.79
7203.15 421.94 447.707 392.759 408.247
7205.95 479.833 455.745 423.677 410.66
7208.74 465.46 482.198 415.542 426.165
7211.54 501.301 476.262 439.275 438.066
7214.34 462.025 467.456 459.381 431.309
7217.14 439.042 453.176 395.27 427.126
7219.93 458.461 452.487 426.728 407.188
7222.73 459.957 465.405 399.566 416.012
7225.53 477.798 473.737 421.74 425.268
7228.32 483.456 471.171 454.498 443.023
7231.12 452.258 459.943 452.831 425.707
7233.91 444.113 447.105 369.792 387.758
7236.71 444.945 440.708 340.651 400.459
7239.51 433.065 445.344 490.933 419.088
7242.3 458.021 454.447 425.679 448.139
7245.1 472.255 448.608 427.805 391.448
7247.89 415.548 418.244 320.86 362.596
7250.69 366.928 410.275 339.124 365.081
7253.48 448.348 413.057 435.259 386.3
7256.28 423.895 431.343 384.518 389.445
7259.07 421.786 425.871 348.56 358.789
7261.86 431.93 427.355 343.288 357.215
7264.66 428.347 435.703 379.798 379.204
7267.45 446.832 444.688 414.527 400.051
7270.25 458.886 450.061 405.827 407.085
7273.04 444.465 431.463 400.901 355.495
7275.83 391.039 425.853 259.758 340.957
7278.63 442.054 426.906 362.213 345.375
7281.42 447.625 405.431 414.156 408.183
7284.21 326.613 375.735 448.18 426.479
7287 352.966 347.06 417.102 412.184
7289.8 361.6 327.312 371.269 389.52
7292.59 267.371 330.532 380.189 381.492
7295.38 362.625 328.641 393.02 396.155
7298.17 355.926 362.835 415.258 393.007
7300.96 369.953 364.481 370.743 375.415
7303.75 367.565 360.347 340.245 364.535
7306.54 343.522 365.112 382.618 364.546
7309.34 384.249 359.571 370.774 366.944
7312.13 350.94 367.91 347.439 345.583
7314.92 368.539 366.773 318.536 342.618
7317.71 380.84 351.812 361.88 347.06
7320.5 306.057 323.556 360.764 352.767
7323.29 283.77 321.19 335.655 384.859
7326.08 373.743 315.635 458.158 359.713
7328.87 289.391 317.042 285.326 391.684
7331.66 287.99 320.929 431.567 347.467
7334.45 385.405 349.365 325.507 393.096
7337.23 374.699 350.868 422.214 310.707
7340.02 292.5 310.644 184.399 331.092
7342.81 264.733 314.23 386.661 359.06
7345.6 385.458 334.464 506.12 423.899
7348.39 353.201 359.667 378.916 415.454
7351.18 340.342 347.807 361.325 358.193
7353.96 349.879 347.374 334.337 344.758
7356.75 351.902 347.266 338.614 344.589
7359.54 340.016 352.94 360.818 339.149
7362.33 366.903 360.185 318.015 336.55
7365.11 373.636 368.489 330.818 351.407
7367.9 364.929 363.475 405.388 363.395
7370.69 351.86 348.533 353.978 385.71
7373.47 328.811 339.23 397.765 344.027
7376.26 337.018 335.259 280.339 327.93
7379.05 339.948 326.882 305.687 306.57
7381.83 303.681 329.894 333.685 324.387
7384.62 346.053 331.688 333.789 338.704
7387.4 345.329 344.702 348.638 344.306
7390.19 342.723 347.758 350.49 363.97
7392.97 355.222 349.837 392.782 361.652
7395.76 351.568 350.581 341.684 367.921
7398.54 344.953 345.68 369.297 360.12
7401.33 340.518 339.564 369.378 332.365
7404.11 333.221 342.653 258.421 317.974
7406.9 354.219 356.235 326.122 307.007
7409.68 381.267 352.625 336.478 321.336
7412.47 322.389 361.489 301.408 329.513
7415.25 380.811 362.203 350.654 335.475
7418.03 383.41 358.662 354.363 336.512
7420.82 311.766 350.876 304.519 337.133
7423.6 357.454 333.881 352.518 336.145
7426.38 332.423 336.66 351.398 346.124
7429.16 320.103 324.671 334.456 328.083
7431.95 321.487 326.95 298.396 333.437
7434.73 339.261 339.756 367.459 329.383
7437.51 358.52 347.204 322.293 330.622
7440.29 343.83 351.092 302.113 325.672
7443.08 350.928 348.472 352.61 339.35
7445.86 350.659 346.557 363.328 339.473
7448.64 338.084 355.909 302.479 343.382
7451.42 378.985 360.06 364.339 344.021
7454.2 363.111 358.195 365.244 353.136
7456.98 332.489 351.186 329.827 338.066
7459.76 357.957 337.959 319.126 307.07
7462.54 323.431 322.437 272.257 304.498
7465.32 285.924 331.053 322.113 315.134
7468.1 383.804 337.887 351.033 334.989
7470.88 343.932 355.624 331.821 339.067
7473.66 339.135 331.09 334.349 326.907
7476.44 310.204 322.629 314.552 313.504
7479.22 318.548 331.765 291.611 314.69
7482 366.544 344.114 337.907 313.25
7484.78 347.249 339.907 310.232 310.736
7487.56 305.928 320.919 284.069 298.537
7490.33 309.581 323.558 301.311 289.167
7493.11 355.165 329.251 282.123 299.492
7495.89 323.007 335.769 315.043 289.018
7498.67 329.136 334.631 269.889 319.818
7501.45 351.751 343.035 374.522 312.91
7504.22 348.217 347.692 294.319 317.216
7507 343.108 340.949 282.808 290.101
7509.78 331.523 327.933 293.177 288.242
7512.55 309.167 333.765 288.742 307.312
7515.33 360.606 336.281 340.017 294.134
7518.11 339.07 333.142 253.643 283.601
7520.88 299.751 334.656 257.142 263.463
7523.66 365.148 319.791 279.605 269.404
7526.43 294.475 331.421 271.464 281.263
7529.21 334.64 311.772 292.72 294.569
7531.99 306.201 320.293 319.524 298.296
7534.76 320.039 319.851 282.645 303.869
7537.54 333.312 329.532 309.438 290.51
7540.31 335.245 336.745 279.446 297.82
7543.08 341.679 327.626 304.575 287.484
7545.86 305.955 319.457 278.431 286.76
7548.63 310.737 311.242 277.274 282.192
7551.41 317.035 323.108 290.87 293.41
7554.18 341.554 322.767 312.086 304.004
7556.95 309.714 333.148 309.056 301.821
7559.73 348.176 331.512 284.322 302.015
7562.5 336.646 336.214 312.666 278.508
7565.27 323.821 342.634 238.535 269.189
7568.05 367.434 343.889 256.367 257.92
7570.82 340.412 342.068 278.859 267.598
7573.59 318.358 313.541 267.568 258.25
7576.36 281.854 315.883 228.322 268.497
7579.14 347.437 316.427 309.602 255.426
7581.91 319.989 343.94 228.354 269.819
7584.68 364.395 311.969 271.502 249.99
7587.45 251.523 283.061 250.116 236.425
7590.22 233.265 226.347 187.658 199.595
7592.99 194.253 198.315 161.011 163.137
7595.76 167.427 166.151 140.741 139.406
7598.53 136.774 138.897 116.466 126.329
7601.3 112.49 123.655 121.779 109.69
7604.07 121.7 113.196 90.8257 107.28
7606.84 105.398 127.023 109.237 106.066
7609.61 153.969 136.902 118.134 112.561
7612.38 151.339 182.489 110.312 140.745
7615.15 242.159 206.807 193.79 160.08
7617.92 226.922 234.904 176.138 177.32
7620.69 235.63 208.266 162.032 165.292
7623.46 162.246 204.039 157.707 142.755
7626.23 214.242 196.979 108.527 147.815
7629 214.451 222.756 177.211 153.647
7631.76 239.574 214.092 175.204 152.688
7634.53 188.252 212.214 105.65 159.941
7637.3 208.817 203.715 198.969 154.746
7640.07 214.077 208.748 159.62 167.563
7642.83 203.349 214.89 144.099 164.698
7645.6 227.244 227.511 190.375 164.667
7648.37 251.939 237.777 159.526 163.319
7651.13 234.148 247.469 140.055 156.412
7653.9 256.318 242.968 169.655 157.003
7656.67 238.438 258.325 161.299 169.78
7659.43 280.217 258.265 178.386 172.385
7662.2 256.14 268.203 177.471 179.864
7664.96 268.25 273.066 183.734 193.757
7667.73 294.809 294.166 220.067 219.538
7670.49 319.437 302.678 254.814 224.136
7673.26 293.787 299.596 197.528 229.441
7676.02 285.566 284.133 235.981 222.132
7678.79 273.046 294.228 232.887 243.547
7681.55 324.073 289.58 261.773 228.272
7684.32 271.62 290.259 190.156 220.842
7687.08 275.084 265.94 210.598 214.852
7689.84 251.117 255.644 243.802 200.83
7692.61 240.732 264.949 148.089 196.334
7695.37 302.999 287.962 197.11 182.694
7698.13 320.154 287.625 202.884 182.257
7700.9 239.723 292.612 146.777 189.438
7703.66 317.959 265.406 218.654 175.051
7706.42 238.535 282.989 159.722 179.9
7709.18 292.472 290.072 161.325 174.515
7711.95 339.208 313.846 202.499 175.279
7714.71 309.858 307.136 162.014 150.174
7717.47 272.342 307.63 86.0088 174.438
7720.23 340.689 288.808 275.291 183.779
7722.99 253.393 283.822 190.037 224.757
7725.75 257.383 263.768 208.943 187.163
7728.51 280.529 278.937 162.51 200.281
7731.27 298.9 284.103 229.389 191.257
7734.03 272.879 286.999 181.871 188.71
7736.79 289.22 278.511 154.869 176.914
7739.55 273.435 272.628 194.001 183.108
7742.31 255.228 245.091 200.452 179.587
7745.07 206.609 262.949 144.308 185.912
7747.83 327.01 279.246 212.975 190.843
7750.59 304.118 315.417 215.247 208.863
7753.35 315.123 293.371 198.367 202.821
7756.11 260.871 303.466 194.849 190.603
7758.87 334.404 274.13 178.593 178.702
7761.62 227.114 270.81 162.665 161.713
7764.38 250.913 247.815 143.883 174.483
7767.14 265.419 251.142 216.903 179.97
7769.9 237.095 261.314 179.126 196.8
7772.65 281.428 263.556 194.371 192.379
7775.41 272.145 285.837 203.641 182.471
7778.17 303.937 294.134 149.402 186.269
7780.93 306.319 286.398 205.763 170.706
7783.68 248.937 276.852 156.953 196.267
7786.44 275.301 248.811 226.086 211.898
7789.19 222.195 262.459 252.654 201.226
7791.95 289.88 260.742 124.938 178.112
7794.71 270.151 269.006 156.745 151.214
7797.46 246.985 259.326 171.958 175.168
7800.22 260.843 246.825 196.802 173.358
7802.97 232.645 257.338 151.314 180.53
7805.73 278.526 277.833 193.475 164.023
7808.48 322.328 275.981 147.282 176.061
7811.23 227.09 267.875 187.427 154.06
7813.99 254.206 266.381 127.47 168.409
7816.74 317.846 268.374 190.33 144.847
7819.5 233.069 304.096 116.742 178.379
7822.25 361.372 265.299 228.067 150.628
7825 201.456 266.012 107.074 173.246
7827.76 235.207 233.777 184.596 149.507
7830.51 264.668 256.086 156.852 167.507
7833.26 268.382 247.902 161.074 141.573
7836.01 210.656 255.998 106.794 131.861
7838.77 288.957 254.508 127.716 141.092
7841.52 263.91 277.302 188.767 169.95
7844.27 279.038 274.347 193.368 184.569
7847.02 280.093 274.213 171.572 191.354
7849.77 263.508 270.12 209.12 147.91
7852.52 266.76 284.531 63.0385 118.188
7855.27 323.324 279.645 82.406 81.1212
7858.02 248.852 257.926 97.9192 123.546
7860.77 201.602 229.244 190.313 142.457
7863.52 237.277 239.712 139.139 137.074
7866.27 280.255 243.998 81.7699 109.115
7869.02 214.462 243.465 106.435 87.2374
7871.77 235.679 232.195 73.5073 92.1531
7874.52 246.445 244.868 96.5168 130.278
7877.27 252.48 243.074 220.81 152.137
7880.02 230.296 250.957 139.084 165.269
7882.77 270.097 206.529 135.912 128.797
7885.52 119.194 209.363 111.394 129.457
7888.27 238.798 203.843 141.064 138.644
7891.01 253.538 242.063 163.475 142.269
7893.76 233.852 247.141 122.266 141.463
7896.51 254.034 247.858 138.649 134.614
7899.26 255.689 253.083 142.926 138.464
7902 249.526 252.933 133.816 141.989
7904.75 253.583 249.776 149.225 121.687
7907.5 246.219 256.37 82.0195 98.0153
7910.24 269.308 261.492 62.8012 62.684
7912.99 268.95 248.707 43.2314 98.9423
7915.73 207.864 238.322 190.794 97.2434
7918.48 238.15 223.219 57.7044 110.585
7921.23 223.642 222.032 83.2569 70.5136
7923.97 204.302 219.983 70.5795 103.097
7926.72 232.005 211.143 155.456 105.695
7929.46 197.121 221.297 91.0483 133.545
7932.21 234.766 227.862 154.13 114.533
7934.95 251.7 243.741 98.4206 126.841
7937.69 244.756 249.095 127.972 124.026
7940.44 250.829 264.769 145.686 136.932
7943.18 298.722 270.293 137.138 124.744
7945.93 261.327 267.172 91.4072 126.989
7948.67 241.465 248.878 152.423 131.757
7951.41 243.841 233.797 151.441 137.485
7954.15 216.086 218.952 108.592 127.861
7956.9 196.93 214.86 123.549 89.6955
7959.64 231.566 214.25 36.9452 90.7407
7962.38 214.254 242.243 111.728 100.286
7965.12 280.909 244.127 152.183 127.328
7967.87 237.217 245.987 118.072 148.995
7970.61 219.836 210.071 176.729 114.388
7973.35 173.159 213.692 48.364 121.741
7976.09 248.082 207.342 140.131 95.3671
7978.83 200.784 227.109 97.6064 115.134
7981.57 232.461 215.325 107.665 101.762
7984.31 212.731 226.32 100.013 132.342
7987.05 233.77 225.516 189.348 135.752
7989.79 230.047 227.364 117.895 118.959
7992.53 218.275 229.014 49.6335 79.7789
7995.27 238.72 236.713 71.8085 89.1216
7998.01 253.145 245.639 145.923 109.655
8000.75 245.051 237.078 111.235 120.364
8003.49 213.037 217.872 103.936 97.2289
8006.23 195.526 214.109 76.516 81.5535
8008.96 233.763 224.213 64.2085 73.6564
8011.7 243.349 241.534 80.2446 85.3554
8014.44 247.49 227.994 111.613 98.9304
8017.18 193.143 221.633 104.933 91.3957
8019.91 224.267 216.401 57.6405 64.3525
8022.65 231.793 225.5 30.4837 60.2673
8025.39 220.44 221.655 92.6778 73.4394
8028.12 212.733 208.835 97.1566 80.9212
8030.86 193.333 210.848 52.9292 106.227
8033.6 226.48 219.961 168.594 111.509
8036.33 240.069 225.727 113.004 123.302
8039.07 210.632 222.795 88.3094 102.269
8041.8 217.684 211.952 105.493 96.8585
8044.54 207.54 212.863 96.7727 103.359
8047.28 213.366 208.98 107.81 101.107
8050.01 206.034 215.593 98.7389 88.4163
8052.74 227.38 217.308 58.6997 68.9148
8055.48 218.511 215.048 49.3057 57.4213
8058.21 199.254 204.357 64.2583 51.0138
8060.95 195.306 194.506 39.4774 50.4645
8063.68 188.958 198.157 47.6577 57.7644
8066.41 210.208 204.02 86.1581 73.9473
8069.15 212.894 224.435 88.026 95.9342
8071.88 250.203 221.842 113.619 92.0935
8074.61 202.429 222.253 74.6358 88.9932
8077.35 214.126 208.115 78.7251 80.4924
8080.08 207.789 214.026 88.1164 97.3087
8082.81 220.162 210.981 125.085 107.635
8085.54 204.992 216.679 109.703 115.438
8088.27 224.882 212.654 111.527 109.282
8091.01 208.088 208.042 106.618 102.545
8093.74 191.155 193.734 89.4893 65.5002
8096.47 181.961 184.3 0.393178 45.997
8099.2 179.785 175.406 48.1084 40.3609
8101.93 164.474 182.021 72.581 63.8294
8104.66 201.804 183.037 70.7988 60.9246
8107.39 182.833 199.571 39.394 63.3294
8110.12 214.076 199.37 79.7953 75.8121
8112.85 201.201 203.799 108.247 95.7498
8115.58 196.119 196.05 99.2074 97.0937
8118.31 190.83 187.606 83.8268 91.8279
8121.03 175.868 182.8 92.4496 88.9825
8123.76 181.701 190.364 90.6711 91.0624
8126.49 213.524 185.273 90.0665 82.1667
8129.22 160.593 184.121 65.7624 85.2249
8131.95 178.245 185.382 99.8458 97.639
8134.68 217.309 184.677 127.309 89.2051
8137.4 158.476 178.775 40.4606 82.2383
8140.13 160.54 164.903 78.9453 72.1865
8142.86 175.693 154.623 97.1537 83.9281
8145.58 127.635 151.344 75.6852 72.409
8148.31 150.705 137.416 44.388 66.02
8151.04 133.907 144.962 77.9868 63.0724
8153.76 150.274 147.047 66.8425 83.4101
8156.49 156.959 150.841 105.401 78.9015
8159.21 145.291 141.931 64.4612 74.8776
8161.94 123.543 139.831 54.7707 64.0564
8164.66 150.66 138.577 72.9375 71.5892
8167.39 141.527 145.06 87.0594 79.047
8170.11 142.994 139.587 77.1441 83.7194
8172.84 134.241 137.976 86.9547 79.0988
8175.56 136.693 138.028 73.1976 80.8262
8178.29 143.15 146.093 82.3264 84.5222
8181.01 158.436 148.222 98.0425 91.5061
8183.73 143.08 144.622 94.1493 94.0558
8186.46 132.349 124.919 89.9755 85.4574
8189.18 99.3279 122.155 72.2475 80.127
8191.9 134.787 122.706 78.1579 73.1018
8194.62 134.002 133.225 68.9 67.4635
8197.35 130.885 134.278 55.3328 60.8366
8200.07 137.947 128.84 58.277 67.4063
8202.79 117.688 135.333 88.609 75.7672
8205.51 150.364 133.647 80.4156 87.1456
8208.23 132.889 142.965 92.4122 84.1022
8210.95 145.641 143.691 79.4789 84.2932
8213.67 152.542 139.719 80.9885 76.1575
8216.39 120.973 140.158 68.0051 77.9176
8219.11 146.96 132.04 84.7592 86.2565
8221.83 128.185 140.777 106.005 91.9918
8224.55 147.184 126.997 85.211 93.4002
8227.27 105.621 114.472 88.9845 78.13
8229.99 90.6117 110.906 60.1943 62.9828
8232.71 136.485 109.068 39.7696 64.1863
8235.43 100.109 132.236 92.5951 81.0934
8238.15 160.116 132.212 110.916 97.7883
8240.87 136.412 147.329 89.8542 84.7996
8243.59 145.459 151.382 53.629 77.8924
8246.3 172.274 159.571 90.194 81.8741
8249.02 160.979 163.335 101.799 85.5394
8251.74 156.751 145.973 64.625 75.2669
8254.46 120.188 150.582 59.3763 75.0476
8257.17 174.806 141.244 101.142 75.6217
8259.89 128.739 143.041 66.3473 75.8307
8262.61 125.577 133.659 60.0031 63.4621
8265.32 146.662 135.848 64.0359 51.1197
8268.04 135.304 132.736 29.32 46.7495
8270.75 116.241 132.809 46.8927 42.6741
8273.47 146.882 116.288 51.8095 44.4413
8276.18 85.7411 113.899 34.6216 49.2526
8278.9 109.074 107.409 61.3266 21.4065
8281.61 127.412 132.209 -31.7288 -5.93772
8284.33 160.141 133.634 -47.4109 -39.5631
8287.04 113.349 135.07 -39.5495 -46.682
8289.76 131.721 112.471 -53.0856 -33.7123
8292.47 92.342 106.902 -8.50174 1.09302
8295.18 96.6425 84.3124 64.8664 11.0268
8297.9 63.9526 98.8937 -23.2843 23.5527
8300.61 136.086 111.409 29.076 6.44044
8303.32 134.189 116.637 13.5297 28.5519
8306.04 79.6357 116.288 43.05 44.9715
8308.75 135.04 104.996 78.335 29.7231
8311.46 100.312 120.937 -32.2158 27.0277
8314.17 127.458 118.154 34.9641 27.8329
8316.88 126.692 134.485 80.7505 43.706
8319.59 149.306 139.407 15.4033 51.4914
8322.31 142.222 141.383 58.3203 56.846
8325.02 132.62 135.14 96.8143 77.5127
8327.73 130.579 141.724 77.4035 79.7262
8330.44 161.972 143.76 64.961 65.2176
8333.15 138.73 135.549 53.2883 44.2355
8335.86 105.946 126.11 14.4572 23.9473
8338.57 133.654 133.188 4.09648 7.36202
8341.28 159.965 158.302 3.53236 -14.2983
8343.99 181.288 154.413 -50.5238 -34.9303
8346.69 121.987 120.274 -57.7995 -52.8272
8349.4 57.5484 99.8233 -50.1583 -48.925
8352.11 119.935 111.724 -38.8171 -35.8154
8354.82 157.688 138.784 -18.4707 -22.4195
8357.53 138.73 135.188 -9.97066 -5.00077
8360.23 109.145 128.289 13.4391 1.85215
8362.94 136.991 139.328 2.08803 10.1914
8365.65 171.847 160.619 15.047 14.9973
8368.36 173.018 163.121 27.8569 22.154
8371.06 144.499 148.996 23.5582 36.751
8373.77 129.472 139.005 58.838 25.7299
8376.47 143.044 143.265 -5.20636 13.0319
8379.18 157.279 153.365 -14.5359 -5.0997
8381.89 159.773 158.303 4.44314 6.94994
8384.59 157.857 152.328 30.9426 4.53891
8387.3 139.353 148.799 -21.769 5.73163
8390 149.188 140.511 8.02127 2.86108
8392.71 132.993 152.121 22.3309 -21.5875
8395.41 174.182 146.756 -95.1146 -18.8824
8398.11 133.095 145.602 16.1364 -81.5672
8400.82 129.53 115.718 -165.723 -64.4269
8403.52 84.5286 98.0823 -43.6938 -68.2068
8406.23 80.1886 112.435 4.79686 -3.66741
8408.93 172.589 129.321 27.8947 17.0028
8411.63 135.187 153.647 18.3169 5.21089
8414.33 153.167 137.289 -30.5789 -7.05796
8417.04 123.515 137.038 -8.91184 -17.2102
8419.74 134.432 118.876 -12.1397 -13.3876
8422.44 98.6808 126.409 -19.1113 -34.1951
8425.14 146.113 128.366 -71.3343 -53.5442
8427.84 140.304 128.101 -70.1869 -62.2286
8430.54 97.886 114.812 -45.1647 -84.4796
8433.24 106.246 115.445 -138.087 -48.12
8435.95 142.202 121.51 38.8919 -15.3162
8438.65 116.082 133.463 53.2468 47.6537
8441.35 142.106 130.913 50.8223 48.4382
8444.05 134.552 129.885 41.2457 33.1153
8446.74 112.997 136.196 7.27791 14.1561
8449.44 161.039 123.186 -6.05516 5.70135
8452.14 95.5216 120.119 15.8813 11.6949
8454.84 103.797 103.661 25.2586 19.1325
8457.54 111.664 120.052 16.2578 27.3675
8460.24 144.694 114.835 40.5862 -9.50522
8462.94 88.1467 119.358 -85.3596 -61.9775
8465.63 125.233 127.976 -141.159 -107.854
8468.33 170.547 148.243 -97.0425 -77.1071
8471.03 148.949 155.858 6.88043 -43.1994
8473.73 148.078 144.241 -39.436 -11.218
8476.42 135.695 138.748 -1.09833 -8.00875
8479.12 132.47 133.567 16.5081 21.3095
8481.82 132.538 133.144 48.5187 29.1117
8484.51 134.424 137.362 22.3084 29.4268
8487.21 145.125 129.978 17.4533 8.70993
8489.9 110.386 127.708 -13.6318 -5.64068
8492.6 127.614 116.562 -20.7435 -17.9598
8495.29 111.687 133.541 -19.5042 -28.9682
8497.99 161.323 138.433 -46.6569 -32.387
8500.68 142.288 149.299 -31 -51.0281
8503.38 144.286 146.006 -75.4274 -57.0901
8506.07 151.444 145.609 -64.8429 -58.2317
8508.76 141.096 138.649 -34.4246 -42.8136
8511.46 123.407 129.452 -29.1733 -12.0258
8514.15 123.852 120.07 27.5205 14.6936
8516.84 112.95 118.812 45.7335 48.9621
8519.54 119.635 127.274 73.6323 50.5766
8522.23 149.238 145.596 32.3639 49.962
8524.92 167.914 146.892 43.8898 41.756
8527.61 123.525 146.249 49.0143 49.1736
8530.3 147.308 136.701 54.6167 49.058
8533 139.269 136.613 43.5431 28.6762
8535.69 123.261 139.058 -12.1311 12.627
8538.38 154.643 150.5 6.46899 -1.84656
8541.07 173.597 157.564 0.122476 -6.05944
8543.76 144.452 147.297 -24.7698 -7.6223
8546.45 123.841 125.374 1.7804 -4.36327
8549.14 107.829 114.941 9.89956 3.45089
8551.83 113.151 112.444 -1.32729 -0.85639
8554.52 116.351 123.556 -11.1414 -3.47905
8557.21 141.167 143.616 2.03156 14.5406
8559.9 173.33 151.503 52.7316 40.6382
8562.58 140.012 151.293 67.1514 53.919
8565.27 140.538 142.984 41.874 54.3967
8567.96 148.403 134.917 54.1649 40.8377
8570.65 115.809 138.673 26.4741 27.8983
8573.34 151.807 127.69 3.05581 15.3137
8576.02 115.455 128.932 16.4112 15.1811
8578.71 119.534 115.686 26.0764 17.9516
8581.4 112.069 127.476 11.3673 31.3792
8584.08 150.824 130.405 56.6939 47.2671
8586.77 128.321 138.618 73.7401 45.3745
8589.45 136.708 127.561 5.68955 35.5803
8592.14 117.654 112.445 27.3112 1.5859
8594.83 82.9735 96.1411 -28.2431 -4.40963
8597.51 87.7963 101.829 -12.297 -15.2079
8600.2 134.718 117.216 -5.08371 -7.40534
8602.88 129.132 132.033 -4.83527 7.27263
8605.56 132.247 128.611 31.7369 14.2541
8608.25 124.455 123.288 15.8607 32.3184
8610.93 113.161 126.769 49.3577 18.8231
8613.62 142.692 151.135 -8.74902 7.19854
8616.3 197.552 157.35 -19.0131 -34.871
8618.98 131.805 158.875 -76.851 -64.7864
8621.66 147.269 138.195 -98.4953 -67.9319
8624.35 135.511 143.723 -28.4494 -65.8311
8627.03 148.388 136.797 -70.5486 -21.4663
8629.71 126.492 134.192 34.5992 -15.3111
8632.39 127.695 140.108 -9.9838 -23.4596
8635.07 166.137 152.804 -94.9942 -43.0681
8637.76 164.582 147.639 -24.2265 -60.7782
8640.44 112.2 145.195 -63.1139 -27.0707
8643.12 158.805 143.024 6.12832 -36.0143
8645.8 158.069 144.679 -51.0574 -18.7363
8648.48 117.163 131.95 -11.2799 -40.4117
8651.16 120.617 124.745 -58.8977 -36.1398
8653.84 136.453 125.522 -38.2417 -63.4525
8656.52 119.495 117.304 -93.218 -53.4705
8659.2 95.9622 122.866 -28.9517 -54.4415
8661.87 153.141 117.962 -41.1548 -50.5479
8664.55 104.784 129.978 -81.5371 -47.9333
8667.23 132.01 111.435 -21.1079 -67.7601
8669.91 97.5119 125.781 -100.635 -40.9378
8672.59 147.82 114.502 -1.07011 -36.8838
8675.26 98.1739 121.201 -8.9459 10.438
8677.94 117.609 122.828 41.3299 12.4011
8680.62 152.702 132.666 4.81914 19.9405
8683.29 127.687 138.232 13.6724 16.2557
8685.97 134.307 133.375 30.2755 9.90858
8688.65 138.131 140.284 -14.2222 19.5853
8691.32 148.414 139.395 42.7027 9.22295
8694 131.642 125.292 -0.811672 17.5871
8696.67 95.8209 118.809 10.8702 10.2042
8699.35 128.964 119.968 20.554 16.0147
8702.02 135.12 128.105 16.62 12.5798
8704.7 120.232 132.81 0.565423 9.13724
8707.37 143.078 128.059 10.2263 6.57516
8710.05 120.868 140.042 8.93379 17.3724
8712.72 156.179 137.263 32.957 22.4451
8715.39 134.741 140.281 25.4445 34.1294
8718.07 129.923 130.007 43.9867 35.9246
8720.74 125.356 130.712 38.3426 35.9716
8723.41 136.856 135.243 25.5856 37.005
8726.08 143.518 137.38 47.0866 38.4338
8728.76 131.766 135.893 42.6291 36.443
8731.43 132.396 130.312 19.6134 37.7347
8734.1 126.772 131.75 50.9617 33.4025
8736.77 136.082 131.492 29.6323 41.592
8739.44 131.622 133.695 44.1818 37.118
8742.11 133.382 129.884 37.5399 43.0154
8744.78 124.649 136.461 47.3246 37.3087
8747.45 151.353 131.923 27.0615 42.6992
8750.12 119.769 121.393 53.7115 14.0717
8752.79 93.057 112.521 -38.5579 1.32752
8755.46 124.737 114.535 -11.1711 -57.6341
8758.13 125.812 133.4 -123.173 -31.7066
8760.8 149.651 125.811 39.2244 -49.3586
8763.47 101.969 114.837 -64.127 -17.9203
8766.14 92.8917 108.373 -28.8583 -29.5817
8768.8 130.257 107.86 4.24029 29.5065
8771.47 100.433 143.479 113.137 36.1505
8774.14 199.749 141.567 -8.92615 45.1104
8776.81 124.519 145.05 31.1198 -33.4482
8779.47 110.884 133.086 -122.538 -42.4293
8782.14 163.856 152.334 -35.8695 -72.5098
8784.81 182.261 164.214 -59.1214 -26.1646
8787.47 146.525 161.437 16.497 -23.8938
8790.14 155.525 138.924 -29.057 -18.3226
8792.8 114.723 146.844 -42.4077 -28.0897
8795.47 170.285 135.467 -12.8043 -29.854
8798.13 121.392 146.73 -34.35 -11.0345
8800.8 148.513 134.255 14.051 -1.23961
8803.46 132.859 136.008 16.5802 27.4437
8806.13 126.653 120.841 51.6999 39.4671
8808.79 103.013 125.445 50.121 49.452
8811.45 146.669 126.608 46.5351 44.6568
8814.12 130.144 141.618 37.3143 36.5601
8816.78 148.041 141.791 25.8309 3.52396
8819.44 147.187 149.921 -52.5733 6.25842
8822.11 154.535 139.631 45.5177 -12.2552
8824.77 117.173 173.866 -29.7099 -36.6621
8827.43 249.891 191.552 -125.794 -47.7814
8830.09 207.592 199.66 12.1596 -71.7032
8832.75 141.496 139.725 -101.475 23.2297
8835.41 70.0863 126.283 159.005 17.4947
8838.08 167.269 116.171 -5.0454 72.1148
8840.74 111.159 105.891 62.385 57.9612
8843.4 39.2457 80.941 116.544 82.1908
8846.06 92.4185 82.3868 67.6434 81.2632
8848.72 115.496 107.438 59.6021 38.1846
8851.38 114.399 124.035 -12.6917 16.49
8854.03 142.211 122.087 2.55948 -12.3367
8856.69 109.651 129.481 -26.8779 -12.9155
8859.35 136.582 115.516 -14.4281 -11.2373
8862.01 100.315 114.548 7.59405 3.76567
8864.67 106.747 106.485 18.1311 -5.27901
8867.33 112.392 108.497 -41.5622 -28.6605
8869.98 106.353 123.052 -62.5505 -42.5019
8872.64 150.413 138.776 -23.3929 -1.30972
8875.3 159.564 145.193 82.0142 17.8103
8877.95 125.602 136.01 -5.19056 16.4119
8880.61 122.864 112.145 -27.5879 -47.361
8883.27 87.9688 114.047 -109.305 -95.1535
8885.92 131.309 96.4673 -148.568 -101.986
8888.58 70.1243 70.1919 -48.0846 -32.1742
8891.23 9.14245 55.3164 100.13 87.6214
8893.89 86.6824 62.9259 210.819 139.97
8896.54 92.953 87.0102 108.961 106.011
8899.2 81.3952 85.6963 -1.74791 42.252
8901.85 82.7407 131.802 19.5426 -20.2597
8904.51 231.269 133.655 -78.5737 -26.9665
8907.16 86.9564 126.82 -21.8684 -47.9683
8909.81 62.2354 76.3653 -43.4629 -27.0842
8912.47 79.9041 67.3834 -15.9212 -45.5179
8915.12 60.0107 68.138 -77.1696 -81.1141
8917.77 64.4991 91.1448 -150.251 -112.506
8920.42 148.925 65.0593 -110.096 -110.464
8923.08 -18.2459 69.1527 -71.0446 -89.4128
8925.73 76.7795 24.5903 -87.0976 -89.424
8928.38 15.2374 49.2191 -110.13 -87.8502
8931.03 55.6403 50.9055 -66.3232 -65.3508
8933.68 81.8389 81.2289 -19.5993 -68.2481
8936.33 106.208 92.2639 -118.822 -77.2035
8938.98 88.7452 98.9941 -93.1894 -97.9154
8941.63 102.03 91.7579 -81.735 -73.1262
8944.28 84.499 112.675 -44.4541 -60.8438
8946.93 151.497 112.531 -56.3424 -35.3322
8949.58 101.596 104.338 -5.20001 -41.1385
8952.23 59.9217 82.1047 -61.873 -72.6885
8954.88 84.7962 82.4107 -150.993 -129.962
8957.52 102.514 120.195 -177.021 -141.424
8960.17 173.275 125.155 -96.2583 -117.831
8962.82 99.675 100.995 -80.2134 -152.92
8965.47 30.0337 61.3233 -282.29 -216.599
8968.11 54.2613 48.3028 -287.293 -255.641
8970.76 60.6133 63.5123 -197.341 -204.55
8973.41 75.6623 78.2711 -129.018 -106.768
8976.05 98.5378 81.0845 6.05411 -37.5671
8978.7 69.0534 89.4743 10.2623 5.35544
8981.34 100.832 81.5182 -0.250062 -7.84264
8983.99 74.6695 79.3604 -33.5401 -27.3832
8986.64 62.5801 71.5008 -48.3593 -49.8608
8989.28 77.2529 55.2741 -67.6829 -36.4412
8991.92 25.9894 55.4622 6.71846 -29.6237
8994.57 63.1442 42.7799 -27.9065 -50.9198
8997.21 39.206 50.7433 -131.571 -55.8125
8999.86 49.8796 47.7328 -7.95979 -70.3112
9002.5 54.1129 41.7283 -71.4026 -37.6752
9005.14 21.1926 44.9664 -33.6631 -130.705
9007.79 59.5937 35.462 -287.048 -196.081
9010.43 25.5998 50.3666 -267.531 -230.776
9013.07 65.9062 46.6401 -137.75 -178.818
9015.71 48.4144 67.8609 -131.173 -98.8339
9018.35 89.2619 75.3517 -27.5777 -52.8764
9020.99 88.3787 87.7821 0.121861 -20.6466
9023.64 85.7058 79.3726 -34.484 -8.13762
9026.28 64.0333 72.6372 9.94926 -7.3845
9028.92 68.1725 70.6385 2.38124 -11.312
9031.56 79.7096 82.9319 -46.2666 -16.0477
9034.2 100.914 87.3993 -4.2578 -28.8465
9036.84 81.5749 106.703 -36.0151 -16.9592
9039.48 137.622 108.196 -10.6046 -20.1225
9042.11 105.391 103.68 -13.7479 -17.1459
9044.75 68.0268 80.2239 -27.0851 -39.5309
9047.39 67.2538 79.9084 -77.7598 -32.0672
9050.03 104.444 87.6912 8.64336 -0.671889
9052.67 91.3752 90.8217 67.1007 -6.2938
9055.31 76.6453 77.531 -94.6255 -46.1244
9057.94 64.5723 68.8667 -110.849 -125.933
9060.58 65.3826 71.9292 -172.326 -136.08
9063.22 85.8327 70.3547 -125.066 -101.225
9065.85 59.8487 76.7243 -6.28282 -63.6047
9068.49 84.4916 77.0227 -59.4658 -21.212
9071.12 86.7277 79.8862 2.11245 -23.5757
9073.76 68.4394 75.2828 -13.3739 -21.0068
9076.4 70.6814 67.2042 -51.7591 -26.3703
9079.03 62.4918 58.814 -13.9779 -34.6286
9081.67 43.2688 35.2535 -38.1488 -17.3756
