wavelength spec_sum spec_optimal
3539.21 126.233 103.625
3542.11 138.696 107.308
3545.02 122.582 97.5041
3547.93 120.138 92.475
3550.83 152.212 119.309
3553.74 137.733 109.148
3556.65 152.093 116.411
3559.56 198.632 131.477
3562.46 137.114 111.506
3565.37 137.104 114.818
3568.28 157.82 127.204
3571.18 166.91 131.495
3574.09 164.296 138.943
3577 141.939 124.99
3579.91 151.014 129.28
3582.81 147.488 119.443
3585.72 154.322 132.213
3588.63 161.364 139.284
3591.53 154.9 137.877
3594.44 154.718 134.498
3597.35 155.071 131.516
3600.26 155.448 131.117
3603.16 152.578 129.191
3606.07 136.544 114.203
3608.98 142.818 124.854
3611.89 155.736 140.702
3614.79 158.843 132.298
3617.7 160.335 143.997
3620.61 162.576 148.743
3623.51 165.014 140.778
3626.42 162.592 142.136
3629.33 165.681 143.47
3632.24 158.171 145.942
3635.14 164.888 145.993
3638.05 163.15 146.429
3640.96 163.699 148.367
3643.87 155.805 138.649
3646.77 160.906 138.672
3649.68 168.332 147.644
3652.59 160.996 143.318
3655.5 164.987 139.475
3658.4 165.663 145.932
3661.31 165.521 144.768
3664.22 165.883 150.818
3667.13 158.658 144.715
3670.03 152.178 134.9
3672.94 149.289 132.29
3675.85 168.639 151.192
3678.76 162.299 144.75
3681.66 152.369 134.43
3684.57 150.251 126.488
3687.48 156.121 143.37
3690.39 151.491 136.82
3693.29 163.756 145.127
3696.2 171.733 159.314
3699.11 161.934 143.616
3702.02 150.469 135.879
3704.92 144.883 129.776
3707.83 147.853 129.853
3710.74 146.874 137.92
3713.65 155.769 146.301
3716.56 172.458 153.533
3719.46 168.983 151.877
3722.37 167.098 153.638
3725.28 166.776 148.396
3728.19 149.81 134.998
3731.09 160.997 146.001
3734 159.804 138.551
3736.91 166.828 153.363
3739.82 170.555 155.615
3742.72 165.11 149.954
3745.63 218.785 228.351
3748.54 177.533 167.089
3751.45 139.905 125.991
3754.36 271.919 274.086
3757.26 166.471 151.961
3760.17 150.237 137.113
3763.08 163.753 148.011
3765.99 157.417 140.875
3768.89 169.664 151.333
3771.8 162.052 149.4
3774.71 157.559 146.155
3777.62 167.65 152.918
3780.52 157.605 148.586
3783.43 157.324 142.403
3786.34 155.246 148.876
3789.25 155.404 144.215
3792.16 145.391 132.812
3795.06 156.734 144.424
3797.97 160.541 154.52
3800.88 154.25 147.586
3803.79 169.361 164.207
3806.69 157.561 147.122
3809.6 170.849 159.433
3812.51 163.529 153.522
3815.42 164.426 151.895
3818.33 164.395 150.897
3821.23 167.461 157.905
3824.14 161.467 146.762
3827.05 166.097 154.792
3829.96 157.372 146.906
3832.86 153.532 145.402
3835.77 150.344 145.01
3838.68 155.206 146.536
3841.59 155.529 143.074
3844.5 167.524 153.953
3847.4 162.655 150.99
3850.31 157.138 144.703
3853.22 165.947 154.306
3856.13 156.676 148.244
3859.03 164.615 153.246
3861.94 160.484 149.482
3864.85 148.886 137.194
3867.76 157.101 146.416
3870.67 146.404 137.276
3873.57 141.033 130.171
3876.48 140.58 133.551
3879.39 143.711 132.817
3882.3 134.752 123.389
3885.2 142.139 134.333
3888.11 143.527 137.552
3891.02 144.169 139.175
3893.93 147.788 135.689
3896.84 140.634 130.195
3899.74 147.304 142.561
3902.65 151.911 143.797
3905.56 157.79 148.665
3908.47 153.747 148.746
3911.37 148.5 141.664
3914.28 158.537 148.653
3917.19 147.216 142.659
3920.1 160.839 151.107
3923.01 161.264 151.345
3925.91 155.52 149.368
3928.82 157.167 149.791
3931.73 146.328 142.441
3934.64 162.757 154.626
3937.54 160.265 153.66
3940.45 157.198 151.641
3943.36 155.997 147.932
3946.27 152.382 148.423
3949.17 147.627 140.684
3952.08 152.937 148.991
3954.99 143.6 149.702
3957.9 143.174 152.412
3960.8 140.983 146.592
3963.71 137.202 141.313
3966.62 140.784 142.322
3969.53 129.232 135.423
3972.43 134.945 140.233
3975.34 132.85 134.815
3978.25 132.355 133.387
3981.16 141.654 149.062
3984.07 131.7 133.174
3986.97 141.798 144.717
3989.88 140.33 146.575
3992.79 141.106 146.236
3995.7 137.602 141.77
3998.6 141.327 147.013
4001.51 142.526 149.638
4004.42 144.319 150.764
4007.33 141.252 146.701
4010.23 140.848 148.047
4013.14 148.096 155.093
4016.05 143.179 149.104
4018.96 147.369 152.177
4021.86 147.096 154.878
4024.77 151.462 159.451
4027.68 147.606 152.04
4030.58 145.21 151.294
4033.49 141.042 147.868
4036.4 140.779 148.961
4039.31 144.091 150.565
4042.21 135.77 142.304
4045.12 143.758 154.974
4048.03 141.946 149.565
4050.94 138.756 143.501
4053.84 143.455 148.914
4056.75 138.595 149.571
4059.66 145.611 153.243
4062.57 132.334 136.029
4065.47 139.457 146.304
4068.38 142.97 148.792
4071.29 141.141 150.03
4074.19 134.246 143.628
4077.1 123.639 131.529
4080.01 132.336 139.107
4082.92 127.588 135.233
4085.82 136.087 141.497
4088.73 134.17 142.29
4091.64 127.542 133.572
4094.54 130.72 140.351
4097.45 126.59 134.882
4100.36 124.048 130.137
4103.27 117.24 126.04
4106.17 126.975 133.934
4109.08 124.468 132.182
4111.99 120.409 129.065
4114.89 122.051 130.823
4117.8 128.455 136.235
4120.71 124.901 135.128
4123.61 135.26 141.867
4126.52 126.825 133.407
4129.43 133.452 143.824
4132.33 133.85 140.7
4135.24 127.618 134.686
4138.15 136.279 142.813
4141.06 135.496 143.978
4143.96 135.353 145.778
4146.87 135.08 142.218
4149.78 136.388 145.062
4152.68 136.691 146.405
4155.59 140.576 147.488
4158.5 132.986 140.018
4161.4 136.087 147.606
4164.31 136.106 147.138
4167.22 139.051 145.892
4170.12 136.004 143.113
4173.03 136.584 146.021
4175.94 138.289 147.308
4178.84 133.259 141.154
4181.75 131.417 141.418
4184.66 132.561 141.115
4187.56 130.187 138.62
4190.47 133.367 145.604
4193.38 136.067 146.611
4196.28 131.146 139.847
4199.19 134.483 143.385
4202.09 135.67 144.327
4205 132.229 141.924
4207.91 131.103 141.311
4210.81 129.106 136.043
4213.72 130.027 136.626
4216.63 133.722 143.397
4219.53 127.499 137.948
4222.44 131.587 140.908
4225.35 125.437 132.459
4228.25 127.541 138.072
4231.16 129.801 136.426
4234.06 127.387 137.414
4236.97 128.605 138.436
4239.88 120.356 130.252
4242.78 122.164 131.005
4245.69 125.035 130.713
4248.6 124.419 130.57
4251.5 127.646 137.636
4254.41 125.534 136.865
4257.31 126.287 134.757
4260.22 128.151 137.403
4263.13 125.575 135.413
4266.03 124.4 134.419
4268.94 125.185 137.498
4271.84 123.097 130.365
4274.75 130.373 140.154
4277.65 124.943 137.144
4280.56 127.827 137.916
4283.47 124.76 136.153
4286.37 127.429 139.132
4289.28 123.942 135.841
4292.18 124.21 136.462
4295.09 123.474 136.175
4297.99 125.704 136.023
4300.9 121.602 129.871
4303.81 126.101 138.505
4306.71 122.969 132.064
4309.62 120.274 132.088
4312.52 121.284 131.462
4315.43 119.742 129.951
4318.33 123.954 135.761
4321.24 117.106 128.773
4324.14 116.781 126.913
4327.05 113.714 125.585
4329.96 116.285 127.69
4332.86 109.588 119.817
4335.77 112.319 123.91
4338.67 102.573 113.483
4341.58 106.239 115.234
4344.48 98.2942 107.354
4347.39 107.021 116.921
4350.29 106.915 116.593
4353.2 109.344 119.112
4356.1 107.164 117.43
4359.01 110.322 121.008
4361.91 107.676 118.24
4364.82 109.9 119.79
4367.72 113.417 125.111
4370.63 112.887 124.797
4373.53 112.31 123.515
4376.44 111.375 124.789
4379.34 117.328 130.367
4382.25 117.218 127.803
4385.15 116.496 125.04
4388.06 113.711 124.995
4390.96 114.72 125.766
4393.87 110.132 121.542
4396.77 113.615 124.666
4399.68 111.055 120.163
4402.58 113.363 124.884
4405.48 118.404 128.76
4408.39 115.165 126.31
4411.29 122.991 135.574
4414.2 112.634 124.11
4417.1 111.943 123.997
4420.01 109.789 121.323
4422.91 112.616 125.978
4425.82 113.251 123.635
4428.72 113.202 127.607
4431.62 114.824 126.775
4434.53 110.321 123.249
4437.43 109.03 120.097
4440.34 115.389 129.668
4443.24 114.75 126.377
4446.14 114.719 126.244
4449.05 117.458 129.064
4451.95 105.656 116.181
4454.86 114.109 126.592
4457.76 111.591 124.13
4460.66 111.581 125.333
4463.57 110.281 124.258
4466.47 114.008 127.558
4469.38 106.799 119.957
4472.28 115.505 128.7
4475.18 112.557 126.405
4478.09 111.401 125.055
4480.99 113.651 125.708
4483.9 115.175 129.936
4486.8 109.452 122.132
4489.7 105.522 118.11
4492.61 112.606 125.913
4495.51 115.685 129.448
4498.41 103.259 113.772
4501.32 108.785 123.03
4504.22 110.387 123.753
4507.12 108.175 121.56
4510.03 107.706 121.043
4512.93 109.774 122.157
4515.83 103.145 116.209
4518.74 107.642 120.45
4521.64 112.85 125.529
4524.54 106.045 117.639
4527.45 106.848 120.718
4530.35 106.378 120.215
4533.25 106.569 119.344
4536.15 107.011 119.903
4539.06 104.603 118.101
4541.96 104.87 121.177
4544.86 106.407 120.4
4547.77 105.241 117.793
4550.67 111.529 124.548
4553.57 105.961 120.034
4556.47 99.5067 112.294
4559.38 102.692 114.213
4562.28 101.94 116.07
4565.18 108.035 119.431
4568.08 104.121 115.938
4570.99 102.292 114.688
4573.89 107.749 119.67
4576.79 102.901 116.423
4579.69 101.927 115.168
4582.6 95.9836 109.645
4585.5 107.279 119.976
4588.4 99.3511 111.422
4591.3 103.996 115.274
4594.2 103.083 116.77
4597.11 101.93 115.05
4600.01 101.957 115.053
4602.91 100.649 112.519
4605.81 104.011 116.961
4608.71 99.7657 112.943
4611.62 105.073 118.469
4614.52 102.701 114.399
4617.42 101.047 113.578
4620.32 102.447 117
4623.22 101.98 115.592
4626.13 95.7474 107.894
4629.03 100.076 113.036
4631.93 99.0043 113.061
4634.83 93.8954 104.101
4637.73 104.372 117.85
4640.63 98.619 112.349
4643.53 97.5904 111.321
4646.44 96.0625 110.296
4649.34 103.724 117.38
4652.24 99.7427 114.396
4655.14 96.1195 110.134
4658.04 98.0352 112.194
4660.94 101.562 116.618
4663.84 97.5319 111.962
4666.74 98.4509 111.626
4669.64 98.5852 111.898
4672.55 101.438 114.4
4675.45 97.935 111.643
4678.35 96.2437 112.201
4681.25 99.8573 113.805
4684.15 93.815 107.058
4687.05 95.0147 109.398
4689.95 97.0494 111.439
4692.85 98.2982 111.8
4695.75 93.6006 107.443
4698.65 98.1044 110.853
4701.55 97.4472 112.698
4704.45 97.8187 113.798
4707.35 95.7928 110.687
4710.25 98.4447 113.962
4713.15 95.5115 108.864
4716.05 97.7365 112.874
4718.95 98.101 111.089
4721.85 98.792 114.358
4724.75 95.6739 111.118
4727.65 96.4168 111.516
4730.55 94.0027 107.208
4733.45 98.9943 113.206
4736.35 98.525 111.435
4739.25 93.3901 108.37
4742.15 92.3244 108.317
4745.05 90.9814 105.987
4747.95 91.4974 106.663
4750.85 92.5286 106.616
4753.75 90.5032 103.875
4756.65 95.9864 110.06
4759.55 92.4819 107.414
4762.45 93.4602 106.032
4765.35 94.0209 110.024
4768.25 89.8352 103.949
4771.15 95.4913 109.289
4774.05 89.7958 103.634
4776.95 87.8468 101.715
4779.85 89.8858 104.349
4782.74 87.1126 100.945
4785.64 91.558 106.469
4788.54 87.0339 100.892
4791.44 86.6414 99.1268
4794.34 87.2333 101.092
4797.24 86.4332 99.9769
4800.14 85.9864 99.5565
4803.04 82.885 95.149
4805.93 83.1497 95.9184
4808.83 84.0819 97.8355
4811.73 85.8555 99.3538
4814.63 83.8724 96.3
4817.53 86.2988 100.425
4820.43 83.7934 97.5324
4823.33 84.3002 98.0725
4826.22 88.8959 102.997
4829.12 89.0035 102.427
4832.02 83.3422 95.7038
4834.92 83.1803 96.0456
4837.82 83.1804 96.5381
4840.71 84.0596 99.6846
4843.61 83.5491 96.8673
4846.51 83.309 96.559
4849.41 83.0676 96.9265
4852.3 80.5139 92.7629
4855.2 77.9747 91.0787
4858.1 78.0693 88.9608
4861 73.2994 85.1548
4863.89 73.5115 84.5278
4866.79 79.5452 90.8145
4869.69 79.9331 92.9792
4872.59 80.7372 93.8611
4875.48 82.9357 95.9583
4878.38 79.902 95.0798
4881.28 85.7619 101.283
4884.18 86.5463 100.453
4887.07 81.6217 96.7597
4889.97 88.2319 101.633
4892.87 83.276 96.8192
4895.76 88.0385 102.279
4898.66 90.54 102.746
4901.56 88.5576 103.919
4904.45 86.0853 100.394
4907.35 88.8299 104.613
4910.25 86.3295 100.271
4913.14 87.6777 103.236
4916.04 89.2064 103.14
4918.94 85.9676 101.739
4921.83 90.0486 104.377
4924.73 82.1903 96.4889
4927.62 85.7587 101.006
4930.52 86.3143 100.112
4933.42 86.8906 99.6765
4936.31 85.1595 99.4646
4939.21 85.7703 99.3609
4942.1 85.2398 97.5499
4945 84.7694 97.4679
4947.9 87.5691 103.46
4950.79 85.9843 100.823
4953.69 82.2544 96.3812
4956.58 80.9507 93.9956
4959.48 82.219 95.7417
4962.37 82.7342 98.6712
4965.27 81.1829 92.8613
4968.16 76.481 88.5216
4971.06 79.491 93.7502
4973.95 83.1206 96.5996
4976.85 83.603 97.7377
4979.74 80.5471 96.0104
4982.64 80.9385 94.5125
4985.53 82.5774 98.2334
4988.43 81.3772 94.1117
4991.32 80.1813 96.2135
4994.22 81.1638 94.889
4997.11 85.0808 100.048
5000.01 82.3125 95.2351
5002.9 82.883 96.8198
5005.8 79.6112 93.309
5008.69 80.244 93.9205
5011.59 84.715 97.9992
5014.48 83.3503 97.9351
5017.37 83.2328 95.5406
5020.27 85.8542 98.2158
5023.16 82.2712 96.92
5026.06 81.8813 95.2509
5028.95 78.5979 92.0007
5031.84 81.5807 94.1825
5034.74 83.822 98.0787
5037.63 80.2049 92.283
5040.52 82.264 95.8816
5043.42 82.3153 94.7768
5046.31 81.0821 95.232
5049.21 82.3933 96.4793
5052.1 83.8511 98.1632
5054.99 76.8384 88.8844
5057.89 85.8135 99.621
5060.78 80.3236 93.6641
5063.67 78.0195 92.419
5066.56 82.7999 95.6883
5069.46 80.8688 94.2442
5072.35 83.2605 97.627
5075.24 79.0496 92.9097
5078.14 77.832 91.452
5081.03 83.3999 97.261
5083.92 76.9713 88.8121
5086.81 79.8446 93.4335
5089.71 79.6368 94.4201
5092.6 76.7479 91.3505
5095.49 78.2733 92.0848
5098.38 78.626 92.2573
5101.28 75.2751 88.962
5104.17 75.238 88.267
5107.06 74.7779 88.8863
5109.95 77.8894 92.7358
5112.84 73.3925 86.4618
5115.74 74.8208 90.5353
5118.63 78.8236 93.15
5121.52 73.229 86.3579
5124.41 74.5796 87.7489
5127.3 77.3532 91.1864
5130.19 76.255 89.6066
5133.09 72.8327 85.8818
5135.98 76.1937 88.2889
5138.87 74.8022 88.9941
5141.76 73.5658 87.6875
5144.65 76.824 90.18
5147.54 71.9914 83.5814
5150.43 71.2828 84.5729
5153.32 77.1426 91.5702
5156.21 75.0892 88.4898
5159.1 75.2861 89.7617
5162 74.118 87.7811
5164.89 78.1748 93.7922
5167.78 73.619 87.2366
5170.67 73.8227 86.1214
5173.56 75.4409 89.4959
5176.45 75.5443 90.1601
5179.34 75.9345 89.012
5182.23 76.4422 89.8655
5185.12 75.7128 89.2369
5188.01 75.0089 89.2218
5190.9 74.6623 88.2292
5193.79 72.3757 85.9599
5196.68 74.4863 89.0875
5199.57 75.8333 89.7324
5202.46 75.2332 88.788
5205.35 76.1703 90.5691
5208.24 76.2196 89.773
5211.13 73.575 86.6862
5214.01 76.746 91.4156
5216.9 73.26 86.8366
5219.79 77.6018 91.5477
5222.68 74.2432 88.2504
5225.57 76.5986 92.281
5228.46 75.1327 88.9874
5231.35 74.4255 90.0518
5234.24 72.9052 89.0517
5237.13 73.1437 86.8967
5240.02 76.7982 89.8887
5242.9 77.331 91.8691
5245.79 74.7874 89.0573
5248.68 73.875 88.192
5251.57 71.9544 85.0907
5254.46 73.0103 87.2108
5257.35 72.4587 87.9566
5260.23 74.0512 87.6943
5263.12 74.9581 89.2268
5266.01 75.262 89.4798
5268.9 73.0633 88.3176
5271.78 74.7305 87.9233
5274.67 73.1745 86.7878
5277.56 74.403 88.3058
5280.45 74.4745 89.9406
5283.33 71.354 86.148
5286.22 71.1372 85.2643
5289.11 69.5106 83.5042
5292 75.8923 90.6117
5294.88 71.5852 84.7504
5297.77 71.1264 84.7502
5300.66 75.3078 88.9048
5303.54 65.0318 85.0839
5306.43 66.6052 86.2016
5309.32 63.4483 82.1652
5312.2 66.2515 87.1751
5315.09 66.0395 86.5386
5317.98 63.5252 82.805
5320.86 60.4131 83.8366
5323.75 62.8876 81.4101
5326.64 63.4968 82.2249
5329.52 60.7606 84.3785
5332.41 61.1234 84.6507
5335.29 61.872 80.5928
5338.18 62.2572 80.1803
5341.07 58.5971 79.9189
5343.95 65.3203 83.4685
5346.84 63.0495 84.1395
5349.72 61.9557 80.5859
5352.61 66.3324 86.6511
5355.49 65.0361 83.3866
5358.38 59.7905 81.8546
5361.26 59.8009 82.8501
5364.15 65.5477 84.9851
5367.03 61.3649 80.5667
5369.92 64.2843 82.5182
5372.8 62.4748 80.7245
5375.69 64.9595 84.4091
5378.57 61.5525 79.396
5381.46 64.5257 84.0552
5384.34 64.9714 83.9286
5387.23 62.9516 82.4234
5390.11 63.2695 81.8153
5393 63.4443 81.3928
5395.88 60.0926 78.3094
5398.76 62.433 81.0005
5401.65 59.5742 77.338
5404.53 62.1886 80.9702
5407.42 60.188 78.0065
5410.3 62.4451 79.3762
5413.18 63.8923 82.9628
5416.07 63.6277 81.6301
5418.95 64.5489 83.17
5421.83 60.3731 77.1028
5424.72 58.777 76.1248
5427.6 62.0424 80.7714
5430.48 61.9836 79.3163
5433.37 57.4238 77.5001
5436.25 57.8962 78.9563
5439.13 58.6001 78.5673
5442.01 62.3704 79.6796
5444.9 60.9444 77.9053
5447.78 62.1028 79.4037
5450.66 61.7899 79.1728
5453.55 60.2587 78.192
5456.43 60.4523 78.0516
5459.31 58.7575 76.1111
5462.19 60.4336 78.4457
5465.07 60.8855 78.0883
5467.96 58.9173 75.8103
5470.84 59.046 75.4998
5473.72 59.75 76.8341
5476.6 55.0572 75.824
5479.48 59.9718 77.3328
5482.36 61.3297 78.7784
5485.25 59.1906 75.3837
5488.13 57.0566 78.2375
5491.01 56.7568 77.3808
5493.89 60.6625 78.6744
5496.77 55.4213 75.8462
5499.65 55.1744 75.2732
5502.53 59.6964 76.7727
5505.41 56.8914 73.6115
5508.29 59.5732 78.1166
5511.17 58.4559 73.8874
5514.05 58.9423 77.1184
5516.93 55.9259 72.3371
5519.81 59.9729 77.2676
5522.7 56.9083 72.7813
5525.58 56.8723 72.0474
5528.46 58.2124 75.6117
5531.34 56.3624 76.2066
5534.21 56.0569 70.8757
5537.09 57.5768 72.8874
5539.97 60.0323 77.8838
5542.85 60.4749 77.0438
5545.73 54.1624 70.2068
5548.61 55.0181 71.8514
5551.49 55.2806 70.4473
5554.37 57.1087 71.7068
5557.25 54.3225 73.5062
5560.13 58.0917 73.7105
5563.01 58.2712 72.4443
5565.89 57.348 73.166
5568.77 63.0818 80.5186
5571.64 34.7231 65.6797
5574.52 31.6834 74.5487
5577.4 55.107 68.8857
5580.28 55.8349 77.849
5583.16 59.3561 73.7316
5586.04 58.9358 77.1966
5588.91 57.3238 73.6726
5591.79 44.3183 68.8145
5594.67 59.6563 73.6439
5597.55 49.4704 70.1772
5600.42 56.6518 72.1907
5603.3 54.1874 68.6443
5606.18 52.0439 72.0296
5609.06 53.226 68.8834
5611.93 55.7688 71.3832
5614.81 56.2234 71.059
5617.69 52.3789 71.5556
5620.56 54.1007 68.0634
5623.44 55.8516 69.2458
5626.32 54.5131 71.1247
5629.19 50.8816 69.3402
5632.07 51.9415 69.2089
5634.95 57.426 72.1173
5637.82 51.9409 65.7566
5640.7 53.1758 67.2748
5643.58 54.7205 68.6024
5646.45 54.1127 68.7844
5649.33 54.8382 68.9635
5652.2 53.0804 66.7545
5655.08 49.5759 67.5125
5657.96 52.3559 66.7754
5660.83 53.7134 67.2727
5663.71 53.9832 67.699
5666.58 53.6022 72.5454
5669.46 49.1144 67.1759
5672.33 49.6543 66.7246
5675.21 54.4806 68.577
5678.08 52.3703 66.5178
5680.96 54.9343 68.174
5683.83 51.6754 66.192
5686.71 52.8059 67.425
5689.58 52.6706 65.9745
5692.46 49.5303 66.7268
5695.33 51.6875 66.3835
5698.2 53.2578 67.7301
5701.08 51.5939 65.4466
5703.95 48.5947 60.5993
5706.83 49.7497 66.1119
5709.7 52.492 65.7993
5712.57 51.2932 64.8915
5715.45 54.4356 66.9979
5718.32 52.3979 66.9357
5721.19 51.0345 62.6892
5724.07 52.3474 65.7746
5726.94 50.6852 63.662
5729.81 53.1427 66.6433
5732.69 48.3141 65.9522
5735.56 50.8484 63.0031
5738.43 49.7584 60.8464
5741.3 52.6604 64.5337
5744.18 49.8412 63.9368
5747.05 51.4065 64.6082
5749.92 51.9683 64.665
5752.79 51.0032 63.075
5755.67 49.2184 60.1015
5758.54 54.8749 67.602
5761.41 48.2086 60.9319
5764.28 47.3678 64.4036
5767.15 41.8525 58.1887
5770.02 47.4739 65.2575
5772.9 47.088 62.0216
5775.77 52.2582 64.8492
5778.64 49.8247 61.5351
5781.51 49.6865 60.9504
5784.38 49.794 62.499
5787.25 48.2594 58.476
5790.12 47.3639 62.6875
5792.99 45.3665 62.2046
5795.86 48.3623 60.7758
5798.73 44.158 59.8795
5801.6 45.4808 60.7306
5804.47 47.9611 58.6639
5807.34 45.7158 57.509
5810.21 50.4787 62.0702
5813.08 48.9541 60.237
5815.95 49.3425 60.5597
5818.82 49.2957 62.3371
5821.69 49.6379 61.0634
5824.56 52.4045 65.15
5827.43 46.5344 61.8246
5830.3 48.3295 59.5328
5833.17 43.904 60.7215
5836.04 47.6476 60.4566
5838.91 43.604 58.357
5841.78 48.3542 61.6008
5844.65 45.3 61.4483
5847.52 49.5028 60.4401
5850.38 43.2573 58.8382
5853.25 48.7536 61.1761
5856.12 45.6216 60.3604
5858.99 46.9332 57.5697
5861.86 49.5429 59.27
5864.72 49.756 62.1405
5867.59 49.6654 61.1453
5870.46 49.9976 62.879
5873.33 43.4141 60.721
5876.2 49.9274 61.2384
5879.06 38.9897 55.5479
5881.93 48.3228 60.5532
5884.8 50.5916 58.4771
5887.66 46.4714 56.012
5890.53 44.0517 53.5774
5893.4 30.5327 54.8942
5896.26 45.3795 54.4391
5899.13 42.7678 54.0009
5902 45.3907 56.5096
5904.86 46.7054 58.1539
5907.73 45.9825 56.4187
5910.6 44.2611 54.6683
5913.46 46.249 57.5847
5916.33 45.6033 54.8448
5919.19 48.2442 57.4653
5922.06 47.3343 56.7948
5924.92 41.5588 56.2422
5927.79 43.3884 58.5038
5930.66 47.4526 58.1721
5933.52 40.8075 56.0088
5936.39 41.6227 56.8053
5939.25 44.2083 54.8291
5942.12 48.4848 59.0925
5944.98 43.3588 54.3984
5947.85 46.0611 56.8028
5950.71 40.82 55.393
5953.57 45.7341 56.933
5956.44 46.5211 54.7555
5959.3 42.2385 51.9327
5962.17 40.0351 53.2484
5965.03 46.7194 56.1664
5967.89 37.9304 51.9069
5970.76 44.3164 52.3797
5973.62 46.683 56.3396
5976.48 47.2473 57.3408
5979.35 46.524 56.2668
5982.21 37.6824 51.9342
5985.07 45.8009 55.0449
5987.94 43.5469 51.042
5990.8 41.8099 55.2251
5993.66 45.2176 53.6479
5996.53 43.3403 56.1658
5999.39 44.7541 54.4773
6002.25 44.933 53.9057
6005.11 41.0803 49.4639
6007.97 45.5661 55.0515
6010.84 47.2942 57.2172
6013.7 39.1919 52.6112
6016.56 41.9911 50.5189
6019.42 43.4047 53.2052
6022.28 40.7413 53.4625
6025.14 41.6645 50.4303
6028.01 43.2838 52.1078
6030.87 40.8699 50.1045
6033.73 41.3483 50.5499
6036.59 40.4874 51.2847
6039.45 45.7073 53.7971
6042.31 41.6098 50.5104
6045.17 41.4473 50.5549
6048.03 39.4325 51.7251
6050.89 42.2969 49.7803
6053.75 44.219 53.0766
6056.61 46.7827 54.5418
6059.47 43.4356 50.6928
6062.33 43.4123 50.7014
6065.19 41.4995 50.895
6068.05 46.9497 56.1958
6070.91 39.6102 51.7598
6073.77 38.8413 51.2278
6076.63 43.1116 51.0991
6079.49 43.7455 52.7498
6082.35 43.2761 52.3649
6085.21 44.382 53.7036
6088.07 45.1045 52.9566
6090.92 42.7493 51.7015
6093.78 41.4833 50.2051
6096.64 41.253 49.636
6099.5 43.373 51.7282
6102.36 43.5569 51.4641
6105.21 39.0639 47.9653
6108.07 41.2123 49.5688
6110.93 37.5335 49.135
6113.79 38.6404 50.6663
6116.65 44.1404 53.7308
6119.5 42.5275 51.1081
6122.36 40.7618 48.8064
6125.22 42.7506 49.7839
6128.07 41.92 48.3266
6130.93 43.6099 53.8842
6133.79 185.918 183.005
6136.64 53.7732 56.0746
6139.5 42.0105 48.744
6142.36 37.592 49.2433
6145.21 41.8918 48.4866
6148.07 42.8391 49.1762
6150.92 39.6528 45.7787
6153.78 39.533 47.749
6156.64 40.6921 47.621
6159.49 42.0652 50.1366
6162.35 37.3744 47.5989
6165.2 39.4988 45.4352
6168.06 34.972 45.6479
6170.91 41.1831 47.7652
6173.77 43.9105 51.2305
6176.62 39.2557 45.5962
6179.48 43.1981 49.8927
6182.33 41.8825 49.7183
6185.19 40.265 46.1617
6188.04 40.9723 46.7562
6190.89 43.1229 50.0209
6193.75 40.2238 47.3913
6196.6 38.9957 48.9229
6199.46 36.115 47.2224
6202.31 42.3183 49.018
6205.16 35.6999 46.4377
6208.02 41.6604 48.7615
6210.87 40.9939 46.9222
6213.72 39.7446 46.54
6216.58 39.2004 45.6814
6219.43 35.8719 45.635
6222.28 41.6583 48.2216
6225.13 42.5539 49.4491
6227.99 38.8708 45.8699
6230.84 41.0649 45.8626
6233.69 39.9806 45.0992
6236.54 44.1446 48.8044
6239.39 34.5218 49.2381
6242.25 43.1603 47.6476
6245.1 42.1774 49.9451
6247.95 39.4201 44.9638
6250.8 41.9334 46.5767
6253.65 34.8395 46.237
6256.5 41.0532 45.2122
6259.35 34.9798 48.3423
6262.21 39.7025 45.859
6265.06 39.4951 45.1737
6267.91 37.9228 43.7236
6270.76 34.3145 45.1887
6273.61 37.0586 43.8237
6276.46 39.742 44.711
6279.31 37.6589 42.9911
6282.16 32.3792 42.0609
6285.01 38.1322 43.2615
6287.86 35.8926 41.4673
6290.71 39.1819 45.5687
6293.56 39.5838 42.7879
6296.41 36.8483 41.0384
6299.25 24.0249 45.4491
6302.1 39.3661 43.5851
6304.95 38.7076 40.9098
6307.8 39.8024 44.8037
6310.65 30.8144 43.7892
6313.5 40.9123 47.0542
6316.35 40.9927 44.31
6319.19 38.2736 44.0788
6322.04 37.6004 43.0987
6324.89 40.5265 45.4013
6327.74 42.3976 47.3526
6330.59 33.0735 45.3807
6333.43 43.8953 50.4989
6336.28 37.5844 43.3657
6339.13 31.1997 40.9223
6341.97 35.9149 44.9277
6344.82 36.3516 43.8297
6347.67 31.8327 43.9084
6350.51 38.5371 45.1705
6353.36 34.4023 43.7618
6356.21 29.9419 43.2034
6359.05 35.2911 45.077
6361.9 39.6813 47.0749
6364.75 29.6216 42.485
6367.59 28.4711 41.9494
6370.44 33.9418 41.5814
6373.28 32.3113 44.4573
6376.13 36.8717 44.2291
6378.97 37.171 43.907
6381.82 32.5988 42.4862
6384.66 34.2992 41.9209
6387.51 32.7211 41.4826
6390.35 36.2675 42.0704
6393.2 36.797 43.5761
6396.04 32.76 42.4048
6398.89 34.9208 40.8118
6401.73 37.303 45.5854
6404.57 33.3872 43.1238
6407.42 37.112 44.0078
6410.26 36.8067 44.1547
6413.1 32.2113 40.6274
6415.95 35.5402 40.7586
6418.79 35.8972 42.5871
6421.63 37.9329 44.4628
6424.48 35.4477 43.3539
6427.32 33.9951 39.0467
6430.16 32.6379 42.0061
6433.01 35.0751 41.0223
6435.85 35.5034 42.0973
6438.69 34.9371 41.3315
6441.53 31.9176 40.4326
6444.37 36.7584 40.7778
6447.22 32.6389 40.2961
6450.06 33.5837 42.3345
6452.9 36.5712 39.6416
6455.74 35.7194 40.6257
6458.58 36.8355 42.5151
6461.42 35.2318 41.0068
6464.26 33.9468 38.5996
6467.11 29.1354 41.2056
6469.95 35.2613 39.2485
6472.79 27.7984 37.5887
6475.63 35.907 40.4657
6478.47 33.1162 39.1068
6481.31 35.6042 42.6291
6484.15 35.738 41.5277
6486.99 33.7721 39.4922
6489.83 33.7864 38.5644
6492.67 33.3873 37.6401
6495.51 28.4979 39.9977
6498.34 32.1369 36.5774
6501.18 30.8123 35.7317
6504.02 33.9845 40.4857
6506.86 34.4724 38.0929
6509.7 36.2577 40.2993
6512.54 33.9086 37.8594
6515.38 32.2718 36.9107
6518.22 30.4823 40.4352
6521.05 34.1798 38.4637
6523.89 30.0594 38.6955
6526.73 33.0904 41.394
6529.57 30.768 38.6718
6532.4 32.8351 36.2406
6535.24 33.3888 38.179
6538.08 33.128 36.0972
6540.92 28.5226 36.268
6543.75 32.8815 37.7552
6546.59 30.29 32.7711
6549.43 30.576 34.3477
6552.26 31.6597 34.911
6555.1 31.1487 34.1248
6557.93 22.3027 32.9714
6560.77 28.865 33.2617
6563.61 30.6419 33.3107
6566.44 29.8724 31.873
6569.28 25.1123 33.3249
6572.11 25.7782 33.7828
6574.95 32.4193 33.8916
6577.78 30.2251 34.0072
6580.62 31.9709 32.0866
6583.45 29.3236 34.3619
6586.29 34.1388 36.7333
6589.12 28.8786 34.9024
6591.96 30.4065 33.3181
6594.79 33.7625 39.7125
6597.62 35.3867 38.1561
6600.46 32.9978 36.719
6603.29 32.9892 35.4478
6606.13 31.7974 33.8431
6608.96 33.4789 37.3582
6611.79 26.0781 33.5592
6614.63 33.1637 37.0961
6617.46 31.9918 34.4712
6620.29 33.6753 37.1362
6623.12 35.4871 38.4708
6625.96 33.5361 36.0173
6628.79 32.718 35.7537
6631.62 31.5582 34.6597
6634.45 30.3459 32.3432
6637.28 31.8808 33.9721
6640.12 32.3474 35.8642
6642.95 31.1405 34.3729
6645.78 31.1181 34.7527
6648.61 33.9348 35.5414
6651.44 32.6811 35.5942
6654.27 30.8541 37.0376
6657.1 34.2388 36.8571
6659.93 34.2301 34.5183
6662.76 33.7772 37.1208
6665.59 30.6873 36.7149
6668.42 26.0694 30.6376
6671.25 34.4089 37.5387
6674.08 30.6314 32.2285
6676.91 30.8114 32.9163
6679.74 33.3119 37.8786
6682.57 32.4062 33.2786
6685.4 34.5008 36.3408
6688.23 32.6878 36.6916
6691.06 30.7011 33.1908
6693.89 33.8921 34.5953
6696.72 33.3885 34.438
6699.55 29.0192 33.0095
6702.37 32.6116 34.8476
6705.2 33.9396 35.2796
6708.03 33.2299 33.2302
6710.86 29.8379 35.248
6713.69 31.4159 31.6516
6716.51 31.0268 32.4162
6719.34 33.3976 34.0058
6722.17 34.5497 35.9485
6725 30.5286 35.1557
6727.82 33.8065 34.7759
6730.65 28.8021 34.3088
6733.48 29.264 31.4286
6736.3 30.3456 32.5461
6739.13 30.7461 32.1864
6741.95 26.1808 31.6491
6744.78 32.6694 32.3628
6747.61 27.3031 32.4775
6750.43 30.4228 34.7246
6753.26 31.8398 32.3818
6756.08 33.1092 34.4899
6758.91 33.3797 33.7766
6761.73 32.1591 34.0431
6764.56 31.3692 32.7065
6767.38 33.0986 34.3781
6770.21 34.213 34.5184
6773.03 33.2964 33.2581
6775.86 30.9499 32.4625
6778.68 31.4246 31.6556
6781.5 28.7251 28.7281
6784.33 28.9932 30.7593
6787.15 29.939 30.7687
6789.97 30.6541 31.5911
6792.8 31.9667 32.4423
6795.62 28.5179 29.9199
6798.44 31.0356 31.0367
6801.27 31.8274 30.9363
6804.09 28.6067 29.9868
6806.91 29.428 32.7893
6809.73 29.7731 29.5979
6812.55 29.7357 30.3802
6815.38 28.9411 29.7167
6818.2 32.367 33.4154
6821.02 30.8601 29.6547
6823.84 33.0553 32.8836
6826.66 28.0272 28.235
6829.48 25.2434 34.0833
6832.3 33.7793 31.4568
6835.12 26.7518 24.3371
6837.95 29.6833 30.4395
6840.77 25.9446 31.7076
6843.59 28.9876 29.1667
6846.41 26.2172 26.4361
6849.23 28.842 29.0006
6852.05 28.6188 28.5799
6854.87 30.6631 29.7656
6857.69 21.5046 27.6398
6860.5 27.491 24.8869
6863.32 26.3707 26.2692
6866.14 25.6166 25.4131
6868.96 14.6288 21.7053
6871.78 22.8794 21.554
6874.6 24.5446 23.693
6877.42 23.2121 26.348
6880.23 28.0975 29.2641
6883.05 25.1733 29.0803
6885.87 25.6454 24.0027
6888.69 24.6667 24.8551
6891.51 27.3836 27.3888
6894.32 27.137 26.2501
6897.14 28.217 26.4014
6899.96 24.8614 23.2903
6902.77 22.7915 26.4454
6905.59 28.8886 27.759
6908.41 24.2942 28.1921
6911.22 30.2368 27.8438
6914.04 28.2474 26.1543
6916.85 26.246 24.6669
6919.67 28.8534 26.9196
6922.49 31.2846 27.4573
6925.3 27.3597 26.6963
6928.12 28.8013 26.9917
6930.93 29.7015 28.5407
6933.75 24.5058 21.3059
6936.56 23.8205 26.2011
6939.38 29.1453 27.3312
6942.19 26.9599 26.432
6945 28.0605 25.9242
6947.82 26.6538 24.9539
6950.63 30.3554 28.251
6953.45 26.3343 23.9032
6956.26 28.9259 29.4056
6959.07 25.0589 24.3415
6961.89 31.0254 29.4073
6964.7 27.0337 23.734
6967.51 30.9414 30.3468
6970.32 24.6145 27.7352
6973.14 30.853 29.8899
6975.95 28.2258 24.6873
6978.76 24.5184 21.4249
6981.57 28.5805 26.9472
6984.39 28.4679 25.9554
6987.2 24.2646 24.6305
6990.01 28.7207 25.3707
6992.82 27.7869 24.999
6995.63 31.568 29.5098
6998.44 28.0587 26.4547
7001.25 30.0164 28.7506
7004.06 29.7529 28.1228
7006.87 28.4754 26.7236
7009.68 29.1715 26.2209
7012.49 24.2651 22.9015
7015.3 28.7349 26.6553
7018.11 28.187 25.7024
7020.92 30.4614 28.1875
7023.73 28.3527 27.2831
7026.54 28.7938 26.1746
7029.35 26.5413 26.8404
7032.16 28.0336 26.201
7034.97 26.9515 25.2063
7037.78 28.1017 26.0074
7040.59 28.4843 25.8855
7043.39 25.7058 27.2143
7046.2 27.5334 23.8195
7049.01 29.2103 27.0386
7051.82 25.0993 24.9582
7054.63 25.3949 25.1846
7057.43 27.2526 24.7517
7060.24 26.6138 23.1179
7063.05 29.0729 25.4723
7065.85 25.3993 23.538
7068.66 28.2769 25.7413
7071.47 24.2193 26.0016
7074.27 28.1592 26.1301
7077.08 23.4249 24.6146
7079.88 26.0532 22.2847
7082.69 28.3736 26.7182
7085.5 28.6141 24.3667
7088.3 23.2057 22.8221
7091.11 26.3614 22.5971
7093.91 24.5555 23.677
7096.72 27.0837 24.7135
7099.52 27.1629 26.1191
7102.33 25.0955 22.2232
7105.13 25.9934 23.7688
7107.93 27.8055 23.7131
7110.74 27.2826 25.2172
7113.54 23.4584 21.8068
7116.34 30.5806 26.8793
7119.15 29.9815 26.4722
7121.95 29.9066 26.8608
7124.75 25.6954 24.8287
7127.56 26.2452 22.7963
7130.36 28.1532 26.2142
7133.16 29.1636 26.516
7135.96 28.4888 23.5459
7138.77 24.7329 22.0145
7141.57 28.3634 24.1727
7144.37 29.6057 25.5658
7147.17 28.4508 24.3992
7149.97 28.0851 25.7897
7152.77 23.3109 22.0035
7155.58 27.8247 24.4902
7158.38 25.9034 24.7264
7161.18 26.9055 25.3283
7163.98 25.1832 22.9937
7166.78 23.0985 23.5282
7169.58 25.2995 22.7585
7172.38 23.2897 18.8867
7175.18 25.4265 20.8249
7177.98 24.24 22.3768
7180.78 25.0325 21.8234
7183.58 22.9808 19.8792
7186.38 21.018 20.3294
7189.17 24.0621 19.5626
7191.97 24.9328 22.0918
7194.77 24.2049 20.3561
7197.57 23.2614 19.8564
7200.37 24.3229 19.9187
7203.17 22.8515 19.177
7205.96 25.3445 20.6925
7208.76 26.7144 20.3088
7211.56 27.3327 21.4792
7214.36 23.6721 22.4904
7217.15 23.5344 19.3527
7219.95 25.3842 20.9084
7222.75 24.9162 19.5791
7225.54 25.4982 20.6843
7228.34 25.7978 22.3145
7231.14 25.9697 22.2492
7233.93 24.6551 18.1607
7236.73 23.6145 16.7391
7239.52 27.0296 24.1865
7242.32 24.0866 20.9758
7245.11 24.7497 21.0765
7247.91 22.7682 15.8039
7250.7 18.241 16.736
7253.5 21.8698 21.5097
7256.29 21.7762 19.0125
7259.09 20.7368 17.2458
7261.88 22.4876 16.999
7264.67 21.7763 18.8428
7267.47 17.7855 20.5954
7270.26 24.028 20.1951
7273.05 23.5878 19.9861
7275.85 19.9871 12.9361
7278.64 2.67529 18.1063
7281.43 3.88969 20.7566
7284.23 9.99469 22.5085
7287.02 12.7471 20.9773
7289.81 24.4406 18.6907
7292.6 11.428 19.211
7295.39 23.5761 19.8771
7298.19 23.0559 21.056
7300.98 23.3944 18.8247
7303.77 22.7254 17.3019
7306.56 22.557 19.5026
7309.35 23.8733 18.9395
7312.14 21.3039 17.7814
7314.93 23.2891 16.3197
7317.72 25.5605 18.594
7320.51 10.1439 18.5616
7323.3 18.9703 17.3055
7326.09 23.5893 23.6852
7328.88 20.3825 14.7366
7331.67 20.2111 22.3846
7334.46 24.9639 16.8546
7337.25 26.4427 21.9304
7340.04 19.0077 9.54307
7342.83 3.01036 20.1387
7345.61 25.5488 26.3804
7348.4 16.1059 19.7483
7351.19 22.8088 18.8473
7353.98 23.4749 17.4433
7356.77 23.4865 17.6785
7359.55 22.8733 18.8501
7362.34 23.7127 16.6139
7365.13 25.4734 17.3085
7367.91 23.7482 21.2365
7370.7 21.4528 18.5385
7373.49 21.0498 20.8631
7376.27 14.1968 14.6724
7379.06 22.6343 16.0116
7381.85 20.9032 17.5172
7384.63 22.951 17.5321
7387.42 24.4217 18.3269
7390.2 22.7932 18.4396
7392.99 23.3655 20.6905
7395.77 23.6172 18.0078
7398.56 23.8994 19.4864
7401.34 22.008 19.5359
7404.13 10.6554 13.6595
7406.91 15.829 17.2856
7409.69 23.9129 17.8862
7412.48 22.6451 16.0399
7415.26 24.0447 18.7174
7418.04 24.1045 18.9642
7420.83 19.7937 16.3375
7423.61 23.0263 18.9646
7426.39 23.2542 18.9468
7429.18 20.8334 18.0858
7431.96 15.6081 16.1739
7434.74 14.9367 19.9833
7437.52 24.7751 17.5432
7440.3 21.5719 16.4914
7443.09 23.5259 19.3199
7445.87 24.5253 19.9657
7448.65 23.2774 16.6586
7451.43 23.3544 20.1087
7454.21 23.7992 20.2042
7456.99 22.5239 18.2786
7459.77 23.7354 17.7186
7462.55 21.6794 15.1281
7465.33 14.7988 17.9492
7468.11 26.4239 19.5758
7470.89 24.9001 18.5191
7473.67 22.9161 18.6828
7476.45 20.9446 17.5914
7479.23 20.8492 16.2923
7482.01 14.1827 18.8849
7484.79 23.1916 17.3368
7487.56 18.7556 15.859
7490.34 20.7815 16.8027
7493.12 25.0061 15.6977
7495.9 21.8419 17.537
7498.68 20.9482 14.9783
7501.45 24.9703 20.7824
7504.23 23.5828 16.2918
7507.01 24.1111 15.6175
7509.78 21.5811 16.1684
7512.56 21.8842 15.8888
7515.34 23.505 18.6872
7518.11 11.8337 13.9012
7520.89 20.9111 14.0525
7523.67 25.2108 15.2615
7526.44 19.1553 14.8024
7529.22 22.3671 15.9114
7531.99 17.8158 17.3616
7534.77 14.7048 15.3114
7537.54 22.4622 16.746
7540.32 21.2147 15.094
7543.09 19.9791 16.4269
7545.87 16.4229 14.9974
7548.64 21.0383 14.9152
7551.41 22.4493 15.6358
7554.19 22.9762 16.7617
7556.96 16.7933 16.601
7559.73 21.6924 15.2536
7562.51 23.2157 16.782
7565.28 19.9196 12.7762
7568.05 23.8399 13.7393
7570.82 20.7907 14.9687
7573.6 20.6993 14.3469
7576.37 17.7681 12.2552
7579.14 23.3447 16.6369
7581.91 20.168 12.2731
7584.68 18.421 14.6012
7587.45 15.7372 13.4909
7590.23 15.2094 10.112
7593 13.8053 8.69023
7595.77 7.37573 7.60861
7598.54 7.17049 6.31154
7601.31 8.43961 6.61316
7604.08 7.54481 4.93385
7606.85 6.57202 5.9466
7609.62 9.27289 6.43831
7612.39 10.6438 6.01643
7615.15 15.6182 10.6069
7617.92 14.7136 9.65473
7620.69 14.6119 8.89807
7623.46 11.3496 8.69536
7626.23 12.9888 5.98382
7629 14.7228 9.81757
7631.77 15.8038 9.72266
7634.53 8.26859 5.86898
7637.3 15.0777 11.1187
7640.07 13.9354 8.93284
7642.83 13.8119 8.08413
7645.6 13.1455 10.7217
7648.37 15.3076 8.99835
7651.13 14.5319 7.92701
7653.9 13.4513 9.632
7656.67 16.5368 9.18619
7659.43 18.5899 10.1887
7662.2 16.3899 10.181
7664.96 14.7881 10.562
7667.73 19.8948 12.7046
7670.49 21.6522 14.771
7673.26 19.5917 11.4786
7676.02 17.6996 13.7651
7678.79 20.2279 13.635
7681.55 21.9758 15.3731
7684.32 17.9396 11.1992
7687.08 18.3984 12.4567
7689.84 18.3682 14.4709
7692.61 15.7414 8.80971
7695.37 21.192 11.7781
7698.13 22.1642 12.1597
7700.9 15.4289 8.8145
7703.66 22.777 13.1953
7706.42 17.1786 9.66848
7709.18 22.8781 9.7848
7711.94 26.7643 12.3334
7714.71 20.4817 9.90987
7717.47 21.4151 5.25015
7720.23 23.1931 16.987
7722.99 18.4643 11.7378
7725.75 18.4567 12.9638
7728.51 20.5651 10.1059
7731.27 16.0113 14.3197
7734.03 18.4547 11.3852
7736.79 15.6707 9.71315
7739.55 20.994 12.2132
7742.31 21.7427 12.6702
7745.07 16.036 9.13481
7747.83 26.8234 13.5221
7750.59 22.4251 13.6976
7753.35 23.1047 12.677
7756.1 17.5464 12.4938
7758.86 22.0381 11.4626
7761.62 15.3751 10.4796
7764.38 18.9715 9.25832
7767.14 20.9622 14.0129
7769.89 16.9299 11.6
7772.65 20.8465 12.5927
7775.41 19.9819 13.2283
7778.16 22.0104 9.6975
7780.92 24.2587 13.422
7783.68 18.2117 10.2396
7786.43 13.3221 14.7923
7789.19 19.457 16.5857
7791.94 22.0766 8.16952
7794.7 18.6412 10.2993
7797.46 18.1728 11.3284
7800.21 9.33837 12.971
7802.97 16.4529 9.98737
7805.72 22.1029 12.7799
7808.47 23.9991 9.72824
7811.23 16.1954 12.4415
7813.98 8.14648 8.42812
7816.74 26.1133 12.6473
7819.49 -7.43937 7.75384
7822.24 28.3473 15.2109
7825 12.9352 7.12471
7827.75 17.9441 12.3535
7830.5 19.8247 10.493
7833.25 15.809 10.8019
7836.01 10.5604 7.14913
7838.76 23.6927 8.5649
7841.51 22.594 12.7184
7844.26 22.6635 13.0476
7847.01 21.4807 11.6009
7849.76 19.7653 14.1843
7852.51 22.1269 4.23612
7855.27 24.5774 5.57364
7858.02 -4.47909 6.61614
7860.77 16.0232 12.9855
7863.52 1.33175 9.50283
7866.27 20.7186 5.5524
7869.02 -0.780845 7.2869
7871.77 18.707 5.02596
7874.51 19.5781 6.6117
7877.26 21.4911 15.2493
7880.01 20.9069 9.59558
7882.76 4.90271 9.40277
7885.51 -3.17984 7.71064
7888.26 2.6797 9.78997
7891 20.3229 11.3849
7893.75 20.926 8.51596
7896.5 19.9073 9.67736
7899.25 19.4139 10.0067
7901.99 15.2105 9.38765
7904.74 20.4029 10.4833
7907.49 22.1335 5.73704
7910.23 20.129 4.40537
7912.98 -14.7994 3.01524
7915.73 18.7954 13.581
7918.47 19.3342 4.07519
7921.22 17.7525 5.90452
7923.96 13.4039 5.02762
7926.71 18.5991 11.1407
7929.45 16.4433 6.52311
7932.2 18.1542 11.0934
7934.94 10.4666 7.09171
7937.68 19.3963 9.24667
7940.43 20.393 10.5669
7943.17 16.3978 9.94549
7945.91 12.7887 6.63485
7948.66 22.1522 11.1216
7951.4 20.3895 11.0674
7954.14 11.7936 7.94942
7956.89 15.3397 9.07612
7959.63 19.5921 2.68094
7962.37 21.7105 8.2328
7965.11 23.6136 11.2595
7967.85 17.7261 8.71868
7970.6 17.187 13.1221
7973.34 1.74337 3.55933
7976.08 20.4079 10.4288
7978.82 18.8924 7.25193
7981.56 20.8812 8.03565
7984.3 17.4826 7.47035
7987.04 21.9388 14.2152
7989.78 -2.35561 8.83386
7992.52 17.8802 3.70796
7995.26 17.8951 5.38923
7998 19.8463 10.9999
8000.74 10.5397 8.37511
8003.47 16.9802 7.85338
8006.21 14.8632 5.7814
8008.95 19.6432 4.84124
8011.69 20.8693 6.07283
8014.43 20.5978 8.47614
8017.16 16.6064 7.99859
8019.9 18.9356 4.36841
8022.64 17.048 2.30938
8025.38 17.6508 7.09946
8028.11 20.1352 7.45832
8030.85 14.0463 4.05158
8033.59 10.6932 13.0081
8036.32 20.8122 8.7233
8039.06 16.21 6.81666
8041.79 19.0395 8.16693
8044.53 18.6386 7.50008
8047.26 13.88 8.3761
8050 17.3844 7.69687
8052.73 20.2931 4.56217
8055.47 18.4933 3.83181
8058.2 16.7446 5.02143
8060.93 15.6398 3.06199
8063.67 17.5185 3.74791
8066.4 11.4113 6.79583
8069.14 18.5137 6.97223
8071.87 21.9539 9.00434
8074.6 16.6945 5.92318
8077.33 18.4226 6.25817
8080.07 17.6684 7.03864
8082.8 17.6233 10.0094
8085.53 18.5105 8.79487
8088.26 20.1355 8.96367
8090.99 18.3087 8.57977
8093.72 16.7906 7.21052
8096.45 15.0463 -0.0053863
8099.19 18.0741 3.86783
8101.92 13.1385 5.88529
8104.65 18.7802 5.74644
8107.38 15.9262 3.17958
8110.11 16.2035 6.47927
8112.84 14.5405 8.83018
8115.56 16.0887 8.1018
8118.29 16.6205 6.84489
8121.02 14.9904 7.5704
8123.75 14.7413 7.4252
8126.48 18.1253 7.38172
8129.21 12.553 5.39691
8131.94 14.9369 8.22317
8134.66 19.2814 10.4981
8137.39 16.4377 3.31307
8140.12 17.5519 6.50842
8142.84 18.9072 8.01394
8145.57 13.9928 6.25979
8148.3 15.6138 3.65137
8151.02 14.8458 6.46602
8153.75 17.6446 5.5428
8156.48 17.2527 8.77899
8159.2 16.9741 5.34869
8161.93 13.5049 4.5583
8164.65 16.542 6.0834
8167.38 15.4734 7.28096
8170.1 14.9249 6.46274
8172.83 15.0715 7.29347
8175.55 14.0186 6.15015
8178.27 15.3365 6.93623
8181 16.22 8.27498
8183.72 14.2149 7.97803
8186.44 13.2059 7.63362
8189.17 12.2211 6.12461
8191.89 14.7238 6.64079
8194.61 15.0147 5.86358
8197.33 15.1666 4.71569
8200.06 15.1076 4.97827
8202.78 12.2461 7.61099
8205.5 17.4706 6.90068
8208.22 14.9713 7.95258
8210.94 15.5942 6.84673
8213.66 14.624 6.99614
8216.38 15.4133 5.86434
8219.1 17.0845 7.34026
8221.82 15.4471 9.19867
8224.54 15.5628 7.39644
8227.26 11.905 7.74365
8229.98 11.493 5.23191
8232.7 15.2758 3.44039
8235.42 11.4354 8.0766
8238.14 17.2293 9.68037
8240.86 15.6844 7.83025
8243.58 14.8916 4.66888
8246.3 17.9186 7.86904
8249.01 18.4104 8.88251
8251.73 15.4271 5.63251
8254.45 12.1458 5.18501
8257.16 20.3561 8.82349
8259.88 14.5173 5.77798
8262.6 13.9146 5.22573
8265.31 16.8783 5.56711
8268.03 14.7303 2.53198
8270.75 12.8313 4.07374
8273.46 15.6256 4.5055
8276.18 13.0631 2.98275
8278.89 12.8354 5.3372
8281.61 15.2858 -2.82921
8284.32 14.4792 -4.17442
8287.04 12.0621 -3.50001
8289.75 14.3217 -4.65984
8292.46 9.0786 -0.769763
8295.18 14.062 5.62488
8297.89 8.47855 -2.04968
8300.6 20.3789 2.4938
8303.32 15.9746 1.15368
8306.03 8.26291 3.74393
8308.74 14.7456 6.84068
8311.46 10.5641 -2.8709
8314.17 14.0828 3.02346
8316.88 13.3665 7.0851
8319.59 14.7106 1.32828
8322.3 14.8506 5.11428
8325.01 14.3919 8.52827
8327.72 15.5433 6.8191
8330.43 17.3075 5.72634
8333.14 15.1466 4.70497
8335.85 10.4517 1.26289
8338.56 17.4265 0.315771
8341.27 20.3906 0.26185
8343.98 21.8044 -4.55733
8346.69 9.01713 -5.20092
8349.4 -0.2904 -4.54975
8352.11 7.59232 -3.50608
8354.82 17.0283 -1.7094
8357.53 13.0314 -0.94097
8360.23 11.6129 1.17744
8362.94 13.8058 0.161925
8365.65 18.4975 1.3249
8368.36 17.4274 2.49031
8371.06 15.9205 2.10913
8373.77 16.1299 5.30348
8376.48 14.3796 -0.501069
8379.18 16.07 -1.35068
8381.89 18.6541 0.361489
8384.59 20.7183 2.76026
8387.3 12.0103 -1.99851
8390 16.5889 0.678593
8392.71 15.0774 1.99164
8395.41 19.5574 -8.67248
8398.12 11.0515 1.41235
8400.82 15.2152 -15.0842
8403.53 5.66955 -3.98578
8406.23 5.55395 0.428353
8408.93 17.1266 2.50514
8411.64 15.6078 1.63232
8414.34 15.0976 -2.80929
8417.04 16.5289 -0.83651
8419.74 12.0997 -1.1262
8422.45 7.2569 -1.75151
8425.15 13.4801 -6.45826
8427.85 11.878 -6.3587
8430.55 5.71893 -4.10373
8433.25 6.02442 -12.493
8435.95 10.8906 3.47875
8438.65 9.22155 4.79867
8441.35 15.3989 4.56715
8444.05 14.6124 3.69334
8446.75 13.1492 0.622369
8449.45 15.9479 -0.566802
8452.15 9.11523 1.42265
8454.85 8.46808 2.2757
8457.55 14.6223 1.44338
8460.25 16.7452 3.63131
8462.95 12.9852 -7.78991
8465.65 11.5212 -12.8448
8468.34 20.754 -8.8781
8471.04 13.5279 0.605304
8473.74 12.1306 -3.61083
8476.44 14.7174 -0.138609
8479.13 14.9454 1.47475
8481.83 14.1304 4.4077
8484.53 13.4589 2.0202
8487.22 15.2416 1.56677
8489.92 11.383 -1.27178
8492.61 13.4704 -1.92941
8495.31 10.5165 -1.80511
8498.01 19.9241 -4.30576
8500.7 15.06 -2.86612
8503.39 14.0717 -6.91896
8506.09 14.8702 -5.95413
8508.78 15.8829 -3.17801
8511.48 11.1307 -2.68523
8514.17 11.3084 2.4819
8516.86 13.2247 4.13242
8519.56 12.7708 6.68794
8522.25 15.2428 2.91735
8524.94 18.33 3.96311
8527.64 12.7197 4.43084
8530.33 16.0164 4.92548
8533.02 15.3782 3.91704
8535.71 11.3566 -1.12147
8538.4 13.922 0.564187
8541.09 16.2464 0.00325204
8543.78 14.2696 -2.25877
8546.47 12.9644 0.14638
8549.17 12.7354 0.840171
8551.86 12.8047 -0.159197
8554.55 11.4462 -1.04045
8557.23 15.424 0.143944
8559.92 18.1694 4.68385
8562.61 14.5386 5.97295
8565.3 14.8946 3.7065
8567.99 16.3559 4.78885
8570.68 12.0503 2.34008
8573.37 14.8188 0.250351
8576.05 11.7049 1.44077
8578.74 12.4712 2.3057
8581.43 11.3149 0.988823
8584.12 15.6185 5.00524
8586.8 13.338 6.51909
8589.49 12.9367 0.482246
8592.18 10.3895 2.40543
8594.86 7.26455 -2.53259
8597.55 8.90213 -1.11919
8600.23 14.8377 -0.469921
8602.92 13.6497 -0.447252
8605.6 14.9952 2.79075
8608.29 12.1151 1.38682
8610.97 12.6013 4.37617
8613.66 15.0426 -0.819544
8616.34 18.6182 -1.7204
8619.02 13.4613 -6.85371
8621.71 13.7787 -8.8143
8624.39 14.251 -2.56578
8627.07 14.7324 -6.33744
8629.76 9.72064 3.07542
8632.44 12.1365 -0.87094
8635.12 13.8389 -8.52249
8637.8 15.6649 -2.18855
8640.48 11.0403 -5.66961
8643.17 16.9883 0.526794
8645.85 17.8542 -4.60642
8648.53 8.78195 -1.02512
8651.21 12.0039 -5.30038
8653.89 13.8218 -3.44533
8656.57 12.6812 -8.39267
8659.25 8.85946 -2.60373
8661.93 14.5361 -3.71641
8664.61 10.2437 -7.33031
8667.29 13.0424 -1.90852
8669.96 8.34492 -9.06912
8672.64 16.6146 -0.124816
8675.32 7.22791 -0.816791
8678 13.2699 3.68775
8680.68 14.1183 0.407805
8683.35 14.9113 1.19957
8686.03 13.4733 2.7049
8688.71 12.8427 -1.29585
8691.39 14.6721 3.81237
8694.06 14.5423 -0.094597
8696.74 10.3437 0.949853
8699.41 13.1831 1.83097
8702.09 13.0206 1.47226
8704.76 12.4306 0.0296503
8707.44 14.7173 0.906973
8710.11 12.9148 0.781748
8712.79 14.6836 2.94123
8715.46 11.893 2.26071
8718.14 14.8709 3.91769
8720.81 12.0161 3.4192
8723.48 14.1745 2.27406
8726.16 15.7849 4.18977
8728.83 13.4723 3.80438
8731.5 13.7472 1.74833
8734.18 13.1969 4.54791
8736.85 14.3733 2.63256
8739.52 14.748 3.92828
8742.19 15.0427 3.34396
8744.86 11.2002 4.21106
8747.53 15.0203 2.39859
8750.2 11.6777 4.77766
8752.88 10.7527 -3.46675
8755.55 12.7493 -1.02909
8758.22 12.0368 -11.0023
8760.89 15.7632 3.50475
8763.56 6.38693 -5.70237
8766.22 14.5956 -2.59507
8768.89 17.2401 0.358418
8771.56 9.44506 10.0349
8774.23 17.0037 -0.806861
8776.9 12.5148 2.73197
8779.57 10.9362 -10.8515
8782.23 14.8147 -3.1813
8784.9 14.2542 -5.23326
8787.57 12.7344 1.43574
8790.24 15.5164 -2.58247
8792.9 10.4051 -3.74015
8795.57 17.334 -1.14515
8798.23 9.29763 -3.01711
8800.9 13.1595 1.2192
8803.57 14.2951 1.43889
8806.23 10.8748 4.5204
8808.9 10.2302 4.37916
8811.56 15.4166 4.05363
8814.22 12.3565 3.24727
8816.89 14.454 2.23575
8819.55 14.6407 -4.63998
8822.22 16.4233 3.93297
8824.88 13.6522 -2.60602
8827.54 30.8857 -11.0635
8830.21 20.7579 1.08517
8832.87 13.5849 -8.951
8835.53 4.16413 14.0817
8838.19 13.3158 -0.455216
8840.85 11.748 5.55756
8843.52 -0.442552 10.3953
8846.18 7.50649 6.05913
8848.84 10.7825 5.356
8851.5 11.5456 -1.16137
8854.16 14.3323 0.230259
8856.82 9.61168 -2.46533
8859.48 13.1977 -1.33249
8862.14 9.78841 0.666558
8864.8 10.6018 1.66658
8867.46 8.92959 -3.85792
8870.12 10.4119 -5.80497
8872.77 15.8711 -2.19017
8875.43 12.7423 7.69853
8878.09 12.977 -0.494348
8880.75 12.1566 -2.65909
8883.41 9.89696 -10.427
8886.06 14.9639 -14.1807
8888.72 4.01949 -4.54798
8891.38 -3.09714 9.66183
8894.03 6.56282 20.2322
8896.69 5.68615 10.4683
8899.34 9.91416 -0.202207
8902 7.48595 1.87494
8904.65 25.8593 -7.56612
8907.31 9.595 -2.08164
8909.96 6.94718 -4.1673
8912.62 7.55082 -1.5322
8915.27 6.04961 -7.37271
8917.93 7.80411 -14.2351
8920.58 14.1318 -10.3745
8923.23 6.92271 -6.63647
8925.89 7.50087 -8.06751
8928.54 2.35226 -10.1981
8931.19 6.33417 -6.10992
8933.84 10.4796 -1.81727
8936.5 11.5066 -10.8457
8939.15 10.7751 -8.45557
8941.8 9.7018 -7.37491
8944.45 13.8628 -4.00655
8947.1 14.7256 -5.02948
8949.75 10.794 -0.465859
8952.4 5.48538 -5.50026
8955.05 11.5368 -13.3648
8957.7 11.0689 -15.5903
8960.35 20.376 -8.47405
8963 7.84463 -7.01292
8965.65 -2.81802 -24.7194
8968.3 3.9587 -25.2136
8970.95 4.64438 -17.3519
8973.59 8.1608 -11.3848
8976.24 12.4738 0.521624
8978.89 6.92767 0.907777
8981.54 11.2875 -0.0459862
8984.18 9.96959 -3.04692
8986.83 9.68377 -4.40978
8989.48 9.75789 -6.22168
8992.12 2.04316 0.629356
8994.77 6.02197 -2.60274
8997.41 2.47779 -12.3839
9000.06 7.67203 -0.770718
9002.7 6.0715 -6.86015
9005.35 4.90179 -3.23496
9007.99 3.12473 -27.9528
9010.64 2.1992 -26.286
9013.28 6.95967 -13.6244
9015.92 7.10473 -13.0731
9018.57 10.3741 -2.77761
9021.21 12.1585 -0.00611564
9023.85 10.2944 -3.48105
9026.5 8.61273 0.987459
9029.14 8.79779 0.224296
9031.78 9.27639 -4.65169
9034.42 12.3854 -0.43879
9037.06 11.7213 -3.58134
9039.7 16.8488 -1.07342
9042.35 12.4919 -1.3501
9044.99 9.63398 -2.59345
9047.63 5.36998 -7.38468
9050.27 13.5343 0.792102
9052.91 10.8888 6.27749
9055.54 11.5613 -8.89006
9058.18 6.55653 -10.5291
9060.82 7.75826 -16.7506
9063.46 11.8992 -12.58
9066.1 8.28553 -0.676177
9068.74 12.5658 -6.77846
9071.38 14.2211 0.257951
9074.01 10.9885 -1.95747
