wavelength spec_sum spec_optimal
3538.02 134.285 110.235
3540.93 147.425 114.061
3543.84 130.193 103.558
3546.75 127.495 98.1379
3549.67 161.391 126.504
3552.58 145.921 115.637
3555.49 161.006 123.233
3558.4 210.108 139.073
3561.31 144.922 117.857
3564.23 144.804 121.266
3567.14 166.571 134.257
3570.05 176.052 138.697
3572.96 173.197 146.47
3575.88 149.551 131.694
3578.79 159.047 136.157
3581.7 155.279 125.753
3584.61 162.437 139.164
3587.52 169.82 146.582
3590.44 162.986 145.074
3593.35 162.781 141.507
3596.26 163.144 138.363
3599.17 163.537 137.94
3602.08 160.512 135.908
3605 143.641 120.14
3607.91 150.247 131.349
3610.82 163.844 148.028
3613.73 167.115 139.187
3616.64 168.693 151.504
3619.56 171.053 156.499
3622.47 173.618 148.118
3625.38 171.076 149.552
3628.29 174.328 150.958
3631.2 166.426 153.559
3634.12 173.477 153.597
3637.03 171.641 154.05
3639.94 172.207 156.078
3642.85 163.887 145.84
3645.76 169.224 145.841
3648.68 176.998 155.245
3651.59 169.251 150.667
3654.5 173.406 146.592
3657.41 174.062 153.331
3660.32 173.859 152.061
3663.24 174.172 158.355
3666.15 166.525 151.891
3669.06 159.656 141.529
3671.97 156.563 138.736
3674.88 176.783 158.494
3677.8 170.06 151.672
3680.71 159.583 140.795
3683.62 157.3 132.422
3686.53 163.38 150.036
3689.44 158.473 143.126
3692.35 171.232 151.753
3695.27 179.503 166.523
3698.18 169.204 150.064
3701.09 157.176 141.935
3704 151.294 135.518
3706.91 154.357 135.565
3709.83 153.297 143.951
3712.74 162.553 152.672
3715.65 179.945 160.197
3718.56 176.297 158.45
3721.47 174.322 160.28
3724.39 173.982 154.807
3727.3 156.291 140.838
3730.21 167.975 152.329
3733.12 166.757 144.58
3736.03 174.124 160.07
3738.94 178.061 162.463
3741.86 172.417 156.59
3744.77 228.54 238.532
3747.68 185.511 174.599
3750.59 146.244 131.7
3753.5 284.342 286.607
3756.41 174.134 158.956
3759.33 157.203 143.471
3762.24 171.403 154.925
3765.15 164.822 147.503
3768.06 177.692 158.493
3770.97 169.763 156.509
3773.88 165.092 153.143
3776.8 175.691 160.253
3779.71 165.18 155.728
3782.62 164.897 149.257
3785.53 162.721 156.044
3788.44 162.878 151.15
3791.35 152.364 139.182
3794.27 164.21 151.312
3797.18 168.154 161.846
3800.09 161.507 154.53
3803 177.253 171.859
3805.91 164.812 153.893
3808.82 178.604 166.67
3811.74 170.832 160.378
3814.65 171.647 158.565
3817.56 171.485 157.404
3820.47 174.54 164.58
3823.38 168.157 152.843
3826.29 172.84 161.076
3829.2 163.63 152.747
3832.12 159.501 151.054
3835.03 156.07 150.533
3837.94 161 152.006
3840.85 161.224 148.313
3843.76 173.547 159.488
3846.67 168.4 156.323
3849.58 162.605 149.737
3852.5 171.639 159.599
3855.41 161.991 153.273
3858.32 170.148 158.396
3861.23 165.848 154.478
3864.14 153.849 141.767
3867.05 162.341 151.3
3869.96 151.306 141.873
3872.87 145.788 134.56
3875.79 145.371 138.102
3878.7 148.683 137.413
3881.61 139.502 127.739
3884.52 147.257 139.17
3887.43 148.824 142.629
3890.34 149.635 144.452
3893.25 153.557 140.986
3896.16 146.295 135.435
3899.07 153.423 148.483
3901.99 158.433 149.97
3904.9 164.799 155.268
3907.81 160.817 155.586
3910.72 155.57 148.409
3913.63 166.356 155.985
3916.54 154.739 149.948
3919.45 169.352 159.106
3922.36 170.104 159.642
3925.27 164.344 157.844
3928.18 166.397 158.588
3931.1 155.216 151.092
3934.01 172.978 164.336
3936.92 170.661 163.627
3939.83 167.727 161.798
3942.74 166.777 158.155
3945.65 163.238 158.997
3948.56 158.46 151.007
3951.47 164.488 160.244
3954.38 154.753 161.33
3957.29 154.599 164.575
3960.2 152.529 158.597
3963.11 148.724 153.18
3966.02 152.896 154.566
3968.94 140.609 147.346
3971.85 147.09 152.853
3974.76 145.061 147.206
3977.67 144.767 145.896
3980.58 155.193 163.31
3983.49 144.516 146.133
3986.4 155.829 159.037
3989.31 154.436 161.309
3992.22 155.5 161.154
3995.13 151.831 156.43
3998.04 156.122 162.404
4000.95 157.617 165.482
4003.86 159.756 166.89
4006.77 156.498 162.535
4009.68 156.167 164.15
4012.59 164.311 172.074
4015.5 158.942 165.519
4018.41 163.662 169.001
4021.32 163.404 172.049
4024.23 168.282 177.158
4027.14 164.006 168.934
4030.05 161.333 168.092
4032.96 156.678 164.26
4035.88 156.345 165.431
4038.79 159.971 167.159
4041.7 150.671 157.922
4044.61 159.463 171.905
4047.52 157.373 165.82
4050.43 153.75 159.009
4053.34 158.861 164.906
4056.25 153.382 165.53
4059.16 161.043 169.483
4062.07 146.261 150.346
4064.98 154.029 161.591
4067.89 157.803 164.228
4070.8 155.68 165.485
4073.71 147.975 158.317
4076.62 136.197 144.889
4079.53 145.688 153.143
4082.43 140.383 148.795
4085.34 149.65 155.601
4088.25 147.469 156.395
4091.16 140.121 146.747
4094.07 143.555 154.131
4096.98 138.972 148.076
4099.89 136.144 142.827
4102.8 128.644 138.3
4105.71 139.301 146.935
4108.62 136.533 144.995
4111.53 132.07 141.564
4114.44 133.863 143.484
4117.35 140.884 149.416
4120.26 136.988 148.205
4123.17 148.354 155.601
4126.08 139.111 146.33
4128.99 146.392 157.77
4131.9 146.841 154.356
4134.81 140.019 147.774
4137.72 149.539 156.709
4140.63 148.697 158.006
4143.54 148.556 159.998
4146.44 148.275 156.111
4149.35 149.728 159.251
4152.26 150.073 160.739
4155.17 154.352 161.942
4158.08 146.029 153.751
4160.99 149.44 162.088
4163.9 149.465 161.58
4166.81 152.7 160.212
4169.72 149.347 157.154
4172.63 149.976 160.338
4175.54 151.835 161.738
4178.44 146.297 154.965
4181.35 144.256 155.235
4184.26 145.49 154.879
4187.17 142.858 152.113
4190.08 146.322 159.748
4192.99 149.256 160.823
4195.9 143.827 153.369
4198.81 147.456 157.217
4201.71 148.726 158.217
4204.62 144.923 155.549
4207.53 143.658 154.843
4210.44 141.436 149.037
4213.35 142.415 149.643
4216.26 146.432 157.027
4219.17 139.587 151.027
4222.07 144.037 154.241
4224.98 137.28 144.965
4227.89 139.556 151.08
4230.8 142.007 149.254
4233.71 139.344 150.311
4236.62 140.658 151.41
4239.52 131.623 142.445
4242.43 133.587 143.254
4245.34 136.717 142.925
4248.25 136.037 142.762
4251.16 139.559 150.481
4254.07 137.248 149.636
4256.97 138.071 147.332
4259.88 140.11 150.225
4262.79 137.297 148.053
4265.7 136.015 146.969
4268.61 136.878 150.341
4271.51 134.6 142.547
4274.42 142.563 153.259
4277.33 136.63 149.972
4280.24 139.79 150.824
4283.14 136.444 148.904
4286.05 139.368 152.168
4288.96 135.56 148.573
4291.87 135.856 149.257
4294.78 135.054 148.946
4297.68 137.495 148.783
4300.59 133.009 142.054
4303.5 137.93 151.497
4306.41 134.5 144.448
4309.31 131.549 144.47
4312.22 132.645 143.777
4315.13 130.95 142.114
4318.04 135.541 148.452
4320.94 128.041 140.797
4323.85 127.668 138.745
4326.76 124.298 137.274
4329.66 127.091 139.556
4332.57 119.751 130.929
4335.48 122.714 135.378
4338.39 112.045 123.962
4341.29 116.03 125.854
4344.2 107.332 117.224
4347.11 116.839 127.648
4350.01 116.702 127.266
4352.92 119.331 129.991
4355.83 116.929 128.13
4358.73 120.355 132.012
4361.64 117.445 128.968
4364.55 119.852 130.637
4367.45 123.667 136.418
4370.36 123.071 136.055
4373.27 122.423 134.636
4376.17 121.389 136.009
4379.08 127.862 142.071
4381.99 127.728 139.262
4384.89 126.931 136.239
4387.8 123.887 136.182
4390.71 124.979 137.013
4393.61 119.978 132.408
4396.52 123.769 135.808
4399.43 120.98 130.901
4402.33 123.494 136.045
4405.24 128.988 140.27
4408.14 125.465 137.606
4411.05 133.996 147.705
4413.96 122.719 135.222
4416.86 121.974 135.108
4419.77 119.635 132.204
4422.68 122.726 137.286
4425.58 123.429 134.745
4428.49 123.385 139.087
4431.39 125.166 138.193
4434.3 120.269 134.362
4437.2 118.873 130.939
4440.11 125.82 141.39
4443.02 125.135 137.815
4445.92 125.115 137.684
4448.83 128.116 140.774
4451.73 115.254 126.735
4454.64 124.488 138.106
4457.54 121.752 135.433
4460.45 121.751 136.757
4463.35 120.344 135.596
4466.26 124.419 139.207
4469.17 116.56 130.921
4472.07 126.07 140.472
4474.98 122.858 137.973
4477.88 121.603 136.508
4480.79 124.063 137.225
4483.69 125.733 141.846
4486.6 119.487 133.329
4489.5 115.197 128.94
4492.41 122.933 137.459
4495.31 126.294 141.319
4498.22 112.726 124.203
4501.12 118.758 134.31
4504.03 120.503 135.094
4506.93 118.084 132.696
4509.83 117.568 132.127
4512.74 119.818 133.335
4515.64 112.576 126.835
4518.55 117.476 131.454
4521.45 123.15 136.986
4524.36 115.713 128.364
4527.26 116.579 131.712
4530.17 116.053 131.148
4533.07 116.248 130.182
4535.98 116.714 130.775
4538.88 114.074 128.793
4541.78 114.35 132.13
4544.69 116.008 131.263
4547.59 114.72 128.403
4550.5 121.555 135.744
4553.4 115.469 130.804
4556.3 108.418 122.35
4559.21 111.871 124.422
4562.11 111.033 126.424
4565.02 117.652 130.062
4567.92 113.371 126.238
4570.82 111.362 124.857
4573.73 117.283 130.258
4576.63 111.988 126.704
4579.53 110.91 125.318
4582.44 104.427 119.29
4585.34 116.698 130.51
4588.24 108.059 121.188
4591.15 113.093 125.359
4594.05 112.086 126.968
4596.95 110.819 125.082
4599.86 110.833 125.069
4602.76 109.399 122.301
4605.66 113.041 127.116
4608.57 108.415 122.736
4611.47 114.173 128.729
4614.37 111.585 124.295
4617.28 109.777 123.391
4620.18 111.289 127.098
4623.08 110.772 125.557
4625.98 103.994 117.187
4628.89 108.685 122.761
4631.79 107.513 122.777
4634.69 101.956 113.037
4637.59 113.322 127.956
4640.5 107.064 121.97
4643.4 105.937 120.843
4646.3 104.269 119.718
4649.2 112.573 127.394
4652.11 108.238 124.14
4655.01 104.294 119.5
4657.91 106.359 121.719
4660.81 110.17 126.501
4663.72 105.781 121.432
4666.62 106.761 121.047
4669.52 106.888 121.322
4672.42 109.96 124.012
4675.32 106.142 120.999
4678.23 104.287 121.578
4681.13 108.178 123.288
4684.03 101.609 115.952
4686.93 102.883 118.458
4689.83 105.06 120.637
4692.73 106.385 120.998
4695.64 101.274 116.251
4698.54 106.119 119.909
4701.44 105.38 121.872
4704.34 105.753 123.029
4707.24 103.535 119.633
4710.14 106.372 123.139
4713.04 103.175 117.6
4715.94 105.551 121.899
4718.85 105.917 119.941
4721.75 106.637 123.438
4724.65 103.246 119.912
4727.55 104.023 120.314
4730.45 101.396 115.64
4733.35 106.758 122.084
4736.25 106.231 120.15
4739.15 100.676 116.824
4742.05 99.5106 116.748
4744.95 98.0487 114.22
4747.85 98.5921 114.934
4750.75 99.6923 114.87
4753.65 97.5009 111.907
4756.55 103.4 118.56
4759.46 99.6167 115.701
4762.36 100.665 114.205
4765.26 101.264 118.5
4768.16 96.7518 111.952
4771.06 102.84 117.699
4773.96 96.7031 111.605
4776.86 94.6016 109.536
4779.76 96.7948 112.37
4782.66 93.8047 108.7
4785.56 98.5887 114.645
4788.46 93.7141 108.636
4791.35 93.2889 106.732
4794.25 93.922 108.843
4797.15 93.0555 107.637
4800.05 92.5685 107.177
4802.95 89.223 102.425
4805.85 89.4995 103.243
4808.75 90.4938 105.296
4811.65 92.3917 106.918
4814.55 90.2454 103.617
4817.45 92.8417 108.039
4820.35 90.1304 104.908
4823.25 90.6576 105.469
4826.15 95.5799 110.741
4829.05 95.6732 110.103
4831.94 89.5643 102.849
4834.84 89.366 103.188
4837.74 89.3406 103.688
4840.64 90.2588 107.036
4843.54 89.6823 103.978
4846.44 89.3951 103.613
4849.34 89.1056 103.972
4852.23 86.3358 99.4705
4855.13 83.5826 97.629
4858.03 83.6528 95.3232
4860.93 78.5118 91.2103
4863.83 78.7097 90.5049
4866.73 85.1366 97.198
4869.62 85.5169 99.4743
4872.52 86.3431 100.378
4875.42 88.6601 102.582
4878.32 85.3834 101.602
4881.21 91.6092 108.189
4884.11 92.4119 107.261
4887.01 87.1216 103.28
4889.91 94.1433 108.442
4892.81 88.8246 103.27
4895.7 93.8735 109.058
4898.6 96.5101 109.52
4901.5 94.3684 110.738
4904.39 91.7076 106.951
4907.29 94.6056 111.415
4910.19 91.9189 106.763
4913.09 93.3304 109.892
4915.98 94.9375 109.766
4918.88 91.471 108.252
4921.78 95.7926 111.035
4924.67 87.4184 102.626
4927.57 91.1964 107.411
4930.47 91.7725 106.442
4933.36 92.3735 105.966
4936.26 90.5192 105.725
4939.16 91.1572 105.601
4942.05 90.5832 103.665
4944.95 90.0742 103.567
4947.85 93.0406 109.925
4950.74 91.3492 107.114
4953.64 87.3802 102.387
4956.53 85.9897 99.8466
4959.43 87.3319 101.696
4962.33 87.8737 104.801
4965.22 86.2233 98.6269
4968.12 81.2259 94.0134
4971.01 84.4208 99.5643
4973.91 88.2726 102.587
4976.81 88.7828 103.793
4979.7 85.5357 101.957
4982.6 85.9492 100.364
4985.49 87.6874 104.312
4988.39 86.4102 99.9323
4991.28 85.1374 102.16
4994.18 86.1769 100.75
4997.07 90.3312 106.222
4999.97 87.3866 101.106
5002.86 87.9859 102.781
5005.76 84.5053 99.0451
5008.65 85.1683 99.6841
5011.55 89.9029 104.001
5014.44 88.4426 103.919
5017.34 88.3042 101.362
5020.23 91.0691 104.182
5023.13 87.251 102.787
5026.02 86.8181 100.994
5028.92 83.3158 97.5231
5031.81 86.4538 99.8084
5034.7 88.8021 103.906
5037.6 84.9415 97.7329
5040.49 87.0905 101.507
5043.39 87.1108 100.298
5046.28 85.7705 100.739
5049.17 87.1204 102.015
5052.07 88.6217 103.748
5054.96 81.1728 93.8984
5057.86 90.6118 105.191
5060.75 84.775 98.8548
5063.64 82.3042 97.4945
5066.54 87.3053 100.895
5069.43 85.2299 99.3266
5072.32 87.7104 102.845
5075.22 83.2364 97.8307
5078.11 81.9195 96.2547
5081 87.7433 102.326
5083.9 80.9471 93.3996
5086.79 83.9376 98.2231
5089.68 83.6907 99.2265
5092.57 80.629 95.9701
5095.47 82.2072 96.7129
5098.36 82.5568 96.8696
5101.25 79.0217 93.3898
5104.14 78.9688 92.6439
5107.04 78.4748 93.2806
5109.93 81.7328 97.3117
5112.82 77.0106 90.7242
5115.71 78.5101 94.9995
5118.61 82.7148 97.7484
5121.5 76.8526 90.6311
5124.39 78.2831 92.1063
5127.28 81.2126 95.736
5130.17 80.0823 94.1041
5133.07 76.5149 90.2237
5135.96 80.0787 92.7906
5138.85 78.6538 93.5764
5141.74 77.396 92.253
5144.63 80.874 94.934
5147.52 75.8391 88.0486
5150.41 75.1504 89.1617
5153.31 81.3976 96.6211
5156.2 79.3049 93.4577
5159.09 79.5937 94.8975
5161.98 78.445 92.9057
5164.87 82.8375 99.3864
5167.76 78.1104 92.5588
5170.65 78.435 91.5021
5173.54 80.2732 95.2285
5176.43 80.5106 96.0873
5179.32 81.0634 95.0241
5182.21 81.7521 96.1079
5185.1 81.1264 95.6176
5187.99 80.5333 95.7929
5190.88 80.3286 94.9252
5193.77 78.0371 92.6839
5196.66 80.4917 96.2702
5199.55 82.1341 97.1881
5202.44 81.673 96.3881
5205.33 82.8843 98.5522
5208.22 83.1336 97.9165
5211.11 80.4386 94.773
5214 84.1029 100.179
5216.89 80.4695 95.3822
5219.78 85.4338 100.787
5222.67 81.9192 97.3745
5225.56 84.7018 102.043
5228.45 83.255 98.6074
5231.34 82.6365 99.9868
5234.23 81.1021 99.0639
5237.12 81.5118 96.8383
5240.01 85.7249 100.337
5242.9 86.4485 102.701
5245.78 83.7157 99.6891
5248.67 82.7896 98.8342
5251.56 80.7145 95.4501
5254.45 81.9608 97.9021
5257.34 81.3855 98.7928
5260.23 83.2024 98.5315
5263.11 84.2342 100.269
5266 84.5737 100.551
5268.89 82.0878 99.2261
5271.78 83.9326 98.7499
5274.67 82.1463 97.4286
5277.55 83.4763 99.0745
5280.44 83.4979 100.838
5283.33 79.9355 96.5086
5286.22 79.6226 95.4348
5289.11 77.7284 93.3764
5291.99 84.7803 101.224
5294.88 79.8852 94.5767
5297.77 79.2881 94.4753
5300.65 83.8588 98.9997
5303.54 72.3369 94.6414
5306.43 74.0071 95.7812
5309.32 70.4248 91.1998
5312.2 73.4614 96.662
5315.09 73.1549 95.8626
5317.98 70.3052 91.6427
5320.86 70.7275 92.7064
5323.75 69.488 89.9546
5326.63 70.1149 90.7949
5329.52 70.8542 93.12
5332.41 71.043 93.3766
5335.29 68.2241 88.8669
5338.18 68.6286 88.386
5341.07 64.5798 88.0786
5343.95 71.9789 91.977
5346.84 69.4708 92.7087
5349.72 68.2638 88.7908
5352.61 73.0879 95.4759
5355.49 71.6646 91.8853
5358.38 69.5988 90.207
5361.27 69.5831 91.3167
5364.15 72.2584 93.6858
5367.04 67.6599 88.8314
5369.92 67.4168 91.0017
5372.81 68.9119 89.042
5375.69 71.6679 93.1261
5378.58 67.923 87.6132
5381.46 71.2181 92.7731
5384.34 71.7229 92.6501
5387.23 69.5042 91.0028
5390.11 66.7045 90.3431
5393 70.0639 89.8851
5395.88 66.3661 86.4846
5398.77 68.9512 89.4572
5401.65 65.7914 85.409
5404.54 68.6722 89.412
5407.42 66.4544 86.1281
5410.3 68.9345 87.6252
5413.19 70.517 91.5649
5416.07 70.208 90.0723
5418.95 71.2049 91.7461
5421.84 66.578 85.0272
5424.72 61.493 83.9214
5427.6 68.3729 89.0129
5430.49 68.2828 87.377
5433.37 66.7027 85.3441
5436.25 67.3168 86.9136
5439.14 67.937 86.4504
5442.02 68.6006 87.6389
5444.9 63.3828 85.6528
5447.79 68.2508 87.2644
5450.67 67.8797 86.9758
5453.55 66.1717 85.8649
5456.43 66.359 85.6779
5459.31 64.4748 83.5169
5462.2 66.2904 86.0481
5465.08 66.7638 85.6276
5467.96 64.5858 83.1041
5470.84 64.7085 82.7403
5473.73 65.463 84.1805
5476.61 63.7958 83.0547
5479.49 65.6772 84.6898
5482.37 67.1519 86.257
5485.25 64.7992 82.5267
5488.13 66.1083 85.6384
5491.01 62.1175 84.6895
5493.9 62.8151 86.095
5496.78 64.5225 82.9914
5499.66 64.3675 82.3567
5502.54 65.3086 83.9901
5505.42 62.235 80.5255
5508.3 65.1638 85.4475
5511.18 63.9372 80.8157
5514.06 64.4647 84.3437
5516.94 61.1614 79.1089
5519.82 62.02 84.4949
5522.7 62.2266 79.5831
5525.58 62.1821 78.774
5528.46 59.7167 82.6635
5531.34 65.0361 83.3054
5534.22 57.4764 77.469
5537.1 58.9067 79.6577
5539.98 65.5993 85.1062
5542.86 66.0724 84.175
5545.74 59.1652 76.6916
5548.62 60.0882 78.4728
5551.5 56.2876 76.9232
5554.38 58.3592 78.2808
5557.26 63.3267 80.2262
5560.14 63.3866 80.429
5563.02 63.5659 79.0269
5565.9 62.5419 79.7927
5568.77 68.7762 87.787
5571.65 57.9429 71.588
5574.53 65.221 81.2313
5577.41 60.0292 75.0386
5580.29 60.804 84.7773
5583.17 64.6192 80.2694
5586.04 49.1047 84.0166
5588.92 62.3694 80.1571
5591.8 58.2889 74.8492
5594.68 64.8688 80.0786
5597.56 59.9581 76.2869
5600.43 56.7914 78.4535
5603.31 54.3709 74.5787
5606.19 60.9876 78.2356
5609.07 57.797 74.799
5611.94 56.4 77.4942
5614.82 61.0222 77.124
5617.7 56.8367 77.6455
5620.58 58.6925 73.8402
5623.45 60.5799 75.108
5626.33 59.1167 77.1312
5629.21 59.3086 75.1821
5632.08 60.1726 75.0268
5634.96 62.2429 78.1665
5637.83 56.2886 71.2609
5640.71 53.5519 72.8948
5643.59 59.2827 74.322
5646.46 58.6157 74.5082
5649.34 59.3928 74.6914
5652.22 57.4807 72.2884
5655.09 57.5634 73.099
5657.97 56.6801 72.2905
5660.84 58.1414 72.8185
5663.72 58.425 73.2693
5666.59 61.8973 78.5029
5669.47 57.0817 72.6814
5672.34 57.6098 72.1818
5675.22 58.9269 74.1738
5678.09 56.6349 71.9345
5680.97 59.3972 73.7126
5683.84 55.8634 71.5565
5686.72 57.0746 72.8754
5689.59 56.9169 71.2933
5692.47 53.5122 72.0911
5695.34 51.6183 71.7046
5698.22 57.5137 73.1425
5701.09 55.704 70.6602
5703.96 52.4533 65.4112
5706.84 57.4842 71.3441
5709.71 56.6323 70.9892
5712.58 51.4426 69.9922
5715.46 58.6995 72.2458
5718.33 56.4877 72.1602
5721.21 51.1863 67.5649
5724.08 56.4042 70.872
5726.95 50.5245 68.578
5729.82 57.2317 71.771
5732.7 56.0576 71.0086
5735.57 54.733 67.8162
5738.44 53.5464 65.4784
5741.32 56.6554 69.4294
5744.19 53.6094 68.7706
5747.06 55.2799 69.4764
5749.93 52.2694 69.5215
5752.81 50.7457 67.797
5755.68 52.8917 64.587
5758.55 58.9583 72.6324
5761.42 51.7856 65.453
5764.29 54.8535 69.1693
5767.17 44.9413 62.4831
5770.04 50.9687 70.0613
5772.91 54.4255 66.576
5775.78 56.0864 69.5997
5778.65 49.6789 66.0323
5781.52 53.3093 65.3946
5784.39 49.7149 67.0456
5787.26 51.7622 62.7204
5790.13 54.6375 67.2273
5793.01 52.6447 66.6992
5795.88 47.9164 65.1571
5798.75 51.3161 64.1863
5801.62 52.5534 65.0882
5804.49 51.3941 62.8631
5807.36 48.98 61.6152
5810.23 54.0737 66.4907
5813.1 52.4312 64.5155
5815.97 52.8375 64.8492
5818.84 52.7773 66.7398
5821.71 53.133 65.363
5824.58 56.0828 69.7228
5827.45 53.6045 66.1495
5830.31 51.6986 63.6829
5833.18 51.3236 64.9388
5836.05 50.9441 64.6393
5838.92 50.5611 62.3783
5841.79 51.6723 65.8279
5844.66 48.3952 65.6469
5847.53 52.8703 64.5516
5850.4 46.1867 62.8227
5853.27 48.0132 65.3
5856.13 52.7071 64.4106
5859 50.0677 61.4146
5861.87 52.8361 63.2098
5864.74 47.0271 66.2514
5867.61 46.544 65.1713
5870.47 53.2742 66.9998
5873.34 46.2459 64.6817
5876.21 53.1689 65.2144
5879.08 47.0465 59.1378
5881.94 51.432 64.4492
5884.81 43.1613 62.2231
5887.68 49.4356 59.5847
5890.54 46.85 56.9808
5893.41 32.4645 58.3674
5896.28 48.2397 57.8703
5899.14 45.4538 57.3923
5902.01 48.2317 60.0465
5904.88 41.9124 61.782
5907.74 48.8428 59.9281
5910.61 47.0065 58.0593
5913.48 49.1101 61.1471
5916.34 48.4174 58.2292
5919.21 51.2141 61.0029
5922.07 50.2414 60.283
5924.94 44.1054 59.6886
5927.8 52.0567 62.0808
5930.67 44.112 61.721
5933.53 49.3738 59.4183
5936.4 44.1507 60.2554
5939.26 46.8872 58.1516
5942.13 51.4158 62.6648
5944.99 45.9735 57.6788
5947.86 48.8315 60.2193
5950.72 49.2143 58.7155
5953.59 42.7689 60.3379
5956.45 49.2946 58.0199
5959.32 44.7482 55.0184
5962.18 47.1024 56.4008
5965.04 44.6018 59.4786
5967.91 45.3188 54.9551
5970.77 46.907 55.4416
5973.64 49.3986 59.6169
5976.5 49.9812 60.6588
5979.36 49.2009 59.5043
5982.23 44.7547 54.9046
5985.09 43.8482 58.1737
5987.95 46.0063 53.9247
5990.81 48.7237 58.3234
5993.68 47.7373 56.6374
5996.54 50.0528 59.274
5999.4 42.308 57.4712
6002.26 42.7494 56.8476
6005.13 43.3067 52.1446
6007.99 48.0186 58.0145
6010.85 49.8226 60.276
6013.71 45.3123 55.4052
6016.57 40.0568 53.1847
6019.44 45.6811 55.9956
6022.3 46.897 56.2502
6025.16 43.8251 53.0455
6028.02 45.5172 54.7965
6030.88 42.9692 52.678
6033.74 39.1077 53.1358
6036.6 46.3081 53.8992
6039.46 48.0309 56.5319
6042.33 43.7206 53.0726
6045.19 39.6212 53.1158
6048.05 45.1456 54.3437
6050.91 40.7574 52.3004
6053.77 42.5938 55.7651
6056.63 45.5768 57.3075
6059.49 45.6412 53.267
6062.35 41.9175 53.2804
6065.21 43.6143 53.4887
6068.07 49.347 59.0652
6070.93 41.6366 54.4078
6073.79 44.502 53.8533
6076.64 45.3245 53.7221
6079.5 45.9939 55.461
6082.36 45.5022 55.0586
6085.22 46.6658 56.4671
6088.08 44.0571 55.6809
6090.94 41.482 54.3587
6093.8 39.966 52.7809
6096.66 43.3639 52.1758
6099.51 45.5843 54.3654
6102.37 45.7669 54.0754
6105.23 44.5853 50.3844
6108.09 43.2756 52.0505
6110.95 39.3961 51.5734
6113.8 43.8231 53.1546
6116.66 42.7662 56.3377
6119.52 44.5621 53.5533
6122.38 42.6817 51.1051
6125.23 44.7302 52.0892
6128.09 43.8261 50.524
6130.95 49.262 56.2878
6133.8 194.049 191.009
6136.66 56.078 58.4781
6139.52 39.416 50.7915
6142.37 43.2699 51.271
6145.23 43.5837 50.4449
6148.08 44.5379 51.1263
6150.94 37.3845 47.5635
6153.8 41.0512 49.5827
6156.65 38.8839 49.4265
6159.51 43.6438 52.0182
6162.36 42.1699 49.3726
6165.22 40.9655 47.1224
6168.07 40.5105 47.3436
6170.93 38.6149 49.5481
6173.78 45.5647 53.1605
6176.64 40.7558 47.3387
6179.49 41.0933 51.8361
6182.35 43.5543 51.7029
6185.2 41.92 48.0591
6188.06 42.7157 48.7457
6190.91 45.031 52.2343
6193.77 42.0821 49.5806
6196.62 40.8817 51.2891
6199.47 41.8421 49.6185
6202.33 40.7099 51.632
6205.18 41.7432 49.0418
6208.03 44.1174 51.6374
6210.89 43.5373 49.8334
6213.74 42.3364 49.5749
6216.59 41.8846 48.8095
6219.45 42.6935 48.9137
6222.3 40.4985 51.8506
6225.15 45.9032 53.3411
6228 36.7755 49.6389
6230.86 44.582 49.7905
6233.71 43.5418 49.1163
6236.56 48.2255 53.316
6239.41 45.623 53.9517
6242.26 40.6226 52.3599
6245.12 46.4776 55.0372
6247.97 43.5522 49.6772
6250.82 46.4413 51.5837
6253.67 44.9995 51.3207
6256.52 38.3261 50.2824
6259.37 38.9693 53.8558
6262.22 44.2943 51.1628
6265.07 44.1147 50.4574
6267.92 42.3976 48.8828
6270.78 43.754 50.5555
6273.63 41.4788 49.0509
6276.48 44.4935 50.0566
6279.33 42.1638 48.1339
6282.18 41.7896 47.0867
6285.03 42.6767 48.4172
6287.88 40.153 46.3893
6290.73 36.5708 50.9492
6293.57 44.2281 47.8081
6296.42 41.1399 45.8181
6299.27 45.7535 50.6992
6302.12 43.8731 48.5752
6304.97 28.7646 45.5494
6307.82 32.9698 49.8347
6310.67 43.0093 48.6563
6313.52 45.4128 52.2304
6316.37 39.7937 49.1341
6319.21 42.3983 48.8292
6322.06 41.6128 47.6978
6324.91 44.8107 50.2008
6327.76 40.4494 52.3149
6330.6 43.1775 50.0989
6333.45 43.0065 55.713
6336.3 41.4416 47.8163
6339.15 34.3852 45.1005
6341.99 39.5661 49.4952
6344.84 40.0341 48.2697
6347.69 35.0484 48.344
6350.53 42.4218 49.7239
6353.38 37.865 48.1666
6356.23 39.8697 47.5479
6359.07 38.8386 49.6082
6361.92 43.6703 51.8071
6364.77 32.6006 46.7576
6367.61 37.8839 46.1716
6370.46 37.3617 45.771
6373.3 40.49 48.9424
6376.15 40.597 48.6978
6378.99 40.9324 48.3501
6381.84 35.903 46.7925
6384.68 37.7813 46.1768
6387.53 31.3686 45.7004
6390.37 35.8969 46.354
6393.22 36.96 48.0184
6396.06 39.6946 46.7319
6398.91 38.4865 44.9791
6401.75 41.1131 50.2414
6404.6 36.7971 47.528
6407.44 37.7041 48.5
6410.28 40.5605 48.658
6413.13 39.0756 44.7658
6415.97 35.3621 44.9038
6418.81 39.5412 46.9101
6421.66 41.775 48.9664
6424.5 39.0293 47.7343
6427.34 33.9629 42.9811
6430.19 39.1877 46.2262
6433.03 38.5876 45.1305
6435.87 39.0468 46.2988
6438.71 38.4116 45.4419
6441.56 38.2491 44.4386
6444.4 40.3862 44.8023
6447.24 39.0925 44.2572
6450.08 36.8714 46.4789
6452.92 40.1364 43.5061
6455.76 39.1867 44.5694
6458.61 40.3958 46.6242
6461.45 38.6223 44.953
6464.29 37.1995 42.2981
6467.13 38.5437 45.1369
6469.97 38.6111 42.9771
6472.81 36.0927 41.1446
6475.65 39.2898 44.278
6478.49 31.8173 42.7761
6481.33 38.9316 46.613
6484.17 39.0648 45.3934
6487.01 33.557 43.1543
6489.85 36.9076 42.127
6492.69 36.4603 41.1045
6495.53 37.3621 43.6657
6498.37 35.0733 39.9196
6501.21 33.6178 38.9852
6504.05 37.0682 44.1593
6506.89 37.5897 41.5377
6509.73 35.0488 43.9314
6512.56 36.9548 41.2605
6515.4 35.1616 40.2159
6518.24 37.108 44.0445
6521.08 33.3056 41.8862
6523.92 32.7259 42.128
6526.76 36.0168 45.0547
6529.59 39.0588 42.0816
6532.43 29.6498 39.4266
6535.27 36.3155 41.5256
6538.11 36.0235 39.2523
6540.94 35.8985 39.429
6543.78 30.7987 41.0365
6546.62 32.9152 35.6114
6549.45 33.2188 37.3165
6552.29 34.3887 37.9202
6555.13 33.8265 37.0583
6557.96 24.2149 35.7982
6560.8 25.9045 36.1058
6563.63 28.1417 36.1516
6566.47 32.4133 34.5842
6569.31 27.2428 36.1521
6572.14 33.4588 36.6415
6574.98 35.1555 36.752
6577.81 26.9596 36.87
6580.65 34.6554 34.7808
6583.48 31.7795 37.2397
6586.32 36.9906 39.8018
6589.15 31.2847 37.8105
6591.99 32.9335 36.087
6594.82 32.8073 43.0042
6597.65 38.3123 41.3107
6600.49 35.7188 39.7468
6603.32 35.7023 38.3632
6606.16 34.4056 36.619
6608.99 36.2177 40.4144
6611.82 31.5192 36.2972
6614.66 35.8621 40.1145
6617.49 34.5878 37.2683
6620.32 36.4003 40.1412
6623.15 35.1377 41.5751
6625.99 36.2345 38.9154
6628.82 35.343 38.6223
6631.65 30.2858 37.4325
6634.48 32.7664 34.923
6637.32 34.4162 36.6737
6640.15 34.9121 38.7077
6642.98 33.6019 37.0898
6645.81 30.5051 37.4912
6648.64 36.6005 38.3334
6651.47 35.2403 38.3815
6654.31 33.2626 39.9289
6657.14 34.0798 39.7251
6659.97 36.8851 37.1957
6662.8 36.3886 39.9907
6665.63 33.0522 39.5443
6668.46 31.143 32.9909
6671.29 37.0432 40.4126
6674.12 32.9688 34.6877
6676.95 33.1546 35.4196
6679.78 38.46 40.7498
6682.61 31.9871 35.7927
6685.44 34.3029 39.077
6688.27 38.003 39.4449
6691.1 35.6116 35.6731
6693.92 36.4183 37.1739
6696.75 32.9119 36.9962
6699.58 34.1891 35.4534
6702.41 35.018 37.4189
6705.24 36.4355 37.8741
6708.07 32.8347 35.6656
6710.89 34.9548 37.8227
6713.72 33.7029 33.9557
6716.55 33.2778 34.768
6719.38 35.8123 36.4645
6722.21 37.0391 38.5388
6725.03 35.7439 37.6802
6727.86 33.297 37.2645
6730.69 30.856 36.7554
6733.51 28.2669 33.662
6736.34 32.4945 34.8508
6739.17 32.9157 34.4576
6741.99 31.0874 33.8744
6744.82 34.9583 34.6302
6747.64 32.241 34.7447
6750.47 32.5388 37.1398
6753.3 34.0463 34.6258
6756.12 35.3952 36.8712
6758.95 35.6757 36.1
6761.77 34.3629 36.376
6764.6 33.5107 34.9392
6767.42 35.3495 36.716
6770.25 36.5306 36.8567
6773.07 35.5431 35.5022
6775.9 33.0301 34.6444
6778.72 33.5284 33.7748
6781.54 30.6405 30.6437
6784.37 33.5569 32.8021
6787.19 31.9194 32.8039
6790.01 32.6736 33.6723
6792.84 34.0641 34.5708
6795.66 32.8533 31.875
6798.48 30.3452 33.0565
6801.31 33.8901 32.9413
6804.13 30.4531 31.9223
6806.95 33.8682 34.897
6809.77 31.6791 31.4927
6812.6 28.9538 32.3169
6815.42 28.0249 31.6034
6818.24 34.4135 35.5283
6821.06 32.8034 31.522
6823.88 27.9927 34.9457
6826.71 29.7775 29.9983
6829.53 38.9051 36.2031
6832.35 35.8716 33.4052
6835.17 28.4021 25.8384
6837.99 31.507 32.3096
6840.81 33.8296 33.6477
6843.63 30.754 30.944
6846.45 27.8083 28.0405
6849.27 30.5852 30.7535
6852.09 30.3415 30.3003
6854.91 32.5014 31.5501
6857.73 30.0513 29.29
6860.55 29.1258 26.3668
6863.37 27.9324 27.8249
6866.19 27.1275 26.912
6869.01 22.3339 22.9803
6871.83 24.2178 22.8149
6874.64 21.8919 25.0733
6877.46 28.1375 27.8767
6880.28 29.721 30.9551
6883.1 30.6648 30.7537
6885.92 27.1149 25.3782
6888.74 21.4508 26.2735
6891.55 28.9396 28.9451
6894.37 28.6727 27.7356
6897.19 29.807 27.8892
6900 26.2564 24.5971
6902.82 24.065 27.923
6905.64 30.4959 29.3034
6908.46 30.5294 29.754
6911.27 31.9048 29.3797
6914.09 29.7988 27.5908
6916.9 27.6813 26.0159
6919.72 30.4244 28.3853
6922.54 25.7161 28.9457
6925.35 22.5165 28.1371
6928.17 30.3488 28.442
6930.98 31.2903 30.0674
6933.8 21.3047 22.4405
6936.61 30.0933 27.5902
6939.43 30.6835 28.7737
6942.24 28.3763 27.8207
6945.06 29.5282 27.2801
6947.87 28.0414 26.253
6950.68 24.5198 29.7149
6953.5 27.6926 25.1361
6956.31 30.4109 30.9153
6959.13 26.3395 25.5855
6961.94 32.6033 30.9029
6964.75 28.4021 24.9354
6967.57 32.5005 31.8758
6970.38 25.8488 29.126
6973.19 32.3926 31.3815
6976 23.0152 25.9133
6978.82 25.7304 22.4839
6981.63 29.9864 28.2728
6984.44 29.8613 27.2259
6987.25 28.713 25.8303
6990.06 30.1129 26.6005
6992.88 29.1273 26.205
6995.69 33.0832 30.9263
6998.5 29.3988 27.7181
7001.31 27.9985 30.1168
7004.12 31.1594 29.4523
7006.93 29.8145 27.9803
7009.74 30.5359 27.4473
7012.55 25.3938 23.9667
7015.36 26.7244 27.8881
7018.17 29.4831 26.8842
7020.98 31.8537 29.4759
7023.79 29.6407 28.5225
7026.6 30.0934 27.356
7029.41 30.0807 28.0438
7032.22 29.2818 27.3676
7035.03 28.1429 26.3206
7037.84 29.3348 27.1486
7040.64 29.7244 27.0125
7043.45 26.816 28.3896
7046.26 28.7125 24.8395
7049.07 30.4501 28.1862
7051.88 26.1548 26.0077
7054.68 29.7011 26.2333
7057.49 28.376 25.772
7060.3 27.6992 24.0607
7063.11 30.2458 26.4999
7065.91 23.212 24.4774
7068.72 29.3934 26.7577
7071.53 25.1658 27.0178
7074.33 29.2492 27.1415
7077.14 24.3238 25.5592
7079.95 27.0457 23.1336
7082.75 29.4479 27.7298
7085.56 29.6928 25.2853
7088.36 27.3619 23.6804
7091.17 27.3528 23.447
7093.97 28.3234 24.5696
7096.78 28.1099 25.6499
7099.58 25.7379 27.1167
7102.39 26.0647 23.0815
7105.19 27.0118 24.7
7108 26.6195 24.6589
7110.8 28.3938 26.2443
7113.61 27.0065 22.7173
7116.41 31.8936 28.0333
7119.21 31.3095 27.6448
7122.02 31.2783 28.0928
7124.82 26.9194 26.0115
7127.62 27.5474 23.9274
7130.43 29.6126 27.5731
7133.23 30.7458 27.9546
7136.03 30.1087 24.8848
7138.83 23.1604 23.3273
7141.63 30.1381 25.6851
7144.44 31.5495 27.2444
7147.24 30.4096 26.0791
7150.04 30.1112 27.6502
7152.84 27.7952 23.6651
7155.64 30.0213 26.4235
7158.44 28.0384 26.7644
7161.25 29.2176 27.5048
7164.05 24.4475 25.0498
7166.85 27.9715 25.7137
7169.65 27.7359 24.9502
7172.45 25.6104 20.7686
7175.25 28.0425 22.9674
7178.05 26.8095 24.7488
7180.85 27.7602 24.2014
7183.65 23.1928 22.1008
7186.44 23.4208 22.6535
7189.24 26.8697 21.8452
7192.04 27.894 24.7156
7194.84 25.1957 22.8104
7197.64 24.075 22.28
7200.44 27.3198 22.3729
7203.24 25.6863 21.556
7206.03 26.2094 23.2708
7208.83 27.8849 22.8448
7211.63 28.5247 24.1615
7214.43 29.1072 25.2939
7217.22 24.0191 21.7565
7220.02 28.5208 23.4919
7222.82 25.2468 21.9823
7225.62 28.603 23.2029
7228.41 28.9102 25.0067
7231.21 29.0707 24.906
7234 27.5665 20.3052
7236.8 26.3698 18.6922
7239.6 30.1438 26.9732
7242.39 26.8257 23.3611
7245.19 27.5268 23.4414
7247.98 25.2885 17.5533
7250.78 8.53063 18.5638
7253.57 24.2266 23.8276
7256.37 24.0927 21.035
7259.16 22.9156 19.0578
7261.95 24.8233 18.7646
7264.75 24.0144 20.7793
7267.54 26.1335 22.6924
7270.34 26.455 22.235
7273.13 25.9546 21.9915
7275.92 -0.0648974 14.2269
7278.72 23.4612 19.9055
7281.51 21.7426 22.8126
7284.3 24.5595 24.7329
7287.09 14.0053 23.0478
7289.89 26.8523 20.535
7292.68 19.2195 21.1073
7295.47 25.9059 21.8413
7298.26 25.3378 23.14
7301.05 25.7147 20.6918
7303.85 24.9854 19.0225
7306.64 24.8066 21.4476
7309.43 15.2838 20.8342
7312.22 8.39098 19.566
7315.01 25.634 17.9629
7317.8 28.1424 20.4722
7320.59 22.7597 20.4423
7323.38 20.8978 19.0639
7326.17 15.9729 26.0977
7328.96 22.4629 16.2408
7331.75 22.2773 24.6729
7334.54 27.5183 18.5792
7337.33 29.149 24.1749
7340.12 20.9521 10.5193
7342.91 3.31794 22.1963
7345.69 28.1543 29.0707
7348.48 25.4703 21.7572
7351.27 25.1221 20.7587
7354.06 17.8982 19.206
7356.85 25.8503 19.4577
7359.63 25.165 20.7387
7362.42 26.0768 18.2704
7365.21 27.9997 19.0251
7368 26.0904 23.331
7370.78 23.5562 20.3562
7373.57 12.8334 22.8964
7376.36 22.3252 16.0935
7379.14 20.5507 17.5525
7381.93 19.6629 19.1921
7384.71 25.1313 19.1977
7387.5 26.7267 20.0566
7390.29 17.5155 20.1689
7393.07 17.2228 22.6186
7395.86 25.8047 19.6757
7398.64 13.5807 21.2805
7401.43 24.0229 21.3245
7404.21 22.0952 14.9034
7406.99 24.444 18.8519
7409.78 26.0699 19.4996
7412.56 24.6791 17.4806
7415.35 26.1963 20.3923
7418.13 26.2539 20.6553
7420.91 21.553 17.7895
7423.7 25.0671 20.6454
7426.48 25.3098 20.6216
7429.26 22.6703 19.6805
7432.04 24.0845 17.5969
7434.83 24.5464 21.738
7437.61 26.9465 19.0807
7440.39 16.1407 17.9342
7443.17 25.5805 21.0072
7445.95 26.6639 21.7067
7448.73 25.304 18.1089
7451.52 28.0518 21.8569
7454.3 25.8651 21.958
7457.08 24.4759 19.8627
7459.86 25.7889 19.2516
7462.64 23.5518 16.4346
7465.42 23.3352 19.4965
7468.2 28.697 21.2599
7470.98 27.0373 20.1086
7473.76 24.8781 20.2824
7476.54 22.7329 19.0934
7479.32 22.6241 17.6792
7482.1 25.8549 20.4874
7484.87 25.1528 18.8028
7487.65 20.3358 17.1952
7490.43 17.1928 18.213
7493.21 22.929 17.0099
7495.99 20.124 18.9968
7498.76 19.2612 16.2198
7501.54 27.0307 22.4973
7504.32 25.5199 17.63
7507.1 26.0825 16.8944
7509.87 23.3373 17.4841
7512.65 20.4225 17.1756
7515.43 25.3996 20.1934
7518.2 22.6595 15.0162
7520.98 22.5803 15.1743
7523.76 11.5843 16.4739
7526.53 20.6697 15.9726
7529.31 24.127 17.1633
7532.08 19.211 18.7212
7534.86 21.3343 16.5049
7537.63 24.205 18.0453
7540.41 22.8534 16.2599
7543.18 24.5629 17.6902
7545.96 17.6805 16.1459
7548.73 22.6427 16.0527
7551.5 24.1545 16.8235
7554.28 24.7147 18.03
7557.05 22.7969 17.8523
7559.82 23.3215 16.3991
7562.6 20.7198 18.0378
7565.37 21.4049 13.7289
7568.14 25.6115 14.7604
7570.92 11.9676 16.0774
7573.69 12.9484 15.4061
7576.46 19.0757 13.1571
7579.23 19.9347 17.8575
7582 21.6432 13.1708
7584.77 24.9413 15.6661
7587.55 16.8816 14.4719
7590.32 16.3122 10.8452
7593.09 14.8035 9.31859
7595.86 11.5338 8.15725
7598.63 7.68614 6.76543
7601.4 9.04491 7.08747
7604.17 6.63288 5.28679
7606.94 7.04091 6.37087
7609.71 9.93277 6.89647
7612.48 11.3993 6.44348
7615.25 16.7241 11.358
7618.02 15.7528 10.3366
7620.78 15.6412 9.52488
7623.55 12.1471 9.30635
7626.32 13.8991 6.40322
7629.09 12.0174 10.5039
7631.86 13.9162 10.4007
7634.63 11.1117 6.27728
7637.39 16.1238 11.8901
7640.16 14.8998 9.551
7642.93 14.7653 8.64218
7645.69 15.845 11.4598
7648.46 13.7919 9.61611
7651.23 15.527 8.46983
7653.99 17.83 10.2896
7656.76 17.6627 9.81161
7659.53 19.8522 10.8806
7662.29 17.4993 10.8701
7665.06 19.9027 11.2749
7667.82 21.2333 13.5593
7670.59 23.1045 15.7618
7673.35 20.9013 12.2459
7676.12 20.9858 14.6824
7678.88 19.1294 14.5403
7681.64 23.4297 16.3902
7684.41 15.8048 11.9374
7687.17 19.6066 13.2748
7689.94 19.5701 15.4178
7692.7 16.7671 9.38373
7695.46 22.5671 12.5424
7698.23 19.3361 12.9456
7700.99 16.4214 9.38152
7703.75 19.2979 14.0403
7706.51 7.29137 10.2847
7709.27 3.46578 10.4054
7712.04 28.4534 13.1118
7714.8 -14.2269 10.5319
7717.56 22.752 5.5779
7720.32 24.6328 18.0414
7723.08 3.42335 12.4622
7725.84 19.5888 13.759
7728.6 13.7309 10.7219
7731.36 23.238 15.1869
7734.12 19.5648 12.0701
7736.88 16.6068 10.2933
7739.64 22.2389 12.9374
7742.4 23.0223 13.4159
7745.16 16.9725 9.66825
7747.92 28.3771 14.3054
7750.68 23.7132 14.4844
7753.44 24.4204 13.3988
7756.2 18.5367 13.1989
7758.95 8.20805 12.1035
7761.71 16.2265 11.0599
7764.47 20.0118 9.76599
7767.23 15.6388 14.7737
7769.99 17.8399 12.2235
7772.74 21.9555 13.2626
7775.5 21.034 13.9248
7778.26 23.1576 10.203
7781.01 16.7735 14.1145
7783.77 11.4513 10.7625
7786.52 23.3821 15.5405
7789.28 20.4317 17.4166
7792.04 2.30434 8.575
7794.79 19.5581 10.8059
7797.55 19.0592 11.8809
7800.3 19.0111 13.5986
7803.06 17.2431 10.4671
7805.81 23.1574 13.3896
7808.56 25.1372 10.1896
7811.32 16.9594 13.0284
7814.07 20.1822 8.82395
7816.83 27.3355 13.2392
7819.58 17.1537 8.11585
7822.33 5.29296 15.9201
7825.09 13.538 7.45677
7827.84 18.7812 12.9298
7830.59 20.7511 10.9833
7833.34 21.1197 11.3079
7836.1 11.0568 7.48519
7838.85 24.8107 8.96907
7841.6 23.6647 13.3211
7844.35 23.7424 13.6687
7847.1 4.57434 12.1557
7849.85 20.715 14.8658
7852.6 23.1948 4.44057
7855.35 25.7684 5.84373
7858.1 22.6924 6.93794
7860.85 16.8051 13.6191
7863.6 19.9848 9.96767
7866.35 21.7337 5.82444
7869.1 18.3429 7.64417
7871.85 19.6237 5.27227
7874.6 4.32983 6.93522
7877.35 22.5394 15.9931
7880.1 21.9219 10.0615
7882.85 5.13923 9.85637
7885.59 13.4967 8.07947
7888.34 20.9031 10.2534
7891.09 5.12369 11.9171
7893.84 10.4426 8.90791
7896.58 20.807 10.1147
7899.33 20.2734 10.4498
7902.08 15.8688 9.79395
7904.82 21.264 10.9258
7907.57 23.0428 5.97275
7910.32 -6.39071 4.5813
7913.06 20.5577 3.13208
7915.81 -18.3313 14.0912
7918.55 -11.0477 4.22348
7921.3 18.378 6.11255
7924.04 13.8612 5.19915
7926.79 19.2138 11.5089
7929.53 16.9704 6.73223
7932.28 18.7196 11.4389
7935.02 10.7841 7.30681
7937.77 14.1361 9.52073
7940.51 20.9856 10.874
7943.25 23.2182 10.2303
7946 22.1119 6.82311
7948.74 12.8524 11.436
7951.48 20.9681 11.3815
7954.22 18.0054 8.17747
7956.97 15.788 9.34137
7959.71 20.1799 2.76138
7962.45 22.3844 8.48836
7965.19 -1.0301 11.6237
7967.93 18.327 9.01425
7970.67 17.8003 13.5903
7973.41 14.1099 3.69349
7976.16 8.01 10.8452
7978.9 4.32594 7.55887
7981.64 21.8188 8.39646
7984.38 8.15722 7.82619
7987.12 23.0468 14.9332
7989.85 20.7267 9.30632
7992.59 18.8919 3.91776
7995.33 -8.79473 5.71133
7998.07 21.0971 11.6932
8000.81 20.7898 8.93064
8003.55 18.1633 8.40055
8006.29 15.9485 6.20356
8009.02 21.1428 5.21083
8011.76 22.5316 6.55652
8014.5 22.3055 9.17885
8017.24 18.0361 8.68721
8019.97 6.98786 4.75789
8022.71 -1.42361 2.52212
8025.45 19.3266 7.77348
8028.18 22.1 8.18611
8030.92 -0.066267 4.4569
8033.66 11.787 14.3386
8036.39 22.9835 9.63339
8039.13 20.6762 7.54046
8041.86 18.3833 9.04764
8044.6 20.6762 8.31998
8047.33 20.8715 9.30264
8050.07 11.69 8.55702
8052.8 22.5805 5.07643
8055.53 20.5929 4.26684
8058.27 18.6571 5.59495
8061 17.4344 3.41335
8063.73 19.5357 4.17946
8066.47 21.7208 7.58034
8069.2 20.654 7.77825
8071.93 24.4933 10.0459
8074.66 18.6252 6.60819
8077.4 20.5513 6.98129
8080.13 16.6192 7.85057
8082.86 22.7742 11.1615
8085.59 20.6354 9.80447
8088.32 22.4397 9.98945
8091.05 15.6163 9.55824
8093.78 18.6984 8.0298
8096.51 16.7493 -0.00599593
8099.24 20.1115 4.30383
8101.97 6.16417 6.54605
8104.7 13.7583 6.38901
8107.43 17.6999 3.53368
8110.16 18.0007 7.19791
8112.89 16.1467 9.80557
8115.62 17.8586 8.99311
8118.35 18.4415 7.59484
8121.08 16.6261 8.39645
8123.81 16.3433 8.2321
8126.53 20.087 8.18062
8129.26 13.9061 5.97865
8131.99 16.5405 9.106
8134.72 21.3433 11.6207
8137.44 18.1885 3.66596
8140.17 19.4141 7.19894
8142.9 20.9056 8.86097
8145.62 15.4661 6.91889
8148.35 17.2517 4.03439
8151.07 16.3974 7.14183
8153.8 19.4821 6.12004
8156.52 19.043 9.69
8159.25 18.7296 5.90186
8161.97 14.8969 5.02814
8164.7 18.2416 6.70843
8167.42 17.0581 8.02664
8170.15 16.4489 7.12265
8172.87 16.6058 8.03597
8175.59 15.4417 6.77446
8178.32 16.8891 7.63842
8181.04 17.8575 9.11037
8183.76 15.6461 8.7813
8186.49 14.5322 8.40027
8189.21 13.4452 6.73808
8191.93 16.1948 7.30428
8194.65 16.511 6.44795
8197.37 16.6743 5.18449
8200.09 16.6056 5.4719
8202.82 13.4574 8.36383
8205.54 19.1944 7.58154
8208.26 16.4447 8.73525
8210.98 17.125 7.51883
8213.7 16.0558 7.68112
8216.42 16.9184 6.43698
8219.14 18.7483 8.05507
8221.86 16.9472 10.0919
8224.58 17.0698 8.11264
8227.29 13.0543 8.49123
8230.01 12.5992 5.73547
8232.73 16.7414 3.77048
8235.45 12.529 8.84897
8238.17 18.8713 10.603
8240.89 17.1739 8.5739
8243.6 16.3007 5.11067
8246.32 19.6079 8.61088
8249.04 20.1394 9.7167
8251.75 16.8702 6.15942
8254.47 13.2775 5.66812
8257.19 22.245 9.64225
8259.9 15.8589 6.31193
8262.62 15.195 5.70662
8265.33 18.4249 6.07723
8268.05 16.0742 2.76299
8270.76 13.9969 4.4438
8273.48 17.0388 4.91297
8276.19 14.2393 3.25132
8278.91 13.986 5.81561
8281.62 16.6499 -3.08167
8284.34 15.7654 -4.54525
8287.05 13.1288 -3.80952
8289.76 15.5824 -5.07006
8292.48 9.87418 -0.83722
8295.19 15.2887 6.11557
8297.9 9.21484 -2.22768
8300.61 22.1407 2.70939
8303.33 17.3494 1.25297
8306.04 8.97084 4.06469
8308.75 16.0033 7.42415
8311.46 11.4611 -3.11467
8314.17 15.2733 3.27905
8316.88 14.4915 7.68143
8319.59 15.9433 1.43959
8322.3 16.0897 5.54099
8325.01 15.5876 9.23675
8327.72 16.829 7.38316
8330.43 18.733 6.19799
8333.14 16.3889 5.09084
8335.85 11.3053 1.36603
8338.56 18.8437 0.34145
8341.27 22.0419 0.283056
8343.98 23.5629 -4.92487
8346.68 9.74129 -5.6186
8349.39 -0.313626 -4.91364
8352.1 8.19711 -3.78537
8354.81 18.3793 -1.84502
8357.51 14.0611 -1.01533
8360.22 12.527 1.27012
8362.93 14.8883 0.174621
8365.63 19.9423 1.42839
8368.34 18.7835 2.6841
8371.05 17.1548 2.27265
8373.75 17.3758 5.71315
8376.46 15.4864 -0.539636
8379.16 17.3025 -1.45427
8381.87 20.0797 0.389116
8384.57 22.2962 2.97048
8387.28 12.9218 -2.15018
8389.98 17.8436 0.729918
8392.68 16.2139 2.14176
8395.39 21.0264 -9.3239
8398.09 11.8788 1.51807
8400.79 16.3502 -16.2095
8403.5 6.09104 -4.28209
8406.2 5.9654 0.460087
8408.9 18.3909 2.69007
8411.6 16.7559 1.75239
8414.3 16.2042 -3.0152
8417.01 17.736 -0.897596
8419.71 12.9799 -1.20814
8422.41 7.78286 -1.87845
8425.11 14.4533 -6.92451
8427.81 12.7321 -6.81594
8430.51 6.12848 -4.39761
8433.21 6.45403 -13.3839
8435.91 11.6639 3.72574
8438.61 9.87336 5.13786
8441.31 16.4823 4.88848
8444.01 15.6356 3.95196
8446.71 14.0656 0.66574
8449.4 17.0538 -0.606105
8452.1 9.74411 1.5208
8454.8 9.04932 2.4319
8457.5 15.6208 1.54194
8460.19 17.8826 3.87796
8462.89 13.8625 -8.31621
8465.59 12.2955 -13.708
8468.29 22.1412 -9.47154
8470.98 14.4273 0.645546
8473.68 12.9327 -3.8496
8476.37 15.6853 -0.147726
8479.07 15.9231 1.57123
8481.76 15.05 4.69453
8484.46 14.3302 2.15097
8487.15 16.2232 1.66767
8489.85 12.1124 -1.35327
8492.54 14.3293 -2.05243
8495.24 11.1838 -1.91965
8497.93 21.1825 -4.5777
8500.62 16.0069 -3.04632
8503.32 14.9525 -7.35209
8506.01 15.7972 -6.32532
8508.7 16.8692 -3.37535
8511.4 11.8193 -2.85135
8514.09 12.0055 2.63489
8516.78 14.037 4.38626
8519.47 13.5527 7.0974
8522.16 16.173 3.09538
8524.85 19.445 4.20418
8527.55 13.4909 4.69951
8530.24 16.9845 5.22322
8532.93 16.3049 4.15308
8535.62 12.0388 -1.18884
8538.31 14.7558 0.597973
8541 17.2162 0.00344618
8543.69 15.1186 -2.39316
8546.37 13.7332 0.155061
8549.06 13.4881 0.889827
8551.75 13.5587 -0.168572
8554.44 12.1177 -1.10148
8557.13 16.3252 0.152354
8559.82 19.2265 4.95634
8562.5 15.3807 6.31894
8565.19 15.7533 3.92018
8567.88 17.2942 5.06355
8570.56 12.7379 2.47361
8573.25 15.6596 0.264555
8575.94 12.365 1.52202
8578.62 13.1701 2.43492
8581.31 11.9449 1.04387
8583.99 16.4821 5.28199
8586.68 14.0703 6.87699
8589.36 13.6418 0.508531
8592.05 10.9517 2.53558
8594.73 7.65466 -2.66859
8597.42 9.37657 -1.17883
8600.1 15.6225 -0.494776
8602.78 14.3662 -0.470729
8605.47 15.7765 2.93615
8608.15 12.7416 1.45854
8610.83 13.2482 4.60085
8613.52 15.8094 -0.861322
8616.2 19.5608 -1.8075
8618.88 14.1384 -7.19845
8621.56 14.4675 -9.25489
8624.24 14.9592 -2.69328
8626.92 15.4606 -6.65069
8629.6 10.1987 3.22668
8632.29 12.7309 -0.913593
8634.97 14.5141 -8.9383
8637.65 16.4268 -2.295
8640.33 11.576 -5.94472
8643 17.8112 0.552311
8645.68 18.7182 -4.82932
8648.36 9.20671 -1.0747
8651.04 12.5845 -5.55674
8653.72 14.4906 -3.61205
8656.4 13.2952 -8.79906
8659.08 9.28885 -2.72993
8661.75 15.2413 -3.89672
8664.43 10.7412 -7.68635
8667.11 13.6766 -2.00132
8669.79 8.75104 -9.51049
8672.46 17.4237 -0.130895
8675.14 7.58005 -0.856586
8677.81 13.9164 3.86742
8680.49 14.8058 0.427664
8683.17 15.6368 1.25793
8685.84 14.1277 2.83627
8688.52 13.4649 -1.35863
8691.19 15.3806 3.99648
8693.86 15.2417 -0.0991462
8696.54 10.8385 0.995295
8699.21 13.8099 1.91801
8701.89 13.6349 1.54173
8704.56 13.0119 0.0310369
8707.23 15.3984 0.94895
8709.9 13.5055 0.817501
8712.58 15.3462 3.07395
8715.25 12.4219 2.36124
8717.92 15.5217 4.08915
8720.59 12.5331 3.56632
8723.26 14.7736 2.37017
8725.94 16.4395 4.36352
8728.61 14.0202 3.9591
8731.28 14.2952 1.81802
8733.95 13.7124 4.72556
8736.62 14.9233 2.7333
8739.29 15.3009 4.07555
8741.96 15.5954 3.46681
8744.63 11.6036 4.36273
8747.29 15.5512 2.48336
8749.96 12.083 4.94348
8752.63 11.1196 -3.58506
8755.3 13.1777 -1.06367
8757.97 12.4359 -11.3671
8760.63 16.28 3.61964
8763.3 6.59443 -5.88763
8765.97 15.0668 -2.67883
8768.64 17.7947 0.369948
8771.3 9.74885 10.3576
8773.97 17.5524 -0.832896
8776.63 12.9213 2.82072
8779.3 11.2951 -11.2076
8781.97 15.3073 -3.28707
8784.63 14.7359 -5.4101
8787.29 13.173 1.48518
8789.96 16.0624 -2.67334
8792.62 10.78 -3.87489
8795.29 17.9748 -1.18748
8797.95 9.65093 -3.13175
8800.61 13.6744 1.2669
8803.28 14.8717 1.49694
8805.94 11.3276 4.70863
8808.6 10.6703 4.56757
8811.27 16.1027 4.23402
8813.93 12.9256 3.39683
8816.59 15.1433 2.34238
8819.25 15.3642 -4.86926
8821.91 17.2645 4.1344
8824.57 14.3771 -2.7444
8827.23 32.5865 -11.6727
8829.89 21.9433 1.14715
8832.55 14.3897 -9.48126
8835.21 4.42004 14.9471
8837.87 14.1648 -0.48424
8840.53 12.5251 5.92518
8843.19 -0.472919 11.1086
8845.85 8.04092 6.49052
8848.51 11.5789 5.75159
8851.17 12.43 -1.25033
8853.82 15.4701 0.248538
8856.48 10.4023 -2.66812
8859.14 14.3217 -1.44598
8861.79 10.6508 0.725282
8864.45 11.5674 1.81837
8867.11 9.76962 -4.22085
8869.76 11.4222 -6.36823
8872.42 17.4585 -2.40922
8875.08 14.0541 8.49109
8877.73 14.3499 -0.546649
8880.39 13.4768 -2.94787
8883.04 10.9983 -11.5873
8885.69 16.6677 -15.7953
8888.35 4.48699 -5.07695
8891 -3.46439 10.8075
8893.66 7.35488 22.674
8896.31 6.3831 11.7514
8898.96 11.1458 -0.227326
8901.61 8.42642 2.11049
8904.27 29.1372 -8.5252
8906.92 10.8193 -2.34725
8909.57 7.83716 -4.70115
8912.22 8.51959 -1.72878
8914.87 6.82506 -8.31775
8917.52 8.80151 -16.0544
8920.18 15.9284 -11.6935
8922.83 7.79682 -7.47444
8925.48 8.4402 -9.07781
8928.13 2.64394 -11.4626
8930.78 7.11096 -6.85921
8933.42 11.7495 -2.03748
8936.07 12.8832 -12.1432
8938.72 12.0465 -9.45323
8941.37 10.8301 -8.2326
8944.02 15.4512 -4.46563
8946.67 16.3875 -5.59709
8949.31 11.994 -0.517648
8951.96 6.08592 -6.10243
8954.61 12.7808 -14.806
8957.25 12.2452 -17.2471
8959.9 22.5104 -9.36173
8962.55 8.65518 -7.73753
8965.19 -3.10548 -27.2409
8967.84 4.3577 -27.7549
8970.48 5.10743 -19.082
8973.13 8.96684 -12.5092
8975.77 13.6961 0.572737
8978.42 7.60257 0.996213
8981.06 12.3826 -0.0504477
8983.71 10.935 -3.34198
8986.35 10.6208 -4.83649
8988.99 10.7028 -6.82413
8991.63 2.24148 0.690444
8994.28 6.60863 -2.8563
8996.92 2.72033 -13.5961
8999.56 8.42697 -0.846559
9002.2 6.67281 -7.53957
9004.84 5.39051 -3.55749
9007.49 3.43872 -30.7616
9010.13 2.42182 -28.9468
9012.77 7.66961 -15.0142
9015.41 7.83494 -14.4167
9018.05 11.4477 -3.06508
9020.69 13.4251 -0.00675274
9023.33 11.373 -3.84578
9025.97 9.51943 1.09141
9028.6 9.72735 0.247995
9031.24 10.2587 -5.14428
9033.88 13.6978 -0.485287
9036.52 12.9621 -3.96043
9039.16 18.6269 -1.1867
9041.79 13.8031 -1.49182
9044.43 10.6321 -2.86214
9047.07 5.91582 -8.13531
9049.7 14.8774 0.870706
9052.34 11.938 6.88234
9054.98 12.6379 -9.71789
9057.61 7.14316 -11.4712
9060.25 8.42108 -18.1816
9062.88 12.8599 -13.5956
9065.52 8.91056 -0.727186
9068.15 13.4302 -7.24473
9070.79 15.0843 0.273609
9073.42 11.5359 -2.05498
