wavelength spectrum_sum 3smoothed_sum spectrum_optimal 3smoothed_optimal
3517.63 180.355 134.749 123.303 98.1406
3520.55 223.894 236.991 171.119 177.683
3523.46 306.724 275.216 238.626 210.741
3526.37 295.032 304.966 222.478 233.859
3529.28 313.141 310.628 240.473 231.667
3532.19 323.712 321.325 232.051 241.393
3535.11 327.122 315.599 251.656 242.221
3538.02 295.962 317.478 242.955 249.808
3540.93 329.35 306.599 254.814 244.003
3543.84 294.486 305.176 234.24 237.86
3546.75 291.692 319.782 224.527 250.423
3549.67 373.168 335.194 292.502 262.346
3552.58 340.721 364.432 270.008 284.301
3555.49 379.406 406.513 290.394 296.99
3558.4 499.413 408.713 330.567 301.139
3561.31 347.321 398.848 282.455 301.99
3564.23 349.81 367.548 292.948 300.749
3567.14 405.512 395.729 326.845 320.008
3570.05 431.864 421.824 340.23 343.037
3572.96 428.097 410.821 362.035 343.429
3575.88 372.501 399.953 328.022 343.953
3578.79 399.262 388.24 341.801 329.352
3581.7 392.956 402.249 318.235 338.392
3584.61 414.529 414.891 355.14 350.246
3587.52 437.187 425.058 377.363 369.808
3590.44 423.458 429.2 376.922 375.148
3593.35 426.955 427.512 371.158 371.521
3596.26 432.123 432.213 366.485 368.905
3599.17 437.561 434.542 369.073 367.661
3602.08 433.943 421.331 367.427 354.924
3605 392.49 413.814 328.273 352.836
3607.91 415.01 421.695 362.809 368.166
3610.82 457.586 448.192 413.414 389.776
3613.73 471.978 470.48 393.103 413.097
3616.64 481.876 482.711 432.775 426.034
3619.56 494.28 494.567 452.224 439.333
3622.47 507.544 502.606 433 442.519
3625.38 505.993 511.751 442.332 442.369
3628.29 521.715 510.565 451.775 453.043
3631.2 503.987 519.109 465.022 462.5
3634.12 531.626 522.632 470.704 471.153
3637.03 532.284 534.778 477.733 479.414
3639.94 540.423 531.055 489.806 476.895
3642.85 520.457 534.898 463.147 473.874
3645.76 543.814 546.616 468.669 478.885
3648.68 575.578 558.764 504.839 489.753
3651.59 556.899 569.921 495.75 496.203
3654.5 577.286 573.478 488.02 500.065
3657.41 586.248 585.299 516.426 507.513
3660.32 592.364 592.968 518.094 526.765
3663.24 600.291 591.048 545.776 531.115
3666.15 580.49 581.209 529.475 524.73
3669.06 562.846 567.155 498.94 507.664
3671.97 558.128 586.06 494.578 521.601
3674.88 637.206 605.022 571.285 539.528
3677.8 619.731 614.935 552.721 547.554
3680.71 587.869 597.76 518.656 521.477
3683.62 585.68 596.107 493.052 525.424
3686.53 614.772 601.003 564.563 533.939
3689.44 602.556 625.044 544.202 563.914
3692.35 657.805 652.334 582.976 591.148
3695.27 696.64 672.575 646.265 605.831
3698.18 663.28 660.72 588.251 598.807
3701.09 622.24 630.109 561.904 563.966
3704 604.807 616.679 541.743 550.263
3706.91 622.989 617.461 547.142 558.465
3709.83 624.588 638.681 586.51 587.163
3712.74 668.467 679.939 627.836 626.387
3715.65 746.763 717.812 664.813 652.042
3718.56 738.205 740.451 663.477 668.453
3721.47 736.386 738.643 677.068 666.727
3724.39 741.339 716.449 659.636 647.306
3727.3 671.622 713.601 605.216 641.634
3730.21 727.843 709.312 660.05 632.284
3733.12 728.471 741.023 631.588 665.503
3736.03 766.756 761.839 704.871 685.84
3738.94 790.29 776.095 721.062 708.793
3741.86 771.238 863.907 700.444 832.246
3744.77 1030.19 881.361 1075.23 856.253
3747.68 842.652 847.405 793.083 823.706
3750.59 669.369 941.137 602.8 905.906
3753.5 1311.39 930.002 1321.84 887.783
3756.41 809.247 952.276 738.712 910.809
3759.33 736.191 784.773 671.88 713.904
3762.24 808.881 776.316 731.12 701.502
3765.15 783.875 814.826 701.506 730.774
3768.06 851.723 818.596 759.697 739.118
3770.97 820.189 825.322 756.151 753.901
3773.88 804.052 828.983 745.855 762.969
3776.8 862.708 828.206 786.902 767.937
3779.71 817.858 834.651 771.055 767.75
3782.62 823.388 820.269 745.295 767.428
3785.53 819.562 823.52 785.933 766.416
3788.44 827.611 809.455 768.021 755.853
3791.35 781.192 819.515 713.605 754.876
3794.27 849.743 836.442 783.001 780.683
3797.18 878.391 859.997 845.443 814.499
3800.09 851.856 891.483 815.054 858.654
3803 944.201 894.306 915.466 852.875
3805.91 886.861 934.038 828.106 883.246
3808.82 971.052 932.177 906.167 871.817
3811.74 938.62 954.275 881.18 889.286
3814.65 953.153 951.422 880.513 881.718
3817.56 962.494 968.627 883.462 899.234
3820.47 990.233 972.362 933.727 897.907
3823.38 964.357 985.511 876.531 914.668
3826.29 1001.94 975.024 933.745 901.762
3829.2 958.775 968.449 895.011 907.788
3832.12 944.63 945.843 894.607 896.867
3835.03 934.124 950.833 900.984 904.98
3837.94 973.744 964.352 919.349 908.876
3840.85 985.187 1010.07 906.294 936.712
3843.76 1071.28 1035.45 984.495 955.124
3846.67 1049.88 1048.27 974.584 967.237
3849.58 1023.64 1054.78 942.632 977.175
3852.5 1090.83 1051.17 1014.31 980.022
3855.41 1039.04 1077 983.124 1007.51
3858.32 1101.15 1074.27 1025.1 1005.54
3861.23 1082.63 1065.49 1008.41 988.89
3864.14 1012.69 1057.49 933.161 981.819
3867.05 1077.15 1033.82 1003.89 961.866
3869.96 1011.62 1023.53 948.548 952.882
3872.87 981.825 993.075 906.209 930.417
3875.79 985.783 994.133 936.495 926.857
3878.7 1014.79 986.174 937.867 917.178
3881.61 957.947 996.587 877.173 925.404
3884.52 1017.02 1002.8 961.172 942.914
3887.43 1033.42 1031.6 990.398 986.584
3890.34 1044.36 1051.55 1008.18 995.769
3893.25 1076.89 1050.62 988.729 983.674
3896.16 1030.62 1064.33 954.114 997.789
3899.07 1085.47 1080.52 1050.52 1023.33
3901.99 1125.47 1128.7 1065.35 1074.36
3904.9 1175.17 1150.52 1107.21 1095.35
3907.81 1150.94 1147.78 1113.5 1095.5
3910.72 1117.22 1155.59 1065.79 1101.05
3913.63 1198.59 1144.73 1123.87 1091.14
3916.54 1118.37 1181.54 1083.75 1120.33
3919.45 1227.65 1194.22 1153.37 1132.57
3922.36 1236.64 1220.79 1160.58 1154.88
3925.27 1198.07 1217 1150.68 1156.82
3928.18 1216.28 1183.96 1159.2 1139.06
3931.1 1137.52 1208.24 1107.3 1157.98
3934.01 1270.92 1221.83 1207.43 1173.32
3936.92 1257.04 1255.48 1205.23 1202.46
3939.83 1238.49 1243.35 1194.71 1190.21
3942.74 1234.51 1228.1 1170.69 1181.75
3945.65 1211.3 1208.19 1179.83 1157.95
3948.56 1178.76 1205.58 1123.32 1166.06
3951.47 1226.68 1187.49 1195.03 1174.85
3954.38 1157.02 1180.86 1206.19 1211.62
3957.29 1158.86 1154.08 1233.64 1210.6
3960.2 1146.36 1142 1191.97 1193.32
3963.11 1120.78 1140.85 1154.36 1171.45
3966.02 1155.4 1113.92 1168.02 1146.33
3968.94 1065.57 1112.96 1116.62 1148.79
3971.85 1117.92 1096.43 1161.72 1133.5
3974.76 1105.8 1110.22 1122.15 1133.16
3977.67 1106.96 1134.4 1115.59 1163.49
3980.58 1190.45 1136.53 1252.71 1164.31
3983.49 1112.18 1168.64 1124.63 1201.81
3986.4 1203.31 1170.74 1228.08 1200.9
3989.31 1196.73 1203.13 1249.99 1243.79
3992.22 1209.34 1197.1 1253.31 1241.48
3995.13 1185.23 1206.01 1221.13 1249.04
3998.04 1223.45 1216.27 1272.68 1265.27
4000.95 1240.13 1241.93 1302.01 1297.75
4003.86 1262.19 1248.03 1318.55 1303.41
4006.77 1241.77 1249.54 1289.67 1305.5
4009.68 1244.67 1267.35 1308.29 1325.25
4012.59 1315.62 1279.67 1377.78 1339.23
4015.5 1278.71 1305.84 1331.62 1358.59
4018.41 1323.19 1309.92 1366.36 1365.36
4021.32 1327.86 1341.92 1398.11 1403.9
4024.23 1374.72 1349.88 1447.23 1410.96
4027.14 1347.07 1351.42 1387.54 1407.69
4030.05 1332.48 1326.97 1388.31 1380.07
4032.96 1301.38 1313.33 1364.36 1378.24
4035.88 1306.13 1317.25 1382.04 1383.68
4038.79 1344.24 1307.98 1404.64 1373.85
4041.7 1273.57 1324.57 1334.86 1400.4
4044.61 1355.91 1325.2 1461.7 1404.98
4047.52 1346.13 1341.69 1418.39 1416.12
4050.43 1323.02 1348.11 1368.27 1404.72
4053.34 1375.17 1344.62 1427.5 1412.4
4056.25 1335.66 1373.84 1441.44 1451.18
4059.16 1410.68 1345.02 1484.61 1416.92
4062.07 1288.72 1354.81 1324.71 1413.79
4064.98 1365.04 1353.42 1432.06 1406.85
4067.89 1406.5 1388.98 1463.77 1459.7
4070.8 1395.4 1378.53 1483.28 1457.98
4073.71 1333.67 1321.08 1426.88 1407.69
4076.62 1234.16 1298.32 1312.92 1378.28
4079.53 1327.13 1282.21 1395.04 1356.78
4082.43 1285.34 1329.82 1362.36 1396.39
4085.34 1377.01 1341.94 1431.76 1413.37
4088.25 1363.46 1347.33 1445.98 1413.6
4091.16 1301.51 1334.76 1363.05 1415.67
4094.07 1339.31 1314.29 1437.98 1396.12
4096.98 1302.05 1307.36 1387.34 1389.64
4099.89 1280.73 1265.89 1343.6 1345.68
4102.8 1214.9 1272.04 1306.09 1347.52
4105.71 1320.5 1278.13 1392.87 1359.49
4108.62 1298.99 1293.5 1379.5 1374.67
4111.53 1261 1280.85 1351.65 1368.63
4114.44 1282.57 1299.35 1374.75 1387.63
4117.35 1354.47 1319.51 1436.5 1413.64
4120.26 1321.48 1370.63 1429.68 1457.42
4123.17 1435.94 1369.48 1506.09 1452.3
4126.08 1351.02 1404.5 1421.13 1488.21
4128.99 1426.54 1404.46 1537.42 1489.28
4131.9 1435.82 1412.08 1509.3 1498.89
4134.81 1373.87 1427.39 1449.96 1500.78
4137.72 1472.48 1438.62 1543.08 1518.18
4140.63 1469.51 1471.86 1561.5 1563.9
4143.54 1473.6 1473.19 1587.1 1567.7
4146.44 1476.47 1482.32 1554.49 1577.89
4149.35 1496.89 1493.31 1592.09 1586.74
4152.26 1506.56 1519.88 1613.63 1612.81
4155.17 1556.2 1513.89 1632.72 1601.16
4158.08 1478.91 1518.56 1557.11 1613.03
4160.99 1520.56 1509.25 1649.26 1619.51
4163.9 1528.28 1539.4 1652.16 1649.33
4166.81 1569.38 1546.94 1646.59 1640.86
4169.72 1543.15 1556.94 1623.82 1645.45
4172.63 1558.28 1562.7 1665.94 1659.97
4175.54 1586.66 1560.9 1690.14 1661.65
4178.44 1537.77 1549.96 1628.88 1653.52
4181.35 1525.45 1537.05 1641.54 1639.41
4184.26 1547.92 1534.24 1647.81 1639.25
4187.17 1529.34 1551.16 1628.41 1665.69
4190.08 1576.21 1574.49 1720.84 1697.52
4192.99 1617.92 1587.67 1743.3 1712.37
4195.9 1568.87 1601.78 1672.96 1713.98
4198.81 1618.55 1610.02 1725.69 1715.37
4201.71 1642.64 1623.9 1747.46 1733.92
4204.62 1610.52 1619.79 1728.61 1735.78
4207.53 1606.21 1602.53 1731.27 1712.08
4210.44 1590.86 1602.79 1676.35 1700.23
4213.35 1611.3 1622.81 1693.08 1718.75
4216.26 1666.27 1624.94 1786.83 1736.02
4219.17 1597.27 1640.21 1728.17 1763.16
4222.07 1657.09 1613.99 1774.48 1726.38
4224.98 1587.61 1622.24 1676.49 1735.65
4227.89 1622.04 1622.69 1755.97 1725.18
4230.8 1658.43 1638.4 1743.07 1754.15
4233.71 1634.73 1650.13 1763.4 1763.46
4236.62 1657.23 1616.31 1783.91 1744.1
4239.52 1556.98 1600.1 1684.99 1723.26
4242.43 1586.1 1590.66 1700.88 1696.25
4245.34 1628.9 1613.68 1702.87 1703.39
4248.25 1626.04 1642.71 1706.43 1737.81
4251.16 1673.19 1649.79 1804.13 1769.88
4254.07 1650.14 1662.59 1799.08 1793.1
4256.97 1664.44 1669.29 1776.08 1796.89
4259.88 1693.28 1673.65 1815.52 1795.05
4262.79 1663.25 1669.34 1793.55 1797.86
4265.7 1651.49 1660.13 1784.5 1802.51
4268.61 1665.64 1652.85 1829.47 1784.1
4271.51 1641.43 1683.09 1738.34 1813.57
4274.42 1742.19 1685.59 1872.9 1815.94
4277.33 1673.17 1710.27 1836.56 1853.43
4280.24 1715.44 1688.83 1850.84 1839.5
4283.14 1677.89 1703.62 1831.11 1852.4
4286.05 1717.52 1689.89 1875.26 1847.12
4288.96 1674.27 1691.19 1835 1852.64
4291.87 1681.76 1677.28 1847.65 1843.62
4294.78 1675.82 1689.31 1848.2 1848.87
4297.68 1710.36 1681.7 1850.77 1823.56
4300.59 1658.92 1698.12 1771.73 1839.09
4303.5 1725.09 1690.4 1894.78 1826.16
4306.41 1687.19 1689.21 1811.98 1841.57
4309.31 1655.36 1672.44 1817.96 1815.09
4312.22 1674.78 1663.14 1815.33 1811.35
4315.13 1659.3 1686.01 1800.76 1834.76
4318.04 1723.97 1672.75 1888.18 1828.94
4320.94 1634.99 1665.29 1797.87 1821.66
4323.85 1636.91 1624.11 1778.93 1781.44
4326.76 1600.44 1626.95 1767.52 1783.71
4329.66 1643.49 1599.78 1804.68 1757.6
4332.57 1555.42 1600 1700.61 1757.2
4335.48 1601.08 1541.67 1766.31 1697.21
4338.39 1468.52 1532.43 1624.71 1682.69
4341.29 1527.68 1471.94 1657.03 1610.74
4344.2 1419.63 1499.92 1550.47 1634.52
4347.11 1552.44 1509.9 1696.05 1648.38
4350.01 1557.63 1569.98 1698.63 1712.49
4352.92 1599.87 1577.37 1742.79 1722.29
4355.83 1574.61 1600.74 1725.45 1751.22
4358.73 1627.75 1599.17 1785.41 1754.17
4361.64 1595.14 1619.14 1751.64 1772.89
4364.55 1634.53 1640.98 1781.62 1800.37
4367.45 1693.26 1673.12 1867.85 1839.83
4370.36 1691.56 1691.22 1870.03 1865.06
4373.27 1688.83 1686.92 1857.31 1870.03
4376.17 1680.38 1715 1882.76 1904.4
4379.08 1775.78 1745.17 1973.12 1931.97
4381.99 1779.36 1776.13 1940.04 1938.81
4384.89 1773.24 1762.61 1903.28 1916.91
4387.8 1735.21 1754.37 1907.41 1911.43
4390.71 1754.66 1725.98 1923.61 1898
4393.61 1688.08 1729.2 1862.97 1900.39
4396.52 1744.87 1713.86 1914.59 1875.44
4399.43 1708.64 1733.52 1848.76 1895.98
4402.33 1747.04 1761.08 1924.59 1920.24
4405.24 1827.54 1784.9 1987.38 1954.78
4408.14 1780.11 1837.09 1952.37 2012.71
4411.05 1903.62 1809.76 2098.38 1991.38
4413.96 1745.54 1795.36 1923.38 1981.9
4416.86 1736.91 1729.31 1923.94 1910.65
4419.77 1705.47 1731.25 1884.64 1922.57
4422.68 1751.36 1740.01 1959.15 1922.88
4425.58 1763.2 1759.65 1924.86 1957.64
4428.49 1764.38 1773.09 1988.91 1963.98
4431.39 1791.68 1759.82 1978.16 1964.14
4434.3 1723.4 1740.11 1925.35 1927.29
4437.2 1705.26 1745.22 1878.35 1944.77
4440.11 1806.99 1770.53 2030.6 1963.55
4443.02 1799.35 1802.58 1981.68 1998.22
4445.92 1801.4 1815.99 1982.37 1997.92
4448.83 1847.21 1770.97 2029.72 1947.4
4451.73 1664.3 1770.71 1830.09 1952.47
4454.64 1800.62 1743.05 1997.6 1930.05
4457.54 1764.22 1777.5 1962.46 1981.86
4460.45 1767.66 1760.93 1985.53 1973.6
4463.35 1750.9 1777.6 1972.8 1996.06
4466.26 1814.24 1756.27 2029.87 1972.08
4469.17 1703.66 1788.37 1913.56 2000.56
4472.07 1847.22 1785.23 2058.24 1999.55
4474.98 1804.82 1814.4 2026.86 2031.93
4477.88 1791.16 1809.48 2010.7 2021.48
4480.79 1832.46 1828.68 2026.87 2046.21
4483.69 1862.4 1823.31 2101.08 2036.21
4486.6 1775.05 1784.62 1980.68 2000.97
4489.5 1716.41 1776.22 1921.17 1985.39
4492.41 1837.21 1815.61 2054.31 2031.31
4495.31 1893.22 1808.5 2118.45 2013.47
4498.22 1695.07 1793.21 1867.65 2004
4501.12 1791.33 1769.91 2025.91 1979.23
4504.03 1823.35 1802.35 2044.13 2028.06
4506.93 1792.36 1801.94 2014.14 2023.35
4509.83 1790.11 1804.19 2011.79 2020.82
4512.74 1830.08 1781.67 2036.53 1997.19
4515.64 1724.8 1786.77 1943.25 2000
4518.55 1805.42 1809.52 2020.24 2025.05
4521.45 1898.36 1830.95 2111.65 2038.86
4524.36 1789.08 1831.73 1984.68 2046.25
4527.26 1807.76 1800.55 2042.42 2022.22
4530.17 1804.8 1808.5 2039.56 2037.41
4533.07 1812.93 1814.32 2030.24 2038.31
4535.98 1825.24 1808.98 2045.14 2031.66
4538.88 1788.78 1803.96 2019.6 2047.4
4541.78 1797.88 1805.13 2077.44 2055.43
4544.69 1828.75 1813.25 2069.24 2058.69
4547.59 1813.13 1855.99 2029.38 2083.18
4550.5 1926.09 1857.84 2150.92 2086.07
4553.4 1834.29 1829 2077.9 2059.11
4556.3 1726.62 1782.33 1948.5 2004.29
4559.21 1786.09 1763.28 1986.47 1986.15
4562.11 1777.14 1817.01 2023.48 2032.29
4565.02 1887.8 1829.53 2086.93 2047.02
4567.92 1823.66 1835.77 2030.64 2043.68
4570.82 1795.85 1838.55 2013.48 2050.01
4573.73 1896.13 1835.7 2105.9 2057.68
4576.63 1815.13 1837.84 2053.65 2065.32
4579.53 1802.28 1772.92 2036.41 2011.19
4582.44 1701.36 1803.31 1943.52 2037.28
4585.34 1906.3 1792.52 2131.92 2020.12
4588.24 1769.89 1844.53 1984.93 2058.57
4591.15 1857.41 1824.42 2058.85 2044.95
4594.05 1845.96 1844.54 2091.06 2071.91
4596.95 1830.25 1837.33 2065.82 2076.15
4599.86 1835.78 1827.8 2071.58 2056.36
4602.76 1817.36 1845.55 2031.69 2073.77
4605.66 1883.52 1837.62 2118.04 2067.02
4608.57 1811.99 1869.88 2051.33 2109.18
4611.47 1914.13 1867.57 2158.17 2099.96
4614.37 1876.6 1880.92 2090.36 2110.08
4617.28 1852.02 1870.69 2081.71 2107.69
4620.18 1883.44 1872.02 2151 2121.44
4623.08 1880.6 1845.03 2131.6 2092.77
4625.98 1771.05 1836.11 1995.73 2074.83
4628.89 1856.69 1823.34 2097.15 2065.58
4631.79 1842.28 1817.1 2103.85 2047.93
4634.69 1752.32 1849.34 1942.78 2084.1
4637.59 1953.41 1852.2 2205.67 2085.67
4640.5 1850.88 1880.27 2108.56 2136.38
4643.4 1836.52 1833.3 2094.92 2094.84
4646.3 1812.49 1870.31 2081.04 2132.06
4649.2 1961.93 1888.51 2220.23 2156.74
4652.11 1891.11 1893.18 2168.94 2160.66
4655.01 1826.51 1861.49 2092.82 2132.74
4657.91 1866.84 1877.05 2136.46 2151.44
4660.81 1937.79 1889.62 2225.04 2167.18
4663.72 1864.23 1895.62 2140.05 2167.39
4666.62 1884.85 1879.74 2137.08 2140.84
4669.52 1890.14 1907.42 2145.39 2159.52
4672.42 1947.26 1906.46 2196.09 2162.29
4675.32 1881.98 1893.42 2145.4 2166.48
4678.23 1851.03 1884.93 2157.94 2164.52
4681.13 1921.79 1859.74 2190.21 2136.51
4684.03 1806.4 1852.78 2061.4 2119.6
4686.93 1830.16 1835.45 2107.21 2105.22
4689.83 1869.81 1864.71 2147.04 2136.2
4692.73 1894.16 1855.92 2154.34 2123.97
4695.64 1803.79 1862.87 2070.54 2120.4
4698.54 1890.65 1857.48 2136.33 2126.26
4701.44 1878 1884.61 2171.92 2167.13
4704.34 1885.17 1869.78 2193.13 2166.09
4707.24 1846.17 1876.25 2133.22 2174.28
4710.14 1897.4 1861.56 2196.48 2142.73
4713.04 1841.1 1874.3 2098.49 2157.07
4715.94 1884.39 1872.5 2176.25 2139.09
4718.85 1892.02 1894.2 2142.52 2175.11
4721.75 1906.2 1881.78 2206.54 2164.79
4724.65 1847.14 1872.08 2145.31 2168.84
4727.55 1862.92 1842.7 2154.66 2124.46
4730.45 1818.03 1865.93 2073.42 2140.03
4733.35 1916.83 1881.77 2192.01 2142.07
4736.25 1910.45 1880.4 2160.78 2152.55
4739.15 1813.92 1840.37 2104.87 2124.54
4742.05 1796.73 1795.08 2107.97 2093.38
4744.95 1774.59 1786.86 2067.28 2087.02
4747.85 1789.25 1792.83 2085.82 2081.34
4750.75 1814.65 1794.82 2090.92 2073.46
4753.65 1780.56 1830.03 2043.64 2102.42
4756.55 1894.88 1835.91 2172.7 2114.83
4759.46 1832.29 1861.94 2128.14 2136.5
4762.36 1858.65 1856 2108.66 2144.45
4765.26 1877.07 1845.44 2196.57 2129.58
4768.16 1800.62 1866.45 2083.51 2159.8
4771.06 1921.66 1845.52 2199.32 2125.57
4773.96 1814.29 1839.3 2093.88 2118.83
4776.86 1781.97 1808.9 2063.28 2094.05
4779.76 1830.45 1797.7 2124.98 2083.9
4782.66 1780.69 1829.84 2063.44 2124.25
4785.56 1878.4 1816.96 2184.32 2108.28
4788.46 1791.79 1819.9 2077.09 2102.94
4791.35 1789.53 1796.17 2047.41 2072.93
4794.25 1807.19 1797.41 2094.29 2072.85
4797.15 1795.51 1797.75 2076.86 2081.43
4800.05 1790.55 1771.86 2073.13 2045.15
4802.95 1729.54 1752.69 1985.45 2021.15
4805.85 1737.98 1742.4 2004.87 2012.62
4808.75 1759.7 1765.32 2047.54 2044.48
4811.65 1798.29 1771.78 2081.02 2048.76
4814.55 1757.34 1787.82 2017.73 2067.51
4817.45 1807.84 1773.08 2103.77 2054.38
4820.35 1754.05 1774.75 2041.65 2065.23
4823.25 1762.35 1790.48 2050.27 2080.41
4826.15 1855.04 1823.47 2149.3 2110.68
4829.05 1853.01 1812.82 2132.48 2089.61
4831.94 1730.41 1768.37 1987.07 2035.84
4834.84 1721.68 1722.62 1987.97 1988.78
4837.74 1715.76 1721.63 1991.29 2009.27
4840.64 1727.46 1717.8 2048.56 2007.55
4843.54 1710.17 1711.94 1982.78 1999.87
4846.44 1698.18 1698.12 1968.27 1972.78
4849.34 1686 1670.41 1967.29 1936.71
4852.23 1627.04 1627.27 1874.57 1891.43
4855.13 1568.77 1586.52 1832.41 1829.63
4858.03 1563.76 1531.46 1781.92 1770.87
4860.93 1461.85 1495.18 1698.29 1719.63
4863.83 1459.92 1498.38 1678.7 1724.41
4866.73 1573.36 1536.09 1796.26 1769.01
4869.62 1575 1577.87 1832.06 1823.75
4872.52 1585.23 1594.48 1842.91 1851.03
4875.42 1623.22 1589.31 1878.1 1858.91
4878.32 1559.48 1617.55 1855.71 1902
4881.21 1669.94 1637.19 1972.17 1926.78
4884.11 1682.14 1645.51 1952.44 1934.31
4887.01 1584.44 1659.42 1878.3 1934.13
4889.91 1711.68 1637.25 1971.66 1909.44
4892.81 1615.62 1678.87 1878.37 1945.27
4895.7 1709.3 1695.09 1985.78 1953.93
4898.6 1760.35 1731.64 1997.66 2002.67
4901.5 1725.29 1722.36 2024.56 1994.38
4904.39 1681.44 1715.71 1960.92 2011.71
4907.29 1740.41 1706.42 2049.65 1994.03
4910.19 1697.42 1722.85 1971.53 2019.67
4913.09 1730.72 1732.21 2037.84 2018.03
4915.98 1768.48 1737.11 2044.71 2036.26
4918.88 1712.13 1760.9 2026.24 2053.27
4921.78 1802.1 1722.47 2088.85 2018.62
4924.67 1653.17 1729.73 1940.77 2023.94
4927.57 1733.92 1713.85 2042.2 2005.96
4930.47 1754.45 1754.69 2034.9 2038.02
4933.36 1775.68 1759.94 2036.97 2038.49
4936.26 1749.67 1765.68 2043.58 2044.32
4939.16 1771.68 1763.79 2052.41 2040.54
4942.05 1770.01 1770.35 2025.63 2037.48
4944.95 1769.35 1792.11 2034.4 2076.78
4947.85 1836.95 1806.22 2170.3 2109.94
4950.74 1812.35 1796.98 2125.12 2112.06
4953.64 1741.65 1758.45 2040.77 2054.88
4956.53 1721.36 1739.42 1998.75 2027.82
4959.43 1755.25 1749.73 2043.94 2052.24
4962.33 1772.58 1757.58 2114.03 2051.29
4965.22 1744.9 1721.96 1995.91 2005.95
4968.12 1648.39 1703.55 1907.9 1976.41
4971.01 1717.35 1721.71 2025.41 2008.16
4973.91 1799.38 1776.53 2091.17 2078.65
4976.81 1812.87 1787.08 2119.37 2098.43
4979.7 1749 1773.77 2084.77 2086.21
4982.6 1759.42 1768.33 2054.49 2092.14
4985.49 1796.55 1775.83 2137.16 2080.13
4988.39 1771.52 1771.42 2048.74 2093.75
4991.28 1746.2 1761.91 2095.35 2070.36
4994.18 1768.01 1789.23 2066.99 2113.96
4997.07 1853.49 1804.87 2179.55 2107.05
4999.97 1793.11 1817.3 2074.62 2121.01
5002.86 1805.29 1777.36 2108.85 2071.81
5005.76 1733.66 1761.98 2031.95 2061.84
5008.65 1746.99 1774.82 2044.74 2069.87
5011.55 1843.81 1801.47 2132.94 2102.88
5014.44 1813.61 1822.67 2130.96 2114.09
5017.34 1810.61 1830.5 2078.35 2115.15
5020.23 1867.28 1822.35 2136.14 2107.41
5023.13 1789.16 1812.37 2107.73 2105.1
5026.02 1780.68 1759.78 2071.43 2060.05
5028.92 1709.5 1755.02 2001.01 2040.5
5031.81 1774.89 1769.64 2049.06 2061.63
5034.7 1824.52 1782.13 2134.84 2064.65
5037.6 1746.98 1788.32 2010.06 2078.41
5040.49 1793.45 1779 2090.33 2056.31
5043.39 1796.57 1787.33 2068.55 2080.02
5046.28 1771.96 1790.6 2081.19 2087.1
5049.17 1803.28 1804.47 2111.57 2114.9
5052.07 1838.18 1776.3 2151.93 2071.82
5054.96 1687.43 1804.57 1951.97 2098.6
5057.86 1888.11 1782.13 2191.91 2069.61
5060.75 1770.85 1794.2 2064.96 2099.54
5063.64 1723.64 1775.9 2041.76 2075.09
5066.54 1833.2 1783.75 2118.55 2083.84
5069.43 1794.42 1826.43 2091.21 2126.97
5072.32 1851.65 1802.69 2171.15 2111.1
5075.22 1762 1784.16 2070.94 2095.07
5078.11 1738.83 1789.42 2043.11 2097.29
5081 1867.45 1777.88 2177.82 2071.34
5083.9 1727.37 1796.87 1993.1 2090.78
5086.79 1795.8 1772.72 2101.43 2074.24
5089.68 1794.98 1774.74 2128.19 2097.63
5092.57 1733.45 1766.61 2063.27 2091.81
5095.47 1771.41 1762.53 2083.98 2079.68
5098.36 1782.74 1754.64 2091.81 2065.48
5101.25 1709.78 1734.75 2020.66 2040.2
5104.14 1711.72 1708.43 2008.14 2018.01
5107.04 1703.77 1730.83 2025.22 2049.69
5109.93 1777 1719.03 2115.71 2038.59
5112.82 1676.32 1721.31 1974.83 2053.48
5115.71 1710.62 1730.18 2069.9 2058.72
5118.61 1803.61 1730.31 2131.42 2059.55
5121.5 1676.71 1729.61 1977.32 2039.65
5124.39 1708.52 1719.32 2010.21 2025.76
5127.28 1772.73 1743.08 2089.75 2051.34
5130.17 1747.99 1730.15 2054.05 2037.57
5133.07 1669.74 1721.51 1968.9 2015.68
5135.96 1746.79 1710.41 2024.08 2011
5138.85 1714.69 1715.81 2040.01 2024.57
5141.74 1685.97 1720.24 2009.61 2038.56
5144.63 1760.07 1698.23 2066.06 1996.58
5147.52 1648.66 1680.11 1914.08 1971.98
5150.41 1631.6 1681.64 1935.8 1981.54
5153.31 1764.68 1704.28 2094.72 2017.81
5156.2 1716.56 1733.68 2022.9 2056.03
5159.09 1719.79 1709.37 2050.46 2025.65
5161.98 1691.74 1731.45 2003.6 2064.34
5164.87 1782.8 1717.3 2138.96 2043.4
5167.76 1677.37 1713.52 1987.64 2028.98
5170.65 1680.4 1691.1 1960.35 1994.37
5173.54 1715.52 1704.01 2035.13 2014.53
5176.43 1716.1 1718.25 2048.12 2034.38
5179.32 1723.14 1724.01 2019.9 2035.03
5182.21 1732.79 1723.44 2037.07 2025.86
5185.1 1714.38 1714.58 2020.61 2025.24
5187.99 1696.57 1699.27 2018.04 2010.68
5190.88 1686.86 1672.28 1993.38 1983.79
5193.77 1633.39 1666.48 1939.96 1980.55
5196.66 1679.17 1673.41 2008.33 1989.65
5199.55 1707.67 1693.06 2020.66 2008.74
5202.44 1692.33 1703.87 1997.24 2017.68
5205.33 1711.6 1704.96 2035.15 2015.85
5208.22 1710.94 1690.82 2015.18 1998.09
5211.11 1649.92 1693.41 1943.94 2002.38
5214 1719.37 1669.68 2048.02 1978.53
5216.89 1639.75 1698.17 1943.63 2012.97
5219.78 1735.4 1678.02 2047.27 1987.6
5222.67 1658.91 1701.5 1971.89 2026.5
5225.56 1710.21 1681.8 2060.35 2005.88
5228.45 1676.28 1681.97 1985.39 2017.86
5231.34 1659.42 1653.43 2007.83 1992.53
5234.23 1624.58 1637.69 1984.38 1975.86
5237.12 1629.07 1654.46 1935.38 1973.64
5240.01 1709.74 1686.61 2001.17 1993.7
5242.9 1721.02 1698.25 2044.57 2009.08
5245.78 1664 1676.16 1981.5 1996
5248.67 1643.45 1636.03 1961.95 1945.44
5251.56 1600.64 1622.77 1892.86 1931.64
5254.45 1624.22 1612.36 1940.13 1930.01
5257.34 1612.21 1628.17 1957.04 1949.63
5260.23 1648.08 1643.06 1951.72 1965.1
5263.11 1668.87 1664.45 1986.55 1977.12
5266 1676.4 1657.86 1993.09 1982.64
5268.89 1628.31 1657.07 1968.27 1974.02
5271.78 1666.5 1642.58 1960.7 1955.23
5274.67 1632.94 1653.69 1936.73 1956.52
5277.55 1661.63 1653.06 1972.12 1973.05
5280.44 1664.61 1640.84 2010.3 1969.89
5283.33 1596.28 1617.94 1927.24 1948.94
5286.22 1592.93 1582.42 1909.27 1902.74
5289.11 1558.05 1617.94 1871.71 1938.03
5291.99 1702.85 1622.94 2033.12 1936.15
5294.88 1607.92 1636.71 1903.63 1947.49
5297.77 1599.37 1634.2 1905.72 1936.91
5300.65 1695.3 1586.77 2001.39 1941.55
5303.54 1465.64 1554.6 1917.56 1954.65
5306.43 1502.84 1467.25 1945 1906.21
5309.32 1433.28 1478.16 1856.09 1924.21
5312.2 1498.35 1475.64 1971.56 1929.03
5315.09 1495.3 1477.9 1959.45 1936.03
5317.98 1440.04 1462.3 1877.09 1913.06
5320.86 1451.57 1440.15 1902.65 1876.47
5323.75 1428.83 1441.56 1849.67 1874.19
5326.63 1444.27 1445 1870.25 1880.41
5329.52 1461.9 1458.07 1921.3 1907.03
5332.41 1468.03 1447.23 1929.53 1896.58
5335.29 1411.76 1433.92 1838.92 1866.6
5338.18 1421.98 1391.15 1831.35 1832.48
5341.07 1339.7 1418.84 1827.18 1856.24
5343.95 1494.85 1426.27 1910.17 1888.24
5346.84 1444.25 1453.2 1927.35 1895.06
5349.72 1420.51 1462.34 1847.66 1921.18
5352.61 1522.25 1478.87 1988.54 1917.18
5355.49 1493.84 1489.34 1915.34 1928.57
5358.38 1451.91 1466.14 1881.82 1901.18
5361.27 1452.65 1471.37 1906.37 1915.13
5364.15 1509.55 1458.88 1957.19 1906.86
5367.04 1414.43 1444.74 1857.02 1905.94
5369.92 1410.26 1422.38 1903.62 1874.81
5372.81 1442.45 1451.26 1863.81 1905.98
5375.69 1501.08 1455.69 1950.52 1883.51
5378.58 1423.54 1472.72 1836.21 1910.77
5381.46 1493.55 1474.07 1945.59 1908.69
5384.34 1505.12 1486.07 1944.28 1933.62
5387.23 1459.55 1455.47 1911.01 1917.93
5390.11 1401.75 1444.92 1898.5 1899.93
5393 1473.45 1424 1890.29 1869.67
5395.88 1396.79 1440.89 1820.22 1864.96
5398.77 1452.43 1412.11 1884.38 1835.11
5401.65 1387.12 1429.6 1800.73 1857.35
5404.54 1449.25 1413.41 1886.94 1835.71
5407.42 1403.86 1436.96 1819.47 1853.15
5410.3 1457.79 1451.51 1853.05 1870.34
5413.19 1492.9 1479.58 1938.5 1900.21
5416.07 1488.05 1497.3 1909.07 1931.47
5418.95 1510.95 1471.16 1946.83 1887.45
5421.84 1414.48 1411.17 1806.44 1846.14
5424.72 1308.06 1392.93 1785.15 1829.15
5427.6 1456.24 1406.83 1895.84 1848.13
5430.49 1456.19 1445.59 1863.39 1860.54
5433.37 1424.34 1439.96 1822.4 1848.04
5436.25 1439.34 1439.4 1858.35 1843.88
5439.14 1454.53 1454.85 1850.9 1862.7
5442.02 1470.69 1428.62 1878.84 1856.15
5444.9 1360.64 1432.81 1838.71 1864.45
5447.79 1467.1 1429.6 1875.81 1862.2
5450.67 1461.06 1451.44 1872.09 1866.17
5453.55 1426.18 1439.78 1850.62 1857.24
5456.43 1432.09 1417.17 1849.01 1834.78
5459.31 1393.23 1419.87 1804.71 1838.5
5462.2 1434.3 1424.63 1861.79 1840.51
5465.08 1446.36 1427.19 1855.02 1839.8
5467.96 1400.9 1417.5 1802.57 1818.15
5470.84 1405.25 1409.82 1796.84 1809.9
5473.73 1423.31 1405.74 1830.27 1811.66
5476.61 1388.65 1414.39 1807.86 1827.88
5479.49 1431.2 1428.26 1845.51 1845.03
5482.37 1464.93 1437.08 1881.71 1843.15
5485.25 1415.11 1441.75 1802.25 1852.04
5488.13 1445.2 1406.55 1872.15 1842.56
5491.01 1359.34 1393.5 1853.29 1870.46
5493.9 1375.98 1383.36 1885.93 1852.98
5496.78 1414.76 1401.15 1819.72 1837.73
5499.66 1412.71 1420.73 1807.53 1824.12
5502.54 1434.71 1405.29 1845.11 1807.76
5505.42 1368.45 1412.43 1770.63 1832.1
5508.3 1434.15 1403.67 1880.56 1810.47
5511.18 1408.41 1421.28 1780.21 1840.11
5514.06 1421.28 1393.1 1859.56 1795.14
5516.94 1349.62 1380.21 1745.66 1823.77
5519.82 1369.74 1364.94 1866.11 1790.29
5522.7 1375.47 1373.62 1759.12 1789.31
5525.58 1375.64 1357.77 1742.7 1777.36
5528.46 1322.2 1379.67 1830.27 1806.33
5531.34 1441.17 1346.02 1846.01 1798.12
5534.22 1274.7 1341.12 1718.09 1777.4
5537.1 1307.49 1346.47 1768.08 1792.25
5539.98 1457.23 1411.22 1890.56 1843.35
5542.86 1468.94 1414.21 1871.4 1822.8
5545.74 1316.45 1374.49 1706.42 1775.1
5548.62 1338.08 1303 1747.48 1722.76
5551.5 1254.47 1298.08 1714.37 1735.97
5554.38 1301.7 1323.27 1746.05 1750.44
5557.26 1413.65 1377.16 1790.9 1777.94
5560.14 1416.14 1417.03 1796.89 1784.93
5563.02 1421.3 1412.33 1767 1783.15
5565.9 1399.54 1453.71 1785.57 1839.54
5568.77 1540.29 1412.85 1966.05 1785.39
5571.65 1298.72 1434.01 1604.56 1797.59
5574.53 1463.03 1369.8 1822.17 1703.78
5577.41 1347.65 1392.27 1684.61 1803.85
5580.29 1366.14 1388.94 1904.77 1798.1
5583.17 1453.02 1308.07 1804.93 1866.8
5586.04 1105.04 1320.91 1890.69 1833.63
5588.92 1404.66 1274.5 1805.27 1794.34
5591.8 1313.8 1393.91 1687.06 1766.23
5594.68 1463.26 1376.87 1806.35 1738.53
5597.56 1353.55 1366.62 1722.17 1766.99
5600.43 1283.06 1288.65 1772.46 1726.95
5603.31 1229.33 1297.46 1686.23 1742.99
5606.19 1380 1306.05 1770.28 1716.78
5609.07 1308.81 1322.32 1693.82 1740.1
5611.94 1278.15 1323.64 1756.19 1733.04
5614.82 1383.95 1317.37 1749.13 1755.87
5617.7 1290 1335.69 1762.29 1729.53
5620.58 1333.12 1333.38 1677.18 1715.57
5623.45 1377.01 1351.62 1707.24 1712.98
5626.33 1344.74 1357.28 1754.52 1724.4
5629.21 1350.09 1355.19 1711.43 1725.02
5632.08 1370.74 1379.92 1709.12 1734.15
5634.96 1418.91 1357.91 1781.91 1705.55
5637.83 1284.07 1308.48 1625.62 1690.52
5640.71 1222.48 1286.92 1664.04 1662.47
5643.59 1354.22 1305.52 1697.77 1688.32
5646.46 1339.87 1350.87 1703.15 1703.12
5649.34 1358.52 1338 1708.45 1688.72
5652.22 1315.62 1330.83 1654.54 1679.04
5655.09 1318.33 1310.95 1674.13 1661.76
5657.97 1298.89 1316.8 1656.62 1666.82
5660.84 1333.16 1324.16 1669.7 1669.11
5663.72 1340.43 1364.82 1681 1717.59
5666.59 1420.88 1357.45 1802.07 1717.47
5669.47 1311.04 1351.93 1669.33 1710.04
5672.34 1323.85 1329.9 1658.71 1677.79
5675.22 1354.79 1327.12 1705.33 1672.89
5678.09 1302.71 1341.46 1654.63 1685.42
5680.97 1366.87 1318.56 1696.3 1666.11
5683.84 1286.1 1322.5 1647.39 1674.04
5686.72 1314.52 1304 1678.44 1656.15
5689.59 1311.39 1286.44 1642.63 1660.89
5692.47 1233.39 1244.98 1661.61 1652.5
5695.34 1190.14 1250.01 1653.26 1667.27
5698.22 1326.49 1267.25 1686.95 1656.8
5701.09 1285.13 1274.03 1630.18 1608.88
5703.96 1210.47 1274.17 1509.5 1595.51
5706.84 1326.91 1281.64 1646.84 1598.46
5709.71 1307.56 1274.16 1639.04 1634.09
5712.58 1188 1283.81 1616.38 1641.4
5715.46 1355.87 1282.97 1668.77 1650.75
5718.33 1305.03 1281.22 1667.11 1632.37
5721.21 1182.76 1263.78 1561.22 1622.08
5724.08 1303.54 1218.04 1637.9 1594.75
5726.95 1167.83 1264.8 1585.12 1627.39
5729.82 1323.04 1262.31 1659.15 1628.67
5732.7 1296.06 1294.9 1641.73 1622.99
5735.57 1265.58 1266.64 1568.1 1574.68
5738.44 1238.27 1271.38 1514.2 1562.67
5741.32 1310.29 1262.84 1605.72 1570.18
5744.19 1239.95 1276.31 1590.62 1601.14
5747.06 1278.69 1242.59 1607.07 1601.97
5749.93 1209.14 1220.6 1608.23 1594.58
5752.81 1173.97 1202.27 1568.44 1556.98
5755.68 1223.69 1253.92 1494.27 1581.07
5758.55 1364.12 1262.01 1680.5 1563.08
5761.42 1198.23 1277.21 1514.47 1598.5
5764.29 1269.28 1169.16 1600.54 1520.31
5767.17 1039.97 1162.92 1445.9 1555.93
5770.04 1179.51 1159.69 1621.35 1536.01
5772.91 1259.58 1245.73 1540.78 1591
5775.78 1298.1 1235.85 1610.86 1560.01
5778.65 1149.88 1227.33 1528.4 1551.01
5781.52 1234.01 1178.27 1513.76 1531.43
5784.39 1150.91 1194.45 1552.12 1506.01
5787.26 1198.43 1204.83 1452.14 1520.31
5790.13 1265.15 1227.59 1556.67 1517.82
5793.01 1219.17 1198.05 1544.65 1536.83
5795.88 1109.84 1172.6 1509.17 1513.59
5798.75 1188.79 1172.1 1486.94 1501.41
5801.62 1217.69 1199.19 1508.13 1483.99
5804.49 1191.09 1181.4 1456.89 1464.45
5807.36 1135.42 1193.45 1428.32 1475.66
5810.23 1253.84 1201.79 1541.76 1488.83
5813.1 1216.12 1231.97 1496.41 1514.27
5815.97 1225.95 1222.36 1504.65 1516.71
5818.84 1225 1228.24 1549.08 1523.82
5821.71 1233.75 1253.86 1517.73 1562.16
5824.58 1302.81 1260.8 1619.67 1558.26
5827.45 1245.83 1250.26 1537.39 1545.96
5830.31 1202.15 1214.02 1480.82 1509.69
5833.18 1194.09 1194.06 1510.86 1498.82
5836.05 1185.96 1185.94 1504.78 1489.56
5838.92 1177.78 1189.4 1453.05 1497.41
5841.79 1204.45 1170.35 1534.41 1506.23
5844.66 1128.83 1189.12 1531.23 1524.13
5847.53 1234.08 1147.25 1506.74 1501.8
5850.4 1078.85 1145.09 1467.44 1500.2
5853.27 1122.34 1144.72 1526.43 1500.21
5856.13 1232.98 1175.82 1506.76 1490.32
5859 1172.12 1214.32 1437.76 1475.15
5861.87 1237.87 1170.86 1480.91 1490.68
5864.74 1102.61 1144.19 1553.35 1521.15
5867.61 1092.11 1148.56 1529.18 1551.93
5870.47 1250.96 1143.27 1573.26 1540.8
5873.34 1086.73 1196.01 1519.95 1542.27
5876.21 1250.32 1148.06 1533.58 1481.74
5879.08 1107.13 1189.54 1391.67 1480.98
5881.94 1211.16 1111.79 1517.7 1458.54
5884.81 1017.07 1131.3 1466.25 1462.97
5887.68 1165.66 1096.03 1404.97 1405.2
5890.54 1105.36 1012.47 1344.38 1375.74
5893.41 766.389 1003.72 1377.88 1363.05
5896.28 1139.4 993.302 1366.87 1367
5899.14 1074.12 1117.93 1356.24 1380.9
5902.01 1140.27 1068.55 1419.59 1412.34
5904.88 991.265 1095.7 1461.2 1432.88
5907.74 1155.58 1086.44 1417.85 1417.7
5910.61 1112.48 1143.55 1374.06 1413.15
5913.48 1162.58 1140.51 1447.53 1400.12
5916.34 1146.45 1173.99 1378.78 1423.69
5919.21 1212.92 1183.15 1444.75 1417.16
5922.07 1190.09 1149.3 1427.95 1428.93
5924.94 1044.9 1156.14 1414.08 1437.66
5927.8 1233.43 1107.87 1470.94 1449.2
5930.67 1045.3 1149.6 1462.57 1447.21
5933.53 1170.09 1087.26 1408.13 1432.93
5936.4 1046.39 1109.27 1428.08 1404.84
5939.26 1111.32 1125.48 1378.31 1430.59
5942.13 1218.73 1139.95 1485.37 1410.31
5944.99 1089.79 1155.38 1367.26 1426.73
5947.86 1157.6 1138.05 1427.56 1395.6
5950.72 1166.74 1112.78 1391.99 1416.7
5953.59 1014 1116.51 1430.54 1399.4
5956.45 1168.8 1081.3 1375.68 1370.28
5959.32 1061.09 1115.64 1304.62 1339.28
5962.18 1117.02 1078.65 1337.53 1350.94
5965.04 1057.84 1083.28 1410.68 1350.59
5967.91 1074.99 1081.89 1303.57 1343.19
5970.77 1112.84 1120 1315.32 1344.51
5973.64 1172.17 1157.09 1414.64 1389.88
5976.5 1186.25 1175.48 1439.67 1422.31
5979.36 1168.01 1139 1412.61 1385.35
5982.23 1062.74 1090.76 1303.76 1366.05
5985.09 1041.51 1065.79 1381.78 1322.26
5987.95 1093.1 1097.55 1281.24 1349.74
5990.81 1158.03 1128.7 1386.19 1338
5993.68 1134.96 1161.13 1346.56 1380.82
5996.54 1190.41 1110.64 1409.72 1374.53
5999.4 1006.56 1071.46 1367.31 1376.66
6002.26 1017.41 1018.33 1352.94 1320.56
6005.13 1031.03 1064.01 1241.44 1325.34
6007.99 1143.6 1120.53 1381.66 1353.03
6010.85 1186.96 1136.81 1436 1379.35
6013.71 1079.86 1073.91 1320.39 1341.42
6016.57 954.915 1041.37 1267.87 1307.84
6019.44 1089.32 1054.29 1335.28 1314.96
6022.3 1118.63 1084.53 1341.73 1314.21
6025.16 1045.63 1083.51 1265.62 1305.02
6028.02 1086.26 1052.52 1307.71 1276.92
6030.88 1025.67 1015.2 1257.42 1277.9
6033.74 933.668 1021.69 1268.58 1271
6036.6 1105.74 1062.14 1287 1301.87
6039.46 1147.01 1098.97 1350.02 1301.51
6042.33 1044.16 1045.82 1267.51 1295.37
6045.19 946.292 1022.9 1268.59 1278
6048.05 1078.23 999.304 1297.91 1271.85
6050.91 973.386 1022.93 1249.06 1292.89
6053.77 1017.17 1026.29 1331.71 1316.39
6056.63 1088.3 1065.06 1368.41 1323.97
6059.49 1089.71 1059.56 1271.78 1304.04
6062.35 1000.67 1043.8 1271.93 1273.48
6065.21 1041.03 1073.13 1276.72 1319.42
6068.07 1177.69 1070.75 1409.62 1328.21
6070.93 993.534 1077.66 1298.28 1330.92
6073.79 1061.76 1045.51 1284.87 1288.24
6076.64 1081.25 1080.04 1281.58 1296.45
6079.5 1097.1 1087.88 1322.92 1305.9
6082.36 1085.28 1098.45 1313.21 1327.62
6085.22 1112.97 1083 1346.73 1329.3
6088.08 1050.73 1051.01 1327.95 1323.71
6090.94 989.334 997.768 1296.44 1294.43
6093.8 953.238 992.325 1258.89 1266.64
6096.66 1034.4 1025.06 1244.6 1266.85
6099.51 1087.55 1071.37 1297.05 1277.36
6102.37 1092.16 1081.33 1290.43 1263.4
6105.23 1064.28 1063.28 1202.71 1245.36
6108.09 1033.4 1012.95 1242.94 1225.92
6110.95 941.182 1007.36 1232.1 1248.53
6113.8 1047.5 1003.85 1270.55 1283.37
6116.66 1022.87 1045.65 1347.47 1299.93
6119.52 1066.58 1037.27 1281.78 1284.47
6122.38 1022.37 1053.76 1224.14 1251.56
6125.23 1072.33 1048.76 1248.75 1228.39
6128.09 1051.57 1102.32 1212.28 1270.94
6130.95 1183.05 2299.65 1351.78 2385.1
6133.8 4664.32 2398.83 4591.23 2449.95
6136.66 1349.11 2320.83 1406.85 2407.01
6139.52 949.052 1113.61 1222.95 1288.42
6142.37 1042.66 1014.23 1235.46 1224.95
6145.23 1050.97 1056.09 1216.42 1228.5
6148.08 1074.65 1009.38 1233.62 1199.43
6150.94 902.514 989.53 1148.25 1193.11
6153.8 991.425 944.421 1197.47 1179.91
6156.65 939.323 995.053 1194 1216.07
6159.51 1054.41 1004.15 1256.73 1214.48
6162.36 1018.72 1020.83 1192.72 1195.84
6165.22 989.355 995.321 1138.05 1157.87
6168.07 977.893 966.24 1142.84 1158.7
6170.93 931.47 1002.47 1195.2 1206.38
6173.78 1098.06 1003.5 1281.11 1205.24
6176.64 980.965 1022.21 1139.41 1222.1
6179.49 987.597 1004.47 1245.78 1208.5
6182.35 1044.84 1011.98 1240.32 1212.18
6185.2 1003.49 1022.78 1150.45 1184.92
6188.06 1020 1031.91 1163.99 1186.07
6190.91 1072.25 1030.37 1243.77 1194.87
6193.77 998.863 1012.71 1176.85 1211.27
6196.62 967.022 983.979 1213.2 1186.45
6199.47 986.051 969.54 1169.31 1198.14
6202.33 955.545 972.43 1211.91 1175.84
6205.18 975.694 985.97 1146.29 1186.62
6208.03 1026.67 1003.64 1201.67 1167.45
6210.89 1008.55 1003.79 1154.4 1166.37
6213.74 976.143 981.933 1143.04 1139.15
6216.59 961.108 970.715 1120.01 1126.66
6219.45 974.894 952.08 1116.93 1138.38
6222.3 920.238 977.683 1178.19 1167.07
6225.15 1037.92 928.539 1206.1 1167.06
6228 827.46 954.535 1116.89 1145.95
6230.86 998.226 931.991 1114.85 1108.75
6233.71 970.287 1012.72 1094.51 1130.64
6236.56 1069.66 1015.78 1182.57 1156.12
6239.41 1007.38 990.045 1191.28 1175
6242.26 893.094 972.696 1151.14 1182.48
6245.12 1017.61 953.533 1205.02 1146.55
6247.97 949.893 992.268 1083.48 1136.52
6250.82 1009.3 978 1121.06 1105.43
6253.67 974.806 937.322 1111.74 1106.31
6256.52 827.859 880.779 1086.12 1119.43
6259.37 839.671 873.326 1160.43 1115.56
6262.22 952.449 913.046 1100.14 1114.58
6265.07 947.018 936.155 1083.18 1077.12
6267.92 908.997 931.076 1048.04 1071.37
6270.78 937.212 911.387 1082.9 1060.33
6273.63 887.952 925.793 1050.05 1068.08
6276.48 952.214 914.17 1071.27 1050.48
6279.33 902.343 916.369 1030.11 1036.44
6282.18 894.549 903.618 1007.94 1024.98
6285.03 913.962 889.665 1036.9 1012.99
6287.88 860.484 852.939 994.13 1041.26
6290.73 784.371 864.795 1092.76 1037.76
6293.57 949.53 872.701 1026.39 1034.63
6296.42 884.2 939.42 984.746 1034.03
6299.27 984.529 937.994 1090.95 1040.75
6302.12 945.254 850.108 1046.56 1040.05
6304.97 620.542 759.33 982.641 1035.23
6307.82 712.194 754.335 1076.5 1037.18
6310.67 930.268 875.319 1052.41 1086.68
6313.52 983.494 925.532 1131.14 1082.97
6316.37 862.834 922.218 1065.36 1085.47
6319.21 920.326 895.778 1059.92 1053.89
6322.06 904.173 932.997 1036.39 1062.67
6324.91 974.492 919.64 1091.71 1088.86
6327.76 880.255 931.613 1138.47 1106.99
6330.6 940.091 918.996 1090.79 1147.54
6333.45 936.644 926.462 1213.38 1115.22
6336.3 902.652 862.729 1041.5 1079.05
6339.15 748.892 837.686 982.266 1033.83
6341.99 861.513 827.252 1077.71 1036.86
6344.84 871.35 831.761 1050.6 1059.99
6347.69 762.418 851.987 1051.64 1061.06
6350.53 922.192 835.698 1080.93 1059.61
6353.38 822.483 869.977 1046.25 1053.02
6356.23 865.256 843.265 1031.89 1051.23
6359.07 842.056 884.375 1075.55 1076.49
6361.92 945.813 831.049 1122.04 1069.71
6364.77 705.278 823.239 1011.55 1043.77
6367.61 818.626 776.76 997.713 999.044
6370.46 806.375 832.611 987.873 1013.54
6373.3 872.833 851.092 1055.04 1030.46
6376.15 874.068 875.707 1048.48 1047.75
6378.99 880.219 841.809 1039.73 1031.08
6381.84 771.14 820.633 1005.03 1011.8
6384.68 810.542 751.3 990.655 991.675
6387.53 672.217 750.402 979.341 987.433
6390.37 768.448 743.699 992.305 999.527
6393.22 790.432 802.348 1026.93 1005.92
6396.06 848.164 820.101 998.532 995.264
6398.91 821.707 849.025 960.327 1010.28
6401.75 877.205 827.869 1071.97 1015.28
6404.6 784.694 821.868 1013.53 1039.78
6407.44 803.705 817.578 1033.83 1028.08
6410.28 864.335 833.526 1036.89 1008.16
6413.13 832.537 816.743 953.771 982.431
6415.97 753.357 809.433 956.635 969.934
6418.81 842.404 828.618 999.395 999.783
6421.66 890.094 854.752 1043.32 1019.99
6424.5 831.757 815.28 1017.27 992.273
6427.34 723.989 797.136 916.231 973.085
6430.19 835.662 794.288 985.756 954.928
6433.03 823.214 830.763 962.796 978.917
6435.87 833.413 825.642 988.2 973.81
6438.71 820.3 823.675 970.434 969.402
6441.56 817.313 833.714 949.571 959.319
6444.4 863.528 839.09 957.951 951.485
6447.24 836.429 829.806 946.934 966.685
6450.08 789.463 828.63 995.171 958.102
6452.92 859.998 829.913 932.201 961.024
6455.76 840.28 855.716 955.7 962.811
6458.61 866.87 845.534 1000.53 973.882
6461.45 829.453 831.947 965.412 958.348
6464.29 799.516 819.338 909.098 948.456
6467.13 829.044 819.895 970.857 935.019
6469.97 831.124 812.554 925.104 927.426
6472.81 777.492 818.53 886.317 921.975
6475.65 846.973 770.278 954.504 921.198
6478.49 686.369 791.251 922.774 961.17
6481.33 840.412 790.208 1006.23 969.853
6484.17 843.844 803.197 980.551 973.188
6487.01 725.335 789.144 932.78 941.49
6489.85 798.253 770.88 911.139 911.159
6492.69 789.051 798.781 889.558 915.41
6495.53 809.038 785.998 945.535 899.999
6498.37 759.904 765.902 864.904 885.185
6501.21 728.764 764.217 845.118 889.268
6504.05 803.982 782.817 957.783 901.426
6506.89 815.705 793.541 901.377 937.648
6509.73 760.935 793.11 953.784 917.125
6512.56 802.691 775.903 896.214 907.972
6515.4 764.084 791.168 873.917 909.22
6518.24 806.729 765.059 957.529 914.143
6521.08 724.364 747.711 910.984 928.374
6523.92 712.039 740.114 916.608 936.083
6526.76 783.939 782.145 980.657 937.847
6529.59 850.457 760.069 916.276 918.565
6532.43 645.81 762.508 858.762 893.272
6535.27 791.258 740.736 904.778 873.018
6538.11 785.14 786.348 855.512 873.302
6540.94 782.647 746.479 859.617 870.014
6543.78 671.649 724.097 894.914 843.78
6546.62 717.995 704.813 776.809 828.642
6549.45 724.795 731.095 814.203 806.193
6552.29 750.495 737.892 827.567 816.901
6555.13 738.385 672.521 808.932 806.027
6557.96 528.683 610.915 781.582 792.986
6560.8 565.677 569.665 788.445 786.535
6563.63 614.636 629.452 789.578 777.829
6566.47 708.043 639.287 755.463 778.289
6569.31 595.182 678.1 789.826 781.969
6572.14 731.076 698.165 800.618 797.856
6574.98 768.237 696.169 803.124 803.175
6577.81 589.194 704.959 805.783 789.698
6580.65 757.447 680.427 760.188 793.32
6583.48 694.64 753.56 813.989 814.739
6586.32 808.592 729.043 870.042 836.86
6589.15 683.895 737.482 826.551 828.498
6591.99 719.96 707.023 788.9 851.862
6594.82 717.215 758.247 940.135 877.384
6597.65 837.567 778.548 903.117 904.058
6600.49 780.863 799.639 868.922 870.232
6603.32 780.489 771.157 838.658 836.028
6606.16 752.118 774.768 800.504 840.866
6608.99 791.697 744.255 883.434 825.776
6611.82 688.951 754.825 793.39 851.198
6614.66 783.827 742.898 876.771 828.22
6617.49 755.915 778.399 814.498 856.158
6620.32 795.456 773.052 877.206 866.718
6623.15 767.786 784.969 908.45 878.631
6625.99 791.664 777.181 850.236 867.472
6628.82 772.092 741.761 843.729 837.198
6631.65 661.525 716.408 817.628 808.021
6634.48 715.606 709.552 762.707 793.719
6637.32 751.524 743.12 800.821 802.876
6640.15 762.232 749.087 845.101 818.523
6642.98 733.507 720.51 809.646 824.338
6645.81 665.792 732.662 818.267 821.471
6648.64 798.688 744.449 836.501 830.723
6651.47 768.867 764.38 837.401 848.301
6654.31 725.584 745.907 871 858.265
6657.14 743.27 757.719 866.393 849.489
6659.97 804.303 780.299 811.075 849.775
6662.8 793.325 772.692 871.856 848.297
6665.63 720.449 730.826 861.959 817.597
6668.46 678.704 735.43 718.976 820.496
6671.29 807.136 734.688 880.553 785.067
6674.12 718.225 749.167 755.672 802.566
6676.95 722.141 759.303 771.475 804.852
6679.78 837.545 752.049 887.411 812.736
6682.61 696.462 760.255 779.323 839.14
6685.44 746.757 756.797 850.688 829.522
6688.27 827.171 782.975 858.555 828.527
6691.1 774.998 798.201 776.336 814.589
6693.92 792.435 761.156 808.876 796.702
6696.75 716.035 750.731 804.895 794.999
6699.58 743.724 740.474 771.226 796.669
6702.41 761.663 765.933 813.885 802.937
6705.24 792.412 756.037 823.699 804.395
6708.07 714.038 755.514 775.601 807.251
6710.89 760.092 735.655 822.453 778.796
6713.72 732.836 738.836 738.334 772.256
6716.55 723.58 745.037 755.981 762.397
6719.38 778.695 769.226 792.876 795.623
6722.21 805.404 787.132 838.013 816.764
6725.03 777.297 768.955 819.403 822.622
6727.86 724.166 724.213 810.452 809.785
6730.69 671.176 670.105 799.499 780.767
6733.51 614.975 664.422 732.35 763.413
6736.34 707.116 679.524 758.391 746.929
6739.17 716.482 700.169 750.046 748.677
6741.99 676.909 718.292 737.594 747.327
6744.82 761.485 713.665 754.339 749.699
6747.64 702.601 724.509 757.162 773.753
6750.47 709.441 718.253 809.757 774.093
6753.3 742.719 741.593 755.361 789.986
6756.12 772.619 764.87 804.839 782.913
6758.95 779.273 767.683 788.54 796.18
6761.77 751.156 754.519 795.161 782.693
6764.6 733.126 752.774 764.379 787.834
6767.42 774.04 769.279 803.961 792.053
6770.25 800.672 784.846 807.819 796.902
6773.07 779.825 768.657 778.928 782.559
6775.9 725.474 747.516 760.93 760.842
6778.72 737.25 712.421 742.669 726.069
6781.54 674.538 717.141 674.609 713.426
6784.37 739.635 706.194 723 707.18
6787.19 704.41 722.001 723.931 730.319
6790.01 721.958 726.669 744.026 744.269
6792.84 753.639 734.456 764.85 738.326
6795.66 727.773 718.159 706.102 734.718
6798.48 673.065 717.827 733.203 723.625
6801.31 752.643 700.953 731.571 724.865
6804.13 677.151 727.933 709.821 739.434
6806.95 754.005 712.42 776.909 729.56
6809.77 706.105 702.071 701.95 733.337
6812.6 646.103 659.424 721.152 709.703
6815.42 626.063 680.585 706.006 740.559
6818.24 769.589 709.987 794.518 735.383
6821.06 734.307 710.365 705.623 761.042
6823.88 627.197 676.42 782.985 720.438
6826.71 667.755 722.687 672.705 756.053
6829.53 873.109 782.148 812.47 745.122
6832.35 805.578 772.298 750.19 714.419
6835.17 638.206 717.367 580.598 685.716
6837.99 708.316 702.446 726.359 687.894
6840.81 760.818 720.324 756.726 726.399
6843.63 691.838 692.778 696.112 694.581
6846.45 625.679 668.576 630.904 673.005
6849.27 688.212 665.536 691.998 668.23
6852.09 682.715 700.72 681.787 694.539
6854.91 731.234 696.641 709.831 683.49
6857.73 675.974 687.393 658.851 653.87
6860.55 654.97 652.949 592.927 625.754
6863.37 627.902 630.802 625.485 607.701
6866.19 609.534 579.666 604.692 582.085
6869.01 501.561 551.546 516.078 544.275
6871.83 543.544 512.039 512.056 530.167
6874.64 491.012 555.061 562.368 566.402
6877.46 630.626 595.739 624.781 626.788
6880.28 665.58 660.775 693.216 668.701
6883.1 686.119 652.609 688.107 649.542
6885.92 606.127 590.427 567.304 614.05
6888.74 479.037 576.923 586.738 599.924
6891.55 645.606 587.865 645.728 616.845
6894.37 638.952 649.342 618.068 628.192
6897.19 663.47 628.722 620.781 595.234
6900 583.744 593.859 546.853 595.889
6902.82 534.365 598.136 620.032 605.58
6905.64 676.3 628.939 649.855 642.956
6908.46 676.154 686.041 658.981 652.885
6911.27 705.668 680.001 649.819 639.403
6914.09 658.18 658.133 609.409 611.015
6916.9 610.551 646.274 573.817 602.802
6919.72 670.091 615.402 625.18 611.863
6922.54 565.565 576.708 636.593 626.557
6925.35 494.468 575.168 617.898 626.05
6928.17 665.47 615.006 623.659 633.288
6930.98 685.081 605.431 658.307 590.846
6933.8 465.742 602.562 490.572 583.702
6936.61 656.864 597.108 602.228 573.298
6939.43 668.717 647.688 627.094 611.572
6942.24 617.483 642.586 605.393 608.401
6945.06 641.558 622.454 592.715 589.211
6947.87 608.321 593.664 569.524 601.96
6950.68 531.112 579.452 643.642 585.599
6953.5 598.924 595.587 543.632 618.297
6956.31 656.724 607.867 667.616 587.647
6959.13 567.952 642.219 551.693 628.227
6961.94 701.982 626.858 665.371 584.39
6964.75 610.639 670.125 536.105 628.606
6967.57 697.753 620.855 684.343 614.961
6970.38 554.174 648.482 624.434 660.215
6973.19 693.518 579.929 671.869 616.787
6976 492.094 578.348 554.059 568.679
6978.82 549.432 560.346 480.109 545.711
6981.63 639.511 608.338 602.965 554.337
6984.44 636.072 628.828 579.936 577.49
6987.25 610.902 628.982 549.568 564.943
6990.06 639.972 623.079 565.325 557.072
6992.88 618.364 653.322 556.323 592.511
6995.69 701.629 647.624 655.885 599.826
6998.5 622.879 639.054 587.27 626.882
7001.31 592.653 624.833 637.491 615.875
7004.12 658.966 627.199 622.863 617.192
7006.93 629.977 644.542 591.221 597.853
7009.74 644.683 603.451 579.476 558.761
7012.55 535.692 581.234 505.587 557.64
7015.36 563.325 573.343 587.856 553.238
7018.17 621.013 618.267 566.272 591.513
7020.98 670.462 638.306 620.413 595.536
7023.79 623.444 642.148 599.924 598.445
7026.6 632.536 629.276 574.997 587.995
7029.41 631.848 626.35 589.064 579.516
7032.22 614.668 612.3 574.487 571.903
7035.03 590.385 606.685 552.156 565.271
7037.84 615.002 609.391 569.168 562.43
7040.64 622.785 599.764 565.965 576.528
7043.45 561.503 595.045 594.452 560.072
7046.26 600.845 599.722 519.799 567.908
7049.07 636.818 594.772 589.472 550.95
7051.88 546.652 601.286 543.578 560.336
7054.68 620.389 586.461 547.956 543.173
7057.49 592.342 596.859 537.984 529.294
7060.3 577.846 600.249 501.942 530.797
7063.11 630.559 563.998 552.465 521.453
7065.91 483.591 575.361 509.953 539.826
7068.72 611.934 539.683 557.061 543.021
7071.53 523.523 581.146 562.05 561.094
7074.33 607.981 545.555 564.17 552.347
7077.14 505.162 558.103 530.82 524.995
7079.95 561.167 558.909 479.996 528.534
7082.75 610.398 595.456 574.785 526.109
7085.56 614.804 597.027 523.545 529.357
7088.36 565.877 581.883 489.74 499.193
7091.17 564.967 571.684 484.292 493.604
7093.97 584.207 576.036 506.779 506.447
7096.78 578.934 564.122 528.27 530.875
7099.58 529.224 547.72 557.575 519.872
7102.39 535.004 539.208 473.77 512.46
7105.19 553.396 544.214 506.035 494.654
7108 544.243 558.962 504.158 515.196
7110.8 579.246 557.709 535.395 500.632
7113.61 549.637 592.112 462.343 522.275
7116.41 647.452 610.318 569.087 530.367
7119.21 633.865 637.566 559.672 565.279
7122.02 631.38 602.313 567.077 550.058
7124.82 541.694 575.185 523.424 523.461
7127.62 552.482 561.987 479.881 518.111
7130.43 591.786 585.466 551.028 529.156
7133.23 612.13 600.336 556.559 533.695
7136.03 597.093 555.549 493.496 503.592
7138.83 457.425 549.081 460.721 486.456
7141.63 592.726 555.979 505.15 499.785
7144.44 617.785 601.112 533.485 515.679
7147.24 592.826 598.325 508.404 526.164
7150.04 584.365 571.384 536.605 500.727
7152.84 536.96 566.21 457.172 500.632
7155.64 577.304 550.319 508.119 492.533
7158.44 536.693 556.896 512.307 514.828
7161.25 556.691 519.024 524.058 503.826
7164.05 463.687 516.175 475.112 494.895
7166.85 528.146 504.408 485.515 476.551
7169.65 521.391 509.635 469.025 447.76
7172.45 479.367 507.821 388.74 428.624
7175.25 522.707 499.932 428.108 425.437
7178.05 497.723 511.278 459.465 445.053
7180.85 513.405 479.505 447.587 438.105
7183.65 427.386 456.975 407.263 423.631
7186.44 430.135 449.819 416.043 407.752
7189.24 491.938 477.107 399.948 422.404
7192.04 509.249 486.672 451.222 422.188
7194.84 458.83 468.516 415.393 423.822
7197.64 437.469 463.942 404.852 408.681
7200.44 495.525 466.066 405.798 400.35
7203.24 465.202 478.281 390.398 405.717
7206.03 474.115 481.096 420.956 408.077
7208.83 503.97 497.763 412.878 423.41
7211.63 515.203 514.895 436.397 435.314
7214.43 525.512 491.428 456.666 428.596
7217.22 433.568 491.303 392.726 424.482
7220.02 514.828 468.067 424.052 404.549
7222.82 455.806 495.73 396.868 413.317
7225.62 516.555 498.228 419.032 422.566
7228.41 522.323 521.457 451.798 440.347
7231.21 525.493 515.469 450.209 423.088
7234 498.59 500.442 367.256 385.252
7236.8 477.242 507.242 338.292 398.008
7239.6 545.894 503.083 488.475 416.699
7242.39 486.112 510.375 423.33 445.616
7245.19 499.118 481.338 425.042 388.942
7247.98 458.785 370.913 318.453 360.146
7250.78 154.836 351.17 336.943 362.68
7253.57 439.888 344.096 432.644 383.873
7256.37 437.563 431.225 382.031 386.943
7259.16 416.223 434.874 346.153 356.328
7261.95 450.836 434.36 340.799 354.745
7264.75 436.022 453.706 377.284 376.631
7267.54 474.26 463.341 411.811 397.436
7270.34 479.74 474.739 403.213 404.48
7273.13 470.216 316.261 398.417 353.027
7275.92 -1.17438 297.675 257.45 338.53
7278.72 423.983 271.714 359.724 342.937
7281.51 392.333 419.581 411.639 405.638
7284.3 442.426 362.202 445.551 423.881
7287.09 251.846 392.07 414.451 409.52
7289.89 481.938 359.346 368.557 387.025
7292.68 344.253 429.745 378.067 379.006
7295.47 463.045 419.737 390.395 393.725
7298.26 451.912 457.526 412.713 390.447
7301.05 457.621 451.058 368.233 372.903
7303.85 443.641 446.911 337.764 361.987
7306.64 439.472 384.423 379.964 361.998
7309.43 270.155 285.871 368.265 364.435
7312.22 147.987 289.747 345.075 343.149
7315.01 451.1 364.423 316.106 340.225
7317.8 494.182 448.039 359.493 344.608
7320.59 398.835 419.501 358.226 350.377
7323.38 365.486 347.718 333.412 382.405
7326.17 278.834 345.256 455.579 357.336
7328.96 391.449 352.627 283.019 389.293
7331.75 387.599 419.053 429.281 345.033
7334.54 478.11 457.177 322.799 390.528
7337.33 505.82 449.045 419.505 308.218
7340.12 363.204 308.831 182.351 328.766
7342.91 57.4669 302.656 384.442 356.65
7345.69 487.296 328.454 503.158 421.323
7348.48 440.598 454.095 376.368 412.823
7351.27 434.392 394.792 358.944 355.768
7354.06 309.386 396.843 331.994 342.404
7356.85 446.751 396.996 336.273 342.211
7359.63 434.85 444.059 358.364 336.776
7362.42 450.575 456.404 315.689 334.259
7365.21 483.788 461.721 328.722 349.178
7368 450.8 447.203 403.122 361.191
7370.78 407.021 359.856 351.728 383.492
7373.57 221.747 338.174 395.625 341.81
7376.36 385.752 320.858 278.076 325.658
7379.14 355.075 360.176 303.272 304.305
7381.93 339.701 376.292 331.567 322.149
7384.71 434.101 411.78 331.607 336.509
7387.5 461.538 399.333 346.354 342.042
7390.29 302.362 353.689 348.166 361.595
7393.07 297.166 348.163 390.265 359.235
7395.86 444.96 325.374 339.276 365.401
7398.64 233.995 364.159 366.663 357.67
7401.43 413.521 342.473 367.071 329.994
7404.21 379.904 404.383 256.249 315.675
7406.99 419.725 415.525 323.704 304.752
7409.78 446.946 429.678 334.304 319.058
7412.56 422.363 438.926 299.167 327.266
7415.35 447.467 439.118 348.327 333.195
7418.13 447.524 420.525 352.089 334.33
7420.91 366.585 413.159 302.574 335
7423.7 425.369 406.804 350.336 334.002
7426.48 428.459 412.22 349.095 343.925
7429.26 382.833 405.662 332.343 325.95
7432.04 405.694 400.317 296.413 331.332
7434.83 412.425 423.242 365.239 327.144
7437.61 451.605 377.953 319.78 328.276
7440.39 269.828 382.67 299.81 323.301
7443.17 426.577 379.992 350.314 337.077
7445.95 443.572 430.04 361.106 337.325
7448.73 419.972 442.696 300.555 341.205
7451.52 464.543 437.318 361.954 341.794
7454.3 427.439 431.895 362.872 350.814
7457.08 403.703 418.586 327.614 335.822
7459.86 424.616 405.167 316.979 304.924
7462.64 387.181 398.303 270.178 302.415
7465.42 383.112 413.643 320.089 312.977
7468.2 470.634 432.268 348.664 332.757
7470.98 443.058 440.387 329.518 336.792
7473.76 407.467 407.595 332.195 324.791
7476.54 372.258 383.416 312.66 311.465
7479.32 370.523 388.8 289.539 312.624
7482.1 423.618 402.183 335.674 311.169
7484.87 412.407 389.925 308.293 308.725
7487.65 333.752 342.89 282.208 296.592
7490.43 282.512 331.191 299.275 287.13
7493.21 377.308 330.503 279.907 297.431
7495.99 331.689 342.345 313.111 286.946
7498.76 318.038 365.642 267.819 317.709
7501.54 447.199 396.107 372.198 310.766
7504.32 423.084 434.547 292.281 315.06
7507.1 433.359 415.024 280.699 288.046
7509.87 388.629 387.625 291.158 286.183
7512.65 340.888 384.832 286.692 305.24
7515.43 424.979 381.971 337.871 292.139
7518.2 380.046 394.887 251.853 281.615
7520.98 379.635 318.304 255.12 261.536
7523.76 195.231 308.012 277.636 267.526
7526.53 349.17 317.639 269.823 279.355
7529.31 408.516 361.23 290.607 292.707
7532.08 326.002 365.775 317.691 296.326
7534.86 362.808 367.089 280.68 301.955
7537.63 412.456 388.474 307.494 288.589
7540.41 390.158 407.56 277.593 295.873
7543.18 420.066 371.02 302.532 285.559
7545.96 302.837 370.422 276.552 284.805
7548.73 388.362 368.661 275.331 280.259
7551.5 414.783 409.326 288.894 291.384
7554.28 424.834 410.605 309.927 301.984
7557.05 392.197 406.175 307.131 299.793
7559.82 401.493 383.525 282.32 300.047
7562.6 356.887 375.732 310.69 276.521
7565.37 368.817 389.03 236.555 267.207
7568.14 441.385 338.82 254.378 256.007
7570.92 206.258 290.26 277.088 265.652
7573.69 223.138 252.681 265.491 256.419
7576.46 328.648 298.367 226.678 266.57
7579.23 343.314 348.168 307.541 253.642
7582 372.542 381.629 226.708 267.91
7584.77 429.031 363.911 269.482 248.311
7587.55 290.162 333.104 248.744 234.821
7590.32 280.119 274.742 186.238 198.279
7593.09 253.947 243.898 159.856 161.956
7595.86 197.628 194.369 139.772 138.468
7598.63 131.532 161.244 115.776 125.556
7601.4 154.57 133.094 121.119 109.036
7604.17 113.181 129.234 90.2117 106.622
7606.94 119.951 134.021 108.536 105.346
7609.71 168.929 160.801 117.29 111.738
7612.48 193.521 215.276 109.388 139.71
7615.25 283.378 247.762 192.452 158.879
7618.02 266.387 271.238 174.797 175.994
7620.78 263.949 244.959 160.735 164.079
7623.55 204.54 234.001 156.706 141.673
7626.32 233.514 213.161 107.578 146.782
7629.09 201.428 222.544 176.06 152.516
7631.86 232.691 206.484 173.908 151.556
7634.63 185.334 228.757 104.7 158.807
7637.39 268.246 233.604 197.811 153.663
7640.16 247.231 253.272 158.479 166.434
7642.93 244.34 251.019 143.013 163.537
7645.69 261.487 244.264 189.119 163.46
7648.46 226.965 247.747 158.247 162.117
7651.23 254.787 257.827 138.984 155.195
7653.99 291.728 278.216 168.355 155.799
7656.76 288.133 300.912 160.058 168.458
7659.53 322.877 298.252 176.962 171.092
7662.29 283.745 309.447 176.255 178.49
7665.06 321.72 315.876 182.254 192.337
7667.82 342.162 345.009 218.501 217.982
7670.59 371.144 349.332 253.192 222.596
7673.35 334.691 346.935 196.093 227.881
7676.12 334.97 324.674 234.356 220.598
7678.88 304.36 336.971 231.345 241.88
7681.64 371.582 308.595 259.939 226.664
7684.41 249.844 310.122 188.708 219.272
7687.17 308.941 288.716 209.17 213.342
7689.94 307.364 292.931 242.148 199.407
7692.7 262.488 307.333 146.902 194.922
7695.46 352.146 305.13 195.716 181.324
7698.23 300.754 302.5 201.355 180.841
7700.99 254.599 284.532 145.452 187.932
7703.75 298.243 221.724 216.988 173.628
7706.51 112.329 154.599 158.443 178.41
7709.27 53.2252 200.387 159.799 172.992
7712.04 435.606 90.565 200.735 173.759
7714.8 -217.136 188.222 160.742 148.784
7717.56 346.197 167.586 84.8739 173.105
7720.32 373.695 257.225 273.7 182.359
7723.08 51.7817 240.308 188.504 223.241
7725.84 295.446 184.578 207.519 185.759
7728.6 206.508 283.494 161.254 198.849
7731.36 348.527 282.559 227.775 189.856
7734.12 292.643 296.306 180.54 187.292
7736.88 247.746 290.438 153.56 175.538
7739.64 330.923 306.802 192.514 181.738
7742.4 341.736 307.998 199.141 178.275
7745.16 251.335 337.443 143.171 184.556
7747.92 419.258 340.059 211.355 189.352
7750.68 349.584 376.033 213.531 207.334
7753.44 359.257 327 197.115 201.478
7756.2 272.16 250.568 193.789 189.426
7758.95 120.287 209.94 177.374 177.652
7761.71 237.374 216.639 161.793 160.597
7764.47 292.255 252.552 142.624 173.277
7767.23 228.027 260.003 215.413 178.665
7769.99 259.728 268.981 177.96 195.395
7772.74 319.188 294.762 192.811 190.977
7775.5 305.371 320.106 202.16 180.968
7778.26 335.761 294.674 147.932 184.827
7781.01 242.892 248.091 204.388 169.327
7783.77 165.622 248.765 155.66 194.849
7786.52 337.782 266.075 224.5 210.491
7789.28 294.821 221.939 251.314 199.803
7792.04 33.2134 203.208 123.595 176.829
7794.79 281.589 196.302 155.578 150.014
7797.55 274.104 276.269 170.868 173.935
7800.3 273.114 264.887 195.359 172.144
7803.06 247.443 284.168 150.205 179.165
7805.81 331.946 313.103 191.931 162.677
7808.56 359.919 311.47 145.896 174.717
7811.32 242.546 296.919 186.326 152.756
7814.07 288.294 306.943 126.046 167.085
7816.83 389.991 307.567 188.882 143.522
7819.58 244.415 236.574 115.639 177.018
7822.33 75.3159 170.699 226.534 149.376
7825.09 192.367 178.053 105.956 171.981
7827.84 266.475 250.939 183.453 148.335
7830.59 293.973 286.389 155.597 166.33
7833.34 298.718 249.607 159.94 140.411
7836.1 156.129 268.199 105.696 130.69
7838.85 349.751 279.633 126.435 139.863
7841.6 333.018 338.763 187.459 168.635
7844.35 333.52 243.56 192.01 183.306
7847.1 64.1422 229.2 170.449 190.176
7849.85 289.939 226.044 208.07 146.852
7852.6 324.049 324.442 62.0382 117.199
7855.35 359.336 333.079 81.4898 80.032
7858.1 315.852 302.886 96.568 122.422
7860.85 233.47 275.483 189.208 141.332
7863.6 277.128 270.473 138.221 136.015
7866.35 300.821 277.123 80.6174 108.149
7869.1 253.421 274.955 105.61 86.3117
7871.85 270.624 194.55 72.7079 91.2624
7874.6 59.6041 213.319 95.4697 129.317
7877.35 309.73 223.354 219.773 151.089
7880.1 300.727 226.947 138.024 164.26
7882.85 70.3822 185.216 134.984 127.826
7885.59 184.539 180.093 110.47 128.476
7888.34 285.358 179.912 139.974 137.628
7891.09 69.8408 165.779 162.441 141.221
7893.84 142.138 164.935 121.249 140.393
7896.58 282.826 233.393 137.488 133.531
7899.33 275.213 257.729 141.856 137.377
7902.08 215.149 259.436 132.786 140.864
7904.82 287.946 271.585 147.951 120.506
7907.57 311.661 171.091 80.7831 96.8748
7910.32 -86.3344 167.575 61.8905 61.6455
7913.06 277.397 -18.6674 42.263 98.0235
7915.81 -247.065 -39.463 189.917 96.3451
7918.55 -148.721 -49.5624 56.8554 109.653
7921.3 247.099 94.8381 82.1855 69.6194
7924.04 186.136 230.305 69.8172 102.117
7926.79 257.679 223.7 154.347 104.776
7929.53 227.284 245.105 90.1644 132.498
7932.28 250.352 207.214 152.981 113.573
7935.02 144.007 194.275 97.5728 125.829
7937.77 188.467 203.928 126.933 123.078
7940.51 279.31 258.747 144.729 135.859
7943.25 308.465 293.657 135.914 123.705
7946 293.196 257.242 90.472 125.903
7948.74 170.064 246.698 151.323 130.687
7951.48 276.835 228.017 150.266 136.432
7954.22 237.152 240.467 107.707 126.898
7956.97 207.413 236.316 122.721 88.8688
7959.71 264.384 254.734 36.1778 89.9271
7962.45 292.404 181.125 110.882 99.4736
7965.19 -13.4138 172.282 151.361 126.411
7967.93 237.856 151.551 116.991 148.038
7970.67 230.21 216.626 175.763 113.449
7973.41 181.813 171.613 47.5923 120.854
7976.16 102.816 113.312 139.208 94.4802
7978.9 55.3072 145.311 96.6403 114.252
7981.64 277.81 145.514 106.909 100.926
7984.38 103.425 224.061 99.2278 131.552
7987.12 290.947 218.293 188.519 134.905
7989.85 260.507 262.611 116.968 118.169
7992.59 236.379 129.116 49.0199 79.0412
7995.33 -109.54 129.465 71.1357 88.3747
7998.07 261.557 136.188 144.969 108.77
8000.81 256.548 247.064 110.205 119.451
8003.55 223.089 224.868 103.179 96.4071
8006.29 194.968 225.106 75.8376 80.807
8009.02 257.261 241.703 63.4043 72.8827
8011.76 272.88 266.344 79.4061 84.4869
8014.5 268.89 252.732 110.65 98.0999
8017.24 216.426 189.597 104.243 90.5763
8019.97 83.4736 94.3231 56.8354 63.6909
8022.71 -16.9302 98.4611 29.9941 59.6242
8025.45 228.84 157.494 92.0433 72.8523
8028.18 260.573 162.878 96.5196 80.2988
8030.92 -0.778118 132.55 52.3336 105.517
8033.66 137.855 134.95 167.697 110.756
8036.39 267.774 215.21 112.236 122.486
8039.13 240 240.133 87.5262 101.47
8041.86 212.625 230.316 104.647 96.0243
8044.6 238.322 230.242 95.8994 102.473
8047.33 239.779 203.991 106.872 100.255
8050.07 133.871 210.483 97.9928 87.6072
8052.8 257.798 208.695 57.9567 68.1735
8055.53 234.417 234.666 48.5711 56.6793
8058.27 211.783 214.524 63.5101 50.241
8061 197.372 209.915 38.6419 49.7817
8063.73 220.591 220.874 47.1932 57.0729
8066.47 244.659 232.449 85.3837 73.328
8069.2 232.097 250.461 87.4072 95.1425
8071.93 274.625 238.369 112.637 91.3262
8074.66 208.385 237.492 73.9346 88.1737
8077.4 229.466 207.685 77.9499 79.7905
8080.13 185.205 222.668 87.4869 96.5308
8082.86 253.332 222.56 124.156 106.838
8085.59 229.142 243.748 108.872 114.59
8088.32 248.769 216.922 110.744 108.471
8091.05 172.855 209.43 105.799 101.764
8093.78 206.667 188.13 88.7506 64.8277
8096.51 184.868 204.408 -0.0661794 45.3752
8099.24 221.689 158.141 47.4412 39.8146
8101.97 67.8646 146.951 72.0689 63.2563
8104.7 151.298 137.864 70.2588 60.3815
8107.43 194.43 181.086 38.8169 62.6874
8110.16 197.531 189.658 78.9863 75.0996
8112.89 177.012 190.047 107.496 94.993
8115.62 195.597 191.469 98.4971 96.3669
8118.35 201.8 193.058 83.1081 91.1353
8121.08 181.778 187.371 91.8006 88.2791
8123.81 178.536 193.189 89.9285 90.3408
8126.53 219.254 183.152 89.2934 81.476
8129.26 151.667 183.725 65.206 84.5782
8131.99 180.255 188.111 99.2353 96.9934
8134.72 232.41 203.521 126.539 88.5538
8137.44 197.899 213.79 39.8872 81.5634
8140.17 211.062 212.016 78.2639 71.4679
8142.9 227.088 202.003 96.2525 83.2029
8145.62 167.857 194.005 75.0923 71.6973
8148.35 187.07 177.523 43.7472 65.4035
8151.07 177.642 191.856 77.3711 62.4517
8153.8 210.854 198.129 66.2369 82.7918
8156.52 205.891 206.343 104.767 78.2484
8159.25 202.282 189.626 63.7408 74.2502
8161.97 160.704 186.51 54.2422 63.4211
8164.7 196.545 180.268 72.2802 70.9644
8167.42 183.554 185.617 86.371 78.3962
8170.15 176.754 179.496 76.5375 83.045
8172.87 178.182 173.459 86.2266 78.4483
8175.59 165.44 174.762 72.5807 80.172
8178.32 180.664 178.94 81.7087 83.8624
8181.04 190.716 179.402 97.2977 90.8787
8183.76 166.825 170.743 93.6296 93.4482
8186.49 154.689 154.798 89.4174 84.8836
8189.21 142.879 156.459 71.6038 79.5038
8191.93 171.809 163.186 77.4902 72.4616
8194.65 174.87 174.328 68.2908 66.8664
8197.37 176.306 175.489 54.8182 60.2905
8200.09 175.292 164.476 57.7625 66.9097
8202.82 141.831 173.034 88.1485 75.2302
8205.54 201.98 172.199 79.7795 86.5699
8208.26 172.786 184.813 91.7818 83.4829
8210.98 179.675 173.563 78.8874 83.7166
8213.7 168.228 174.981 80.4805 75.5756
8216.42 177.04 180.408 67.3588 77.3437
8219.14 195.957 183.313 84.1917 85.6394
8221.86 176.942 183.65 105.368 91.3936
8224.58 178.052 163.683 84.6214 92.8288
8227.29 136.054 148.442 88.4971 77.6177
8230.01 131.22 147.18 59.7345 62.4932
8232.73 174.265 145.284 39.2478 63.6858
8235.45 130.366 166.982 92.075 80.5408
8238.17 196.314 168.44 110.3 97.1864
8240.89 178.641 181.507 89.1846 84.2158
8243.6 169.566 184.07 53.1632 77.3122
8246.32 204.003 194.386 89.5889 81.2913
8249.04 209.591 196.409 101.122 84.9452
8251.75 175.634 174.506 64.125 74.7612
8254.47 138.293 181.914 59.0368 74.5479
8257.19 231.815 178.489 100.482 75.111
8259.9 165.36 185.237 65.8143 75.2785
8262.62 158.536 172.084 59.5394 62.9335
8265.33 192.358 172.94 63.4469 50.6171
8268.05 167.927 168.869 28.8649 46.2556
8270.76 146.322 164.162 46.4549 42.2375
8273.48 178.237 157.868 51.3929 43.96
8276.19 149.045 157.92 34.0322 48.778
8278.91 146.48 156.666 60.909 20.8828
8281.62 174.474 162.079 -32.2928 -6.34537
8284.34 165.284 159.152 -47.6523 -39.9667
8287.05 137.697 155.488 -39.9549 -46.9331
8289.76 163.482 134.932 -53.1921 -33.9775
8292.48 103.616 142.516 -8.78547 0.734341
8295.19 160.449 120.256 64.1806 10.6724
8297.9 96.7032 163.155 -23.3779 23.077
8300.61 232.311 170.331 28.4283 6.06431
8303.33 181.979 169.447 13.1425 28.0617
8306.04 94.0505 147.901 42.6143 44.5143
8308.75 167.674 127.239 77.7862 29.2638
8311.46 119.992 149.143 -32.609 26.4923
8314.17 159.763 143.73 34.2997 27.3202
8316.88 151.435 159.208 80.2701 43.199
8319.59 166.425 161.872 15.0272 51.0231
8322.3 167.756 165.5 57.7721 56.3283
8325.01 162.319 168.365 96.1857 76.9138
8327.72 175.019 177.299 76.7836 79.1135
8330.43 194.558 179.852 64.3712 64.6515
8333.14 169.977 160.541 52.7996 43.7729
8335.85 117.088 160.651 14.1479 23.493
8338.56 194.888 179.874 3.5314 6.86755
8341.27 227.645 221.85 2.92335 -14.7793
8343.98 243.016 190.331 -50.7926 -35.2461
8346.68 100.331 113.373 -57.8691 -53.0679
8349.39 -3.22597 60.4382 -50.5419 -49.0995
8352.1 84.2098 89.8574 -38.8875 -36.1203
8354.81 188.588 138.973 -18.9316 -22.7419
8357.51 144.121 153.659 -10.4067 -5.44442
8360.22 128.268 141.566 13.0051 1.46159
8362.93 152.309 161.477 1.78639 9.79754
8365.63 203.854 182.683 14.6012 14.6024
8368.34 191.885 190.3 27.4197 21.742
8371.05 175.161 181.468 23.2051 36.3133
8373.75 177.358 170.187 58.3151 25.3377
8376.46 158.042 170.655 -5.5071 12.6559
8379.16 176.566 179.843 -14.8403 -5.45878
8381.87 204.92 203.022 3.97105 6.48361
8384.57 227.58 188.144 30.3201 4.11257
8387.28 131.932 180.588 -21.9534 5.27396
8389.98 182.251 159.954 7.45524 2.46241
8392.68 165.68 187.633 21.8854 -21.9949
8395.39 214.969 167.388 -95.3253 -19.3035
8398.09 121.516 167.949 15.5294 -81.9059
8400.79 167.362 117.089 -165.922 -64.7511
8403.5 62.3897 96.9656 -43.8609 -68.3557
8406.2 61.1449 104.058 4.71585 -3.85087
8408.9 188.638 140.591 27.5924 16.7652
8411.6 171.989 175.69 17.9872 4.86964
8414.3 166.442 173.577 -30.9708 -7.40319
8417.01 182.301 160.749 -9.22603 -17.541
8419.71 133.503 131.968 -12.4261 -13.6615
8422.41 80.0986 120.812 -19.3324 -34.3546
8425.11 148.833 120.036 -71.3052 -53.6201
8427.81 131.175 114.392 -70.2228 -62.2851
8430.51 63.1677 86.9633 -45.3272 -84.5168
8433.21 66.5469 83.3372 -138 -48.3005
8435.91 120.297 96.2303 38.426 -15.5252
8438.61 101.847 130.725 52.9987 47.2846
8441.31 170.03 144.389 50.4292 48.0648
8444.01 161.289 158.798 40.7665 32.6874
8446.71 145.075 160.741 6.86657 13.7943
8449.4 175.86 140.464 -6.25021 5.43159
8452.1 100.455 123.192 15.6784 11.4971
8454.8 93.2618 118.215 25.063 18.8755
8457.5 160.927 146.114 15.8852 26.961
8460.19 184.153 162.591 39.9349 -9.92745
8462.89 142.693 151.117 -85.6025 -62.2355
8465.59 126.506 165.634 -141.039 -108.016
8468.29 227.704 167.505 -97.4068 -77.2699
8470.98 148.306 169.632 6.63593 -43.442
8473.68 132.885 147.432 -39.555 -11.4788
8476.37 161.103 152.491 -1.51728 -8.31343
8479.07 163.485 159.686 16.132 20.9328
8481.76 154.47 154.999 48.1838 28.7957
8484.46 147.043 155.983 22.0713 29.1213
8487.15 166.434 145.908 17.1087 8.43282
8489.85 124.246 145.888 -13.8815 -5.94185
8492.54 146.982 128.651 -21.0527 -18.2087
8495.24 114.724 159.679 -19.6919 -29.237
8497.93 217.329 165.443 -46.9665 -32.6408
8500.62 164.276 178.375 -31.2639 -51.2385
8503.32 153.52 160.026 -75.485 -57.2427
8506.01 162.283 163.073 -64.9793 -58.3877
8508.7 173.417 152.435 -34.6989 -43.005
8511.4 121.605 139.554 -29.3367 -12.3
8514.09 123.639 129.987 27.1355 14.3398
8516.78 144.716 136.08 45.2205 48.5376
8519.47 139.886 150.582 73.2569 50.1557
8522.16 167.143 169.419 31.9898 49.5846
8524.85 201.228 169.394 43.5073 41.3998
8527.55 139.81 172.437 48.7022 48.8062
8530.24 176.274 161.854 54.2092 48.6932
8532.93 169.478 157.027 43.1683 28.3337
8535.62 125.33 149.555 -12.3764 12.3423
8538.31 153.858 152.996 6.23505 -2.03512
8541 179.801 163.936 0.0359908 -6.25418
8543.69 158.148 160.612 -25.0336 -7.791
8546.37 143.886 147.859 1.62461 -4.69041
8549.06 141.543 142.645 9.33774 3.06354
8551.75 142.507 137.202 -1.77175 -1.34289
8554.44 127.556 147.388 -11.5947 -3.92009
8557.13 172.102 167.545 1.60613 14.1123
8559.82 202.979 179.227 52.3254 40.2444
8562.5 162.6 177.445 66.8018 53.5413
8565.19 166.755 170.881 41.4967 53.9877
8567.88 183.288 161.731 53.6648 40.4689
8570.56 135.15 161.585 26.2452 27.5733
8573.25 166.319 144.305 2.80981 15.0783
8575.94 131.447 145.961 16.1799 14.965
8578.62 140.117 132.912 25.9052 17.7329
8581.31 127.171 147.624 11.1136 31.0958
8583.99 175.583 150.907 56.2687 46.8933
8586.68 149.967 157.004 73.2978 44.9963
8589.36 145.462 137.415 5.42244 35.2554
8592.05 116.817 114.65 27.046 1.33199
8594.73 81.6709 99.5166 -28.4724 -4.66878
8597.42 100.062 116.156 -12.5799 -15.4443
8600.1 166.736 140.045 -5.28065 -7.62828
8602.78 153.337 162.821 -5.0243 7.0113
8605.47 168.389 152.572 31.3388 13.9604
8608.15 135.989 148.586 15.5667 32.0014
8610.83 141.381 148.686 49.0988 18.4917
8613.52 168.687 172.914 -9.19034 6.87536
8616.2 208.674 176.051 -19.2823 -35.0825
8618.88 150.792 171.242 -76.7747 -64.9128
8621.56 154.261 154.837 -98.6812 -68.0549
8624.24 159.457 159.489 -28.7089 -66.0867
8626.92 164.749 144.282 -70.8699 -21.7356
8629.6 108.641 136.319 34.3719 -15.4088
8632.29 135.566 132.901 -9.72846 -23.5006
8634.97 154.498 154.952 -95.1451 -43.098
8637.65 174.792 150.807 -24.4203 -60.9324
8640.33 123.13 162.434 -63.2318 -27.2599
8643 189.38 170.487 5.87253 -36.2296
8645.68 198.95 162.05 -51.3294 -18.9584
8648.36 97.8198 143.477 -11.4185 -40.5888
8651.04 133.661 128.445 -59.0187 -36.2627
8653.72 153.854 142.878 -38.3509 -63.5879
8656.4 141.117 131.178 -93.3941 -53.5707
8659.08 98.5632 133.787 -28.967 -54.5659
8661.75 161.68 124.719 -41.3364 -50.6066
8664.43 113.914 140.202 -81.5163 -48.0243
8667.11 145.013 117.232 -21.22 -67.8524
8669.79 92.7701 140.822 -100.821 -41.1427
8672.46 184.682 119.263 -1.38741 -37.0955
8675.14 80.3355 137.499 -9.07833 10.1731
8677.81 147.48 128.239 40.9852 12.1463
8680.49 156.902 156.698 4.53209 19.6161
8683.17 165.712 157.448 13.331 15.9744
8685.84 149.731 152.723 30.06 9.66327
8688.52 142.726 151.84 -14.4013 19.343
8691.19 163.063 155.807 42.3701 8.97247
8693.86 161.631 146.556 -1.0514 17.2922
8696.54 114.974 141.052 10.558 9.95351
8699.21 146.55 135.428 20.3539 15.76
8701.89 144.759 143.176 16.3682 12.3506
8704.56 138.218 148.882 0.329686 8.92803
8707.23 163.667 148.51 10.0862 6.37029
8709.9 143.645 156.886 8.69497 17.1669
8712.58 163.346 146.44 32.7194 22.1894
8715.25 132.328 153.723 25.1539 33.8243
8717.92 165.496 143.86 43.5995 35.6046
8720.59 133.756 152.358 38.0606 35.66
8723.26 157.823 155.794 25.32 36.6812
8725.94 175.802 161.239 46.663 38.1222
8728.61 150.091 159.7 42.3836 36.1769
8731.28 153.205 150.141 19.4841 37.5233
8733.95 147.125 153.545 50.7022 33.1823
8736.62 160.303 157.327 29.3605 41.2976
8739.29 164.552 164.257 43.83 36.8393
8741.96 167.917 152.518 37.3275 42.7291
8744.63 125.086 153.614 47.0299 37.0532
8747.29 167.839 141.163 26.8022 42.4163
8749.96 130.563 139.565 53.4167 13.8117
8752.63 120.294 131.194 -38.7838 1.03756
8755.3 142.724 132.62 -11.5203 -57.8523
8757.97 134.842 151.428 -123.253 -31.8273
8760.63 176.719 127.74 39.2912 -49.3135
8763.3 71.6596 137.425 -63.979 -17.9427
8765.97 163.896 143.106 -29.1403 -29.697
8768.64 193.763 154.637 4.0283 29.2588
8771.3 106.254 163.831 112.889 35.9436
8773.97 191.477 146.269 -9.08597 44.8664
8776.63 141.075 151.989 30.7966 -33.5826
8779.3 123.414 143.951 -122.458 -42.5339
8781.97 167.365 150.663 -35.9398 -72.5282
8784.63 161.21 157.584 -59.1863 -26.2903
8787.29 144.178 160.416 16.2553 -24.0668
8789.96 175.86 146.029 -29.2692 -18.4821
8792.62 118.047 163.582 -42.4323 -28.2351
8795.29 196.839 140.186 -13.0039 -29.9088
8797.95 105.67 150.727 -34.2902 -11.1424
8800.61 149.673 139.345 13.8669 -1.34914
8803.28 162.691 145.397 16.3759 27.2381
8805.94 123.826 134.348 51.4716 39.2426
8808.6 116.526 138.661 49.8804 49.1775
8811.27 175.632 144.309 46.1805 44.3515
8813.93 140.768 160.343 36.9937 36.213
8816.59 164.628 157.36 25.4648 3.21095
8819.25 166.683 172.721 -52.8257 5.79524
8821.91 186.853 169.573 44.7465 -12.5671
8824.57 155.182 230.896 -29.6222 -36.8276
8827.23 350.654 247.052 -125.607 -47.6424
8829.89 235.32 246.568 12.302 -71.532
8832.55 153.729 145.357 -101.291 23.3416
8835.21 47.0225 116.916 159.014 17.5317
8837.87 149.997 109.661 -5.1278 72.1044
8840.53 131.963 92.3349 62.4269 57.8978
8843.19 -4.95517 70.2534 116.394 82.1416
8845.85 83.7522 66.2136 67.6036 81.176
8848.51 119.844 110.466 59.53 38.0926
8851.17 127.802 135.205 -12.8556 16.4041
8853.82 157.969 130.413 2.53789 -12.4564
8856.48 105.467 135.863 -27.0516 -13.0227
8859.14 144.153 118.679 -14.5543 -11.4531
8861.79 106.418 121.764 7.24671 3.57546
8864.45 114.722 105.772 18.034 -5.4237
8867.11 96.1763 107.508 -41.5518 -28.5843
8869.76 111.626 125.732 -62.2351 -42.3876
8872.42 169.394 138.811 -23.3759 -1.26627
8875.08 135.412 147.382 81.8122 17.7348
8877.73 137.34 133.638 -5.23185 16.1821
8880.39 128.163 123.158 -28.0339 -47.6019
8883.04 103.972 129.614 -109.54 -95.3598
8885.69 156.708 100.886 -148.506 -101.848
8888.35 41.9782 55.4714 -47.4976 -31.7758
8891 -32.2721 25.9905 100.676 87.8772
8893.66 68.2656 31.6903 210.453 139.964
8896.31 59.0775 76.7642 108.763 105.706
8898.96 102.95 79.9243 -2.09974 42.0451
8901.61 77.7459 149.83 19.4723 -20.4246
8904.27 268.795 148.813 -78.6463 -26.9491
8906.92 99.8992 147.067 -21.6732 -47.9377
8909.57 72.507 83.821 -43.4936 -27.0697
8912.22 79.0569 71.7145 -16.0421 -45.6736
8914.87 63.5798 75.0045 -77.4852 -81.2622
8917.52 82.3768 98.6138 -150.259 -112.593
8920.18 149.885 102.022 -110.035 -110.349
8922.83 73.8035 101.364 -70.7519 -89.0885
8925.48 80.4048 59.8551 -86.4789 -89.055
8928.13 25.3571 58.1455 -109.934 -87.5521
8930.78 68.6745 69.4355 -66.2432 -65.3313
8933.42 114.275 103.048 -19.8165 -68.3356
8936.07 126.196 119.768 -118.947 -77.3387
8938.72 118.834 117.534 -93.2525 -97.9905
8941.37 107.572 126.966 -81.7719 -73.2248
8944.02 154.491 142.315 -44.6502 -60.9124
8946.67 164.883 146.918 -56.3151 -35.4013
8949.31 121.38 116.06 -5.23864 -41.2131
8951.96 61.9175 104.646 -62.0854 -72.8891
8954.61 130.642 106.075 -151.343 -130.142
8957.25 125.665 162.687 -176.997 -141.574
8959.9 231.754 148.912 -96.3829 -117.743
8962.55 89.3173 96.3267 -79.8476 -152.577
8965.19 -32.0912 34.0909 -281.501 -216.086
8967.84 45.0466 21.9034 -286.909 -255.169
8970.48 52.7548 63.4107 -197.098 -204.317
8973.13 92.4308 95.2984 -128.946 -106.72
8975.77 140.71 103.629 5.88414 -37.6247
8978.42 77.7471 114.788 10.1877 5.18631
8981.06 125.907 104.699 -0.512956 -8.02619
8983.71 110.442 114.27 -33.7534 -27.582
8986.35 106.46 107.766 -48.4796 -50.0241
8988.99 106.397 78.3144 -67.8393 -36.5052
8991.63 22.0864 64.3324 6.80328 -29.6398
8994.28 64.5142 37.6347 -27.8835 -50.8481
8996.92 26.3035 57.1716 -131.464 -55.8181
8999.56 80.6971 56.7622 -8.10669 -70.359
9002.2 63.2858 64.8756 -71.5062 -37.6785
9004.84 50.6439 48.648 -33.4227 -130.439
9007.49 32.0143 35.0048 -286.389 -195.675
9010.13 22.3562 41.541 -267.213 -230.377
9012.77 70.2525 54.6292 -137.528 -178.633
9015.41 71.279 81.6954 -131.157 -98.8038
9018.05 103.555 98.5821 -27.7264 -52.9813
9020.69 120.912 108.868 -0.0608178 -20.7748
9023.33 102.136 102.813 -34.5373 -8.26938
9025.97 85.3895 91.6136 9.79 -7.50709
9028.6 87.315 88.3471 2.22606 -11.4289
9031.24 92.3368 101.184 -46.3027 -16.1554
9033.88 123.901 111.446 -4.38957 -28.9256
9036.52 118.101 137.791 -36.0846 -17.1307
9039.16 171.373 139.339 -10.918 -20.2985
9041.79 128.544 133.426 -13.8928 -17.2758
9044.43 100.36 95.1567 -27.0167 -39.566
9047.07 56.5661 100.221 -77.7885 -32.1309
9049.7 143.738 105.451 8.41234 -0.824467
9052.34 116.048 127.548 66.9027 -6.3852
9054.98 122.857 102.6 -94.4707 -46.0686
9057.61 68.8948 90.5074 -110.638 -125.78
9060.25 79.7707 88.9413 -172.23 -135.929
9062.88 118.158 92.0265 -124.918 -101.175
9065.52 78.1505 102.168 -6.37782 -63.58
9068.15 110.196 100.338 -59.4437 -21.2593
9070.79 112.668 99.4756 2.04364 -23.6203
9073.42 75.5633 94.8316 -13.4607 -21.0654
9076.05 96.2638 85.0351 -51.7792 -26.4238
9078.69 83.2783 76.5589 -14.0316 -34.668
9081.32 50.1345 44.4709 -38.193 -17.4082
