wavelength spectrum_sum 3smoothed_sum spectrum_optimal 3smoothed_optimal spectrum_snr
3507.1 19.7217 13.3067 36.9578 20.4449 nan
3510.01 20.1983 25.077 24.3769 34.488 nan
3512.93 35.3111 27.2856 42.1293 34.2411 nan
3515.85 26.3473 30.8952 36.2172 35.9412 nan
3518.76 31.0271 29.6027 29.4769 33.328 nan
3521.68 31.4337 29.4135 34.2897 27.3826 nan
3524.6 25.7796 28.2973 18.3811 26.3457 nan
3527.51 27.6786 27.6596 26.3662 24.5007 28.453
3530.43 29.5206 30.0055 28.7548 25.6645 20.3156
3533.35 32.8173 34.9482 21.8726 29.3265 12.0987
3536.26 42.5068 36.928 37.3522 22.6492 7.89163
3539.18 35.4598 34.1276 8.72278 28.1901 6.16233
3542.1 24.4161 24.6 38.4954 27.7764 3.91213
3545.02 13.9241 19.5123 36.1111 33.5788 2.59429
3547.93 20.1967 28.824 26.1298 33.4951 3.45842
3550.85 52.351 45.8722 38.2444 40.9189 7.16662
3553.77 65.0688 50.3202 58.3825 46.6722 8.35857
3556.68 33.5409 47.9292 43.3896 46.81 5.63371
3559.6 45.1779 40.2783 38.6579 42.3196 8.45063
3562.52 42.1162 40.1161 44.9115 40.5005 7.50551
3565.43 33.0541 40.3692 37.9321 39.8659 11.1212
3568.35 45.9373 43.3251 36.754 44.9659 10.9963
3571.27 50.984 42.8418 60.2116 40.4074 9.09176
3574.18 31.6042 38.8204 24.2566 40.5089 nan
3577.1 33.873 36.6522 37.0584 34.609 8.50181
3580.02 44.4794 40.7433 42.5119 38.7384 11.4285
3582.93 43.8775 46.1149 36.645 42.5726 32.0918
3585.85 49.9878 45.6893 48.5609 43.8674 12.4069
3588.77 43.2024 45.4633 46.3962 48.8563 14.3028
3591.68 43.1996 40.6563 51.612 48.5476 14.7308
3594.6 35.5667 41.0565 47.6348 49.0957 9.2911
3597.52 44.4032 52.2868 48.0402 53.8895 11.053
3600.44 76.8906 63.0737 65.9935 59.3882 11.7313
3603.35 67.9274 59.2961 64.1308 60.1155 12.2035
3606.27 33.0703 53.948 50.2222 57.9291 8.09983
3609.19 60.8462 43.2174 59.4344 49.635 10.2511
3612.1 35.7358 55.4974 39.2485 50.7303 7.60094
3615.02 69.9101 54.4732 53.5081 53.114 10.6394
3617.94 57.7736 59.6662 66.5854 56.1916 7.8237
3620.85 51.3147 53.3283 48.4814 59.4267 8.34957
3623.77 50.8967 54.7309 63.2134 49.5395 7.31049
3626.69 61.9814 48.9668 36.9236 45.4976 8.02133
3629.6 34.0222 49.6204 36.3558 44.9655 4.99168
3632.52 52.8576 44.241 61.6171 48.0221 6.51361
3635.44 45.8433 51.738 46.0935 52.9997 6.41301
3638.35 56.5132 60.8128 51.2886 53.6184 7.50051
3641.27 80.0817 62.1446 63.4731 45.4118 9.251
3644.18 49.8389 63.8984 21.4738 46.5353 7.62967
3647.1 61.7746 55.5191 54.6589 42.1328 7.79054
3650.02 54.9439 57.5637 50.2657 49.0198 7.14703
3652.93 55.9727 56.6633 42.1347 46.1507 7.27092
3655.85 59.0733 56.129 46.0516 40.5728 7.77037
3658.77 53.3411 61.9509 33.5322 53.3053 6.84194
3661.68 73.4382 67.3489 80.3321 61.2219 8.50753
3664.6 75.2675 78.1007 69.8014 70.9678 8.83356
3667.52 85.5964 70.0521 62.7699 65.5605 9.51756
3670.43 49.2924 59.3901 64.1104 55.2861 6.93925
3673.35 43.2815 49.8631 38.9781 49.4998 6.48684
3676.27 57.0155 48.0167 45.4108 42.9546 8.30896
3679.18 43.7531 57.1823 44.475 47.5524 6.95734
3682.1 70.7784 65.0734 52.7716 54.953 9.57357
3685.02 80.6887 76.4036 67.6124 64.0778 9.65698
3687.93 77.7438 73.9353 71.8494 64.3575 9.45506
3690.85 63.3735 74.647 53.6106 58.8955 7.306
3693.76 82.8236 73.1807 51.2266 59.9058 9.21001
3696.68 73.345 71.4743 74.8801 54.0665 7.70574
3699.6 58.2542 72.7488 36.0927 65.7557 6.51374
3702.51 86.6473 82.5035 86.2944 66.7586 8.15176
3705.43 102.609 87.8383 77.8887 75.7751 9.86759
3708.35 74.2588 79.8875 63.142 61.7164 8.22301
3711.26 62.7946 77.8481 44.1185 63.0834 6.91628
3714.18 96.491 76.891 81.9895 55.2258 9.48385
3717.1 71.3874 81.9874 39.5694 65.0883 7.80391
3720.01 78.0839 79.9529 73.706 59.3797 8.31278
3722.93 90.3872 79.0719 64.8638 68.9988 8.71965
3725.84 68.7446 80.6324 68.4267 63.5136 6.80827
3728.76 82.7655 77.1243 57.2504 66.8466 7.65856
3731.68 79.8628 76.5048 74.8627 61.7189 7.4278
3734.59 66.8859 81.0344 53.0435 65.1513 6.53406
3737.51 96.3543 78.2282 67.5477 55.6857 8.79229
3740.42 71.4445 87.6376 46.466 67.6611 6.75036
3743.34 95.114 76.7615 88.9695 63.6125 8.31827
3746.26 63.7262 91.3832 55.4019 81.9762 6.54963
3749.17 115.31 94.4144 101.557 85.179 9.84537
3752.09 104.207 103.63 98.5778 87.8725 9.28293
3755 91.3731 100.543 63.4823 89.5094 9.09845
3757.92 106.047 105.341 106.468 99.6848 9.3902
3760.84 118.603 121.421 129.104 108.346 10.0265
3763.75 139.613 110.075 89.465 97.4618 11.8778
3766.67 72.0106 100.195 73.8161 83.8478 6.58294
3769.58 88.9627 92.1044 88.2622 93.1471 8.27963
3772.5 115.34 109.771 117.363 106.258 9.7002
3775.42 125.012 113.808 113.149 114.598 9.76999
3778.33 101.071 117.098 113.28 117.761 8.09194
3781.25 125.21 121.95 126.854 132.071 10.027
3784.16 139.569 134.524 156.077 138.878 10.438
3787.08 138.794 134.288 133.702 134.359 10.6597
3790 124.502 126.678 113.297 124.131 9.85785
3792.91 116.737 112.857 125.394 116.686 9.74632
3795.83 97.332 103.312 111.366 110.172 8.15199
3798.74 95.8678 98.1278 93.7567 94.512 8.45098
3801.66 101.184 101.901 78.4133 94.3475 8.63539
3804.57 108.653 111.526 110.873 96.6204 8.88991
3807.49 124.742 109.973 100.576 99.7299 9.70787
3810.41 96.5232 113.819 87.7417 92.0671 8.13231
3813.32 120.192 114.887 87.8842 100.899 9.37781
3816.24 127.944 123.792 127.07 115.773 9.43242
3819.15 123.24 130.982 132.366 131.71 9.26538
3822.07 141.763 133.444 135.696 129.273 10.491
3824.98 135.33 135.249 119.758 120.364 10.2853
3827.9 128.654 134.252 105.64 123.237 9.60205
3830.82 138.772 141.422 144.313 124.54 9.91927
3833.73 156.84 150.996 123.668 134.015 11.3929
3836.65 157.377 169.606 134.065 145.533 10.9594
3839.56 194.6 173.968 178.866 157.597 12.4125
3842.48 169.927 172.88 159.859 167.372 11.6088
3845.39 154.114 152.428 163.392 147.89 10.8914
3848.31 133.243 157.022 120.419 143.801 9.79814
3851.22 183.709 155.584 147.594 129.946 12.4074
3854.14 149.799 164.434 121.825 138.741 10.9116
3857.05 159.794 152.724 146.804 133.218 11.1432
3859.97 148.58 158.504 131.024 140.344 10.6871
3862.89 167.138 152.601 143.204 137.603 11.7178
3865.8 142.084 155.201 138.58 145.485 10.4332
3868.72 156.382 145.686 154.671 142.471 11.0439
3871.63 138.592 150.937 134.163 145.406 10.1752
3874.55 157.837 150.95 147.385 134.597 11.3123
3877.46 156.42 147.282 122.242 133.26 11.5142
3880.38 127.588 150.072 130.153 130.457 10.0923
3883.29 166.209 161.905 138.976 146.571 12.1607
3886.21 191.919 159.795 170.584 141.176 13.1978
3889.12 121.257 143.84 113.968 135.952 9.4166
3892.04 118.345 136.403 123.305 116.723 9.09377
3894.95 169.606 145.169 112.896 125.732 11.7646
3897.87 147.558 150.313 140.995 120.479 10.1105
3900.78 133.775 147.925 107.546 130.965 9.21328
3903.7 162.442 157.179 144.354 133.71 10.0846
3906.61 175.321 185.421 149.229 168.335 10.8782
3909.53 218.5 188.824 211.422 177.066 12.2972
3912.44 172.652 211.362 170.546 207.11 10.5435
3915.36 242.934 210.235 239.363 210.077 13.3412
3918.27 215.12 225.647 220.321 219.697 12.3522
3921.19 218.886 213.944 199.405 206.925 13.1375
3924.1 207.827 200.255 201.049 184.477 13.1034
3927.02 174.051 188.503 152.976 177.479 11.5907
3929.93 183.632 183.498 178.413 165.98 12.2469
3932.85 192.812 183.949 166.552 163.97 12.9479
3935.76 175.404 183.634 146.946 161.667 11.375
3938.68 182.686 167.713 171.502 152.714 11.7333
3941.59 145.048 171.974 139.694 153.552 9.91195
3944.51 188.189 173.341 149.46 157.443 11.7552
3947.42 186.786 192.699 183.174 179.772 11.4546
3950.33 203.123 207.392 206.683 204.82 12.101
3953.25 232.266 201.235 224.604 198.748 13.3817
3956.16 168.316 194.818 164.957 190.835 10.7133
3959.08 183.872 184.028 182.943 183.423 11.7576
3961.99 199.897 199.015 202.369 184.653 12.7242
3964.91 213.275 197.966 168.647 184.714 13.3811
3967.82 180.725 214.87 183.125 188.783 12.0195
3970.74 250.609 204.832 214.576 197.63 14.8304
3973.65 183.161 212.442 195.189 203.732 11.3369
3976.56 203.555 199.95 201.43 201.431 11.9324
3979.48 213.134 196.302 207.673 193.427 12.2685
3982.39 172.215 194.373 171.178 182.362 10.2435
3985.31 197.768 173.062 168.234 162.699 11.3929
3988.22 149.201 171.16 148.686 159.639 9.00927
3991.14 166.51 170.415 161.997 165.923 9.95431
3994.05 195.532 192.492 187.086 181.348 11.2325
3996.96 215.434 203.681 194.962 186.768 11.7311
3999.88 200.078 206.857 178.257 188.074 10.9581
4002.79 205.059 213.42 191.002 189.748 11.1423
4005.71 235.121 217.916 199.984 192.245 12.0988
4008.62 213.567 235.862 185.75 206.944 11.181
4011.53 258.898 236.483 235.098 220.46 13.0838
4014.45 236.984 237.347 240.534 222.017 11.9835
4017.36 216.158 228.405 190.419 210.976 11.179
4020.28 232.073 228.091 201.975 198.004 11.9226
4023.19 236.041 212.085 201.62 186.214 12.0673
4026.1 168.14 190.62 155.048 174.922 9.27156
4029.02 167.68 183.115 168.098 167.454 9.35158
4031.93 213.524 188.349 179.216 181.518 11.1088
4034.85 183.843 220.653 197.239 209.676 9.88347
4037.76 264.59 224.071 252.572 216.284 12.9509
4040.67 223.78 260.386 199.039 240.426 11.3891
4043.59 292.788 259.553 269.667 233.51 13.9714
4046.5 262.09 279.011 231.825 252.589 12.7753
4049.41 282.154 270.76 256.275 254.773 13.4172
4052.33 268.037 301.632 276.218 281.247 12.7297
4055.24 354.706 308.831 311.247 281.786 16.0276
4058.16 303.749 317.063 257.892 284.076 14.0341
4061.07 292.733 305.325 283.089 269.433 13.6132
4063.98 319.492 306.467 267.318 277.851 14.5264
4066.9 307.176 317.792 283.145 277.837 14.3285
4069.81 326.707 317.538 283.048 287.905 14.9496
4072.72 318.732 325.724 297.523 305.532 14.4099
4075.64 331.733 324.429 336.025 308.337 14.957
4078.55 322.823 339.031 291.462 319.1 14.4689
4081.46 362.539 345.906 329.813 318.598 16.0817
4084.38 352.357 343.836 334.519 339.661 15.5022
4087.29 316.613 338.207 354.652 332.665 14.0627
4090.2 345.653 333.909 308.825 325.861 15.2738
4093.12 339.463 350.478 314.106 317.246 15.2878
4096.03 366.318 354.971 328.807 325.89 16.2665
4098.94 359.132 344.071 334.758 313.981 16.1957
4101.86 306.763 342.696 278.378 323.666 14.5004
4104.77 362.195 335.359 357.863 313.855 15.8886
4107.68 337.121 366.279 305.326 333.463 15.114
4110.59 399.521 364.558 337.202 332.281 17.4558
4113.51 357.033 369.678 354.317 335.344 15.5758
4116.42 352.48 363.575 314.514 331.863 15.4847
4119.33 381.212 343.026 326.757 304.225 16.421
4122.25 295.387 347.439 271.406 316.08 13.5782
4125.16 365.717 329.485 350.079 305.896 15.9242
4128.07 327.35 367.07 296.205 334.576 14.5384
4130.98 408.143 350.601 357.443 308.942 16.846
4133.9 316.309 365.823 273.177 335.211 14.1467
4136.81 373.015 356.354 375.012 344.283 15.8342
4139.72 379.738 361.341 384.66 363.303 16.1131
4142.63 331.269 361.992 330.238 361.307 14.6483
4145.55 374.97 360.474 369.023 346.606 15.7367
4148.46 375.182 369.065 340.556 350.534 15.9642
4151.37 357.042 365.718 342.023 339.28 15.322
4154.28 364.93 370.623 335.262 350.573 15.5351
4157.2 389.898 362.065 374.433 337.842 15.9432
4160.11 331.368 370.385 303.829 350.51 14.1751
4163.02 389.888 354.827 373.267 331.505 15.8602
4165.93 343.225 379.747 317.417 350.573 14.5506
4168.85 406.128 373.84 361.033 346.138 16.6642
4171.76 372.168 378.192 359.964 361.381 15.376
4174.67 356.279 381.975 363.146 362.583 14.9242
4177.58 417.479 387.159 364.639 368.54 16.9071
4180.5 387.717 409.318 377.836 374.2 15.7921
4183.41 422.758 400.302 380.126 372.231 17.1542
4186.32 390.432 398.286 358.732 367.562 16.0986
4189.23 381.669 400.018 363.827 370.162 15.7191
4192.14 427.954 398.138 387.928 381.71 17.2807
4195.06 384.79 396.7 393.373 375.888 16.1477
4197.97 377.357 384.033 346.362 371.567 15.8867
4200.88 389.952 396.344 374.965 373.011 15.9359
4203.79 421.722 416.463 397.705 399.113 17.1616
4206.7 437.713 427.191 424.67 398.119 17.7447
4209.61 422.137 415.102 371.981 395.745 17.1007
4212.53 385.455 421.34 390.585 399.991 15.6763
4215.44 456.428 425.109 437.408 401.831 18.0161
4218.35 433.445 431.732 377.501 410.642 17.5748
4221.26 405.325 433.028 417.017 409.31 16.383
4224.17 460.315 430.843 433.411 405.571 18.3725
4227.08 426.89 439.366 366.285 395.5 17.4388
4230 430.892 419.545 386.805 382.888 17.2348
4232.91 400.854 423.551 395.574 398.65 16.6031
4235.82 438.909 418.329 413.572 405.2 17.6997
4238.73 415.226 440.243 406.454 423.217 16.9793
4241.64 466.595 445.336 449.624 427.734 18.4586
4244.55 454.187 454.857 427.125 431.051 17.8641
4247.46 443.788 454.98 416.404 426.776 17.711
4250.38 466.966 448.654 436.798 416.73 18.3076
4253.29 435.21 452.906 396.988 419.547 17.1704
4256.2 456.543 440.008 424.856 407.215 17.7329
4259.11 428.27 442.859 399.802 406.905 16.9146
4262.02 443.764 433.56 396.058 399.146 17.5279
4264.93 428.646 453.623 401.579 419.572 17.1058
4267.84 488.458 457.388 461.08 420.736 18.9282
4270.75 455.058 453.227 399.548 415.942 17.8999
4273.66 416.164 444.338 387.199 407.894 16.8561
4276.57 461.791 433.4 436.936 408.055 17.9161
4279.49 422.244 427.824 400.03 403.388 16.6144
4282.4 399.438 438.385 373.2 422.527 16.1869
4285.31 493.473 463.643 494.352 447.894 18.8912
4288.22 498.017 497.909 476.131 481.993 19.0637
4291.13 502.237 485.473 475.497 465.887 19.1521
4294.04 456.166 473.044 446.034 453.306 17.957
4296.95 460.729 454.942 438.387 440.873 18.101
4299.86 447.931 472.811 438.197 458.267 18.1958
4302.77 509.773 480.978 498.216 463.235 19.7475
4305.68 485.229 505.911 453.292 472.826 19.0146
4308.59 522.732 500.064 466.971 458.377 20.0081
4311.5 492.232 518.447 454.868 479.484 18.9622
4314.41 540.378 515.098 516.614 479.703 19.9806
4317.32 512.686 512.585 467.626 485.151 19.3051
4320.23 484.692 499.198 471.214 465.081 18.2412
4323.14 500.215 517.778 456.404 481.398 18.5985
4326.05 568.426 513.885 516.576 473.276 20.6409
4328.96 473.014 515.31 446.848 493.757 17.8182
4331.87 504.489 505.79 517.847 488.649 18.7877
4334.78 539.867 522.415 501.253 502.629 19.7498
4337.69 522.89 519.988 488.788 484.081 19.1534
4340.6 497.206 508.979 462.201 467.232 18.523
4343.51 506.84 494.01 450.706 454.804 18.736
4346.42 477.985 493.763 451.504 449.616 17.8645
4349.33 496.466 493.15 446.637 453.146 18.5576
4352.24 505 499.479 461.296 469.324 18.735
4355.15 496.973 502.038 500.039 495.056 18.2229
4358.06 504.142 490.992 523.834 489.744 18.2603
4360.97 471.861 489.277 445.359 476.315 17.5806
4363.88 491.828 471.078 459.753 448.871 18.3232
4366.79 449.544 474.686 441.501 459.275 16.8486
4369.7 482.687 464.858 476.57 451.352 17.7934
4372.61 462.344 471.651 435.986 453.364 17.3498
4375.52 469.923 471.99 447.536 446.57 17.5262
4378.43 483.703 506.33 456.188 481.955 17.9979
4381.34 565.364 536.207 542.142 508.133 20.1137
4384.25 559.554 541.795 526.069 523.644 20.0512
4387.15 500.466 534.751 502.72 509.07 18.2177
4390.06 544.234 537.74 498.422 511.896 19.6224
4392.97 568.519 556.933 534.546 523.007 20.2101
4395.88 558.045 560.65 536.054 521.72 19.6293
4398.79 555.388 549.645 494.56 510.283 19.6348
4401.7 535.504 543.208 500.235 504.375 19.1052
4404.61 538.733 541.064 518.329 520.999 18.7863
4407.52 548.955 562.047 544.432 537.754 19.0338
4410.43 598.452 559.581 550.502 540.353 20.2658
4413.34 531.336 537.309 526.125 510.985 18.3794
4416.24 482.138 527.389 456.329 512.655 16.9744
4419.15 568.693 535.679 555.509 523.768 19.3752
4422.06 556.207 575.175 559.465 575.472 18.797
4424.97 600.624 578.714 611.442 573.704 20.0041
4427.88 579.311 590.746 550.204 573.945 19.2492
4430.79 592.302 591.799 560.19 571.4 19.5956
4433.7 603.785 585.646 603.805 568.624 20.1698
4436.6 560.851 605.882 541.877 586.202 19.0995
4439.51 653.011 618.225 612.924 579.979 21.5172
4442.42 640.813 628.785 585.135 590.484 21.1345
4445.33 592.532 588.259 573.394 554.63 19.8381
4448.24 531.432 553.849 505.361 529.671 18.3044
4451.14 537.582 557.017 510.257 525.863 18.7096
4454.05 602.038 580.944 561.97 559.857 20.5344
4456.96 603.213 604.365 607.342 581.845 20.2934
4459.87 607.845 593.923 576.222 589.624 20.4757
4462.78 570.71 613.614 585.306 596.412 19.4576
4465.68 662.287 585.496 627.707 564.937 21.728
4468.59 523.493 597.304 481.799 562.861 18.3775
4471.5 606.133 579.351 579.078 541.024 20.3025
4474.41 608.426 619.097 562.196 592.464 20.435
4477.32 642.733 627.945 636.117 607.368 21.1493
4480.22 632.675 643.522 623.79 638.438 20.6747
4483.13 655.158 624.649 655.406 614.91 21.3191
4486.04 586.114 618.08 565.533 608.133 19.6042
4488.95 612.966 602.085 603.459 585.676 20.3328
4491.85 607.173 629.678 588.035 600.055 20.0801
4494.76 668.895 626.771 608.671 583.602 21.5903
4497.67 604.244 654.154 554.099 607.553 19.925
4500.58 689.322 632.862 659.89 596.244 21.9669
4503.48 605.02 660.638 574.743 643.104 20.0425
4506.39 687.573 634.086 694.68 623.49 21.7152
4509.3 609.666 651.007 601.046 648.836 19.8514
4512.2 655.783 658.16 650.781 644.92 21.106
4515.11 709.03 674.876 682.934 667.005 22.1437
4518.02 659.815 695.677 667.3 685.583 21.0485
4520.92 718.186 685.518 706.516 670.258 22.6502
4523.83 678.553 678.773 636.959 676.569 21.6945
4526.74 639.58 635.239 686.232 633.205 20.7214
4529.65 587.583 638.694 576.423 645.73 19.3368
4532.55 688.92 652.667 674.537 653.731 21.7261
4535.46 681.498 689.85 710.233 690.376 21.473
4538.37 699.13 677.74 686.358 667.775 21.8294
4541.27 652.592 682.709 606.734 649.657 20.8156
4544.18 696.405 663.661 655.878 628.372 21.8625
4547.08 641.987 680.091 622.505 646.376 20.4968
4549.99 701.881 695.749 660.745 659.529 21.8106
4552.9 743.379 710.654 695.337 675.187 22.8388
4555.8 686.701 719.659 669.478 690.05 21.7098
4558.71 728.897 726.606 705.334 694.444 22.5132
4561.62 764.22 758.839 708.519 709.667 22.9948
4564.52 783.398 736.894 715.148 681.09 23.8263
4567.43 663.065 729.5 619.603 668.284 20.8639
4570.33 742.037 727.221 670.101 669.361 22.7253
4573.24 776.56 778.127 718.379 699.991 23.5364
4576.15 815.782 789.27 711.494 725.187 24.4588
4579.05 775.468 802.029 745.688 745.027 23.4492
4581.96 814.838 741.1 777.901 712.27 24.141
4584.86 632.994 743.465 613.22 708.706 20.0768
4587.77 782.563 725.128 734.998 666.475 23.5798
4590.67 759.828 749.484 651.208 682.169 23.0267
4593.58 706.062 726.531 660.301 650.447 21.8419
4596.49 713.704 736.985 639.833 665.1 22.0154
4599.39 791.188 768.815 695.164 676.945 23.8011
4602.3 801.554 788.7 695.838 661.497 23.9275
4605.2 773.359 796.106 593.49 664.343 23.4826
4608.11 813.405 767.705 703.703 646.963 24.3111
4611.01 716.351 772.534 643.695 677.534 22.0419
4613.92 787.845 753.15 685.203 669.214 23.6453
4616.82 755.255 774.474 678.745 686.958 22.8674
4619.73 780.322 761.143 696.928 677.394 23.2447
4622.63 747.851 765.892 656.508 665.622 22.7314
4625.54 769.504 785.801 643.429 656.657 23.2512
4628.44 840.048 804.57 670.034 650.256 24.8339
4631.35 804.157 801.58 637.305 642.055 23.8662
4634.25 760.535 770.892 618.826 645.589 22.8686
4637.16 747.984 782.699 680.638 664.641 22.6224
4640.06 839.576 822.627 694.461 711.111 24.6561
4642.97 880.321 847.831 758.234 718.251 25.5174
4645.87 823.596 850.394 702.056 724.661 24.5704
4648.77 847.264 811.549 713.692 688.859 25.0604
4651.68 763.788 827.542 650.828 689.941 23.1697
4654.58 871.575 806.828 705.301 677.945 25.3062
4657.49 785.121 821.889 677.705 677.384 23.473
4660.39 808.972 807.961 649.146 667.625 23.8873
4663.3 829.791 810.792 676.024 655.435 24.5436
4666.2 793.612 819.135 641.136 663.786 23.3802
4669.1 834.002 813.993 674.197 644.688 24.5949
4672.01 814.364 852.387 618.73 673.932 24.1822
4674.91 908.794 852.298 728.868 678.085 25.8557
4677.82 833.735 855.716 686.657 694.807 24.2625
4680.72 824.62 857.996 668.896 718.362 23.9186
4683.62 915.633 848.818 799.533 740.119 25.9694
4686.53 806.203 877.433 751.929 759.107 23.6681
4689.43 910.464 869.438 725.86 721.755 25.7916
4692.33 891.647 864.252 687.476 710.788 25.6628
4695.24 790.645 834.825 719.028 695.011 23.5673
4698.14 822.183 852.648 678.528 744.236 24.1963
4701.04 945.117 895.004 835.151 781.912 26.7414
4703.95 917.712 899.391 832.058 799.163 26.3634
4706.85 835.343 869.827 730.28 782.71 24.5782
4709.75 856.426 844.819 785.792 765.485 24.8312
4712.66 842.688 838.741 780.384 759.543 24.6047
4715.56 817.11 816.296 712.452 745.271 24.0641
4718.46 789.09 813.601 742.976 737.193 23.4272
4721.37 834.604 840.977 756.151 769.715 24.498
4724.27 899.237 854.975 810.018 768.301 25.6301
4727.17 831.083 846.495 738.735 752.912 24.1129
4730.08 809.164 787.934 709.982 705.087 24.0442
4732.98 723.556 781.783 666.543 693.807 21.8694
4735.88 812.628 769.872 704.895 694.249 23.9069
4738.78 773.431 824.669 711.309 741.427 23.3029
4741.69 887.949 829.367 808.077 757.691 25.3883
4744.59 826.721 857.528 753.687 768.28 24.2358
4747.49 857.915 850.2 743.078 761.391 24.9116
4750.39 865.965 860.748 787.407 744.768 25.12
4753.29 858.364 840.435 703.819 732.711 24.9175
4756.2 796.975 828.72 706.908 731.679 23.6864
4759.1 830.822 820.157 784.309 756.46 24.2395
4762 832.673 840.906 778.163 765.53 24.3881
4764.9 859.223 844.022 734.116 753.905 25.1436
4767.81 840.169 836.165 749.436 728.583 24.839
4770.71 809.102 846.641 702.196 753.123 23.7669
4773.61 890.651 835.172 807.737 747.812 25.5733
4776.51 805.762 846.679 733.502 774.947 23.7423
4779.41 843.624 814.283 783.601 752.967 24.5121
4782.31 793.464 831.481 741.798 757.4 23.4073
4785.22 857.356 837.903 746.801 763.626 24.8756
4788.12 862.89 878.503 802.279 796.199 24.9528
4791.02 915.264 883.811 839.518 816.079 26.0049
4793.92 873.28 866.133 806.44 785.225 24.968
4796.82 809.856 856.168 709.718 776.681 23.6632
4799.72 885.367 842.749 813.884 768.079 25.3497
4802.62 833.022 893.124 780.635 821.983 24.2739
4805.52 960.983 908.439 871.43 824.488 26.608
4808.43 931.312 924.947 821.398 836.896 26.2004
4811.33 882.544 890.658 817.86 809.975 24.8333
4814.23 858.119 869.6 790.667 812.488 24.4375
4817.13 868.136 877.268 828.937 815.213 24.6152
4820.03 905.548 877.381 826.035 817.754 25.1816
4822.93 858.459 889.922 798.29 811.154 24.3365
4825.83 905.759 889.293 809.137 831.392 25.3896
4828.73 903.659 892.255 886.749 845.256 25.4141
4831.63 867.345 888.398 839.881 847.201 24.547
4834.53 894.191 875.47 814.971 811.1 25.1879
4837.43 864.876 905.548 778.448 819.213 24.4906
4840.33 957.578 915.927 864.219 826.25 26.2474
4843.23 925.327 913.707 836.084 854.564 25.9706
4846.13 858.217 893.264 863.389 839.015 24.4737
4849.03 896.249 889.94 817.573 842.496 25.3116
4851.93 915.355 895.156 846.525 831.062 26.0299
4854.83 873.865 920.397 829.087 859.656 25.1342
4857.73 971.971 906.561 903.356 844.924 27.3605
4860.63 873.848 910.735 802.329 841.187 25.501
4863.53 886.385 906.711 817.876 837.283 25.6131
4866.43 959.899 921.622 891.646 842.754 27.1482
4869.33 918.581 920.916 818.742 837.501 26.4441
4872.23 884.267 886.413 802.115 812.483 25.653
4875.13 856.39 883.765 816.592 825.517 24.8135
4878.03 910.638 872.726 857.843 831.233 25.8584
4880.93 851.149 877.732 819.263 845.986 24.5596
4883.83 871.409 872.598 860.852 852.765 24.9354
4886.73 895.236 901.444 878.18 882.571 25.2551
4889.63 937.688 943.968 908.679 908.533 26.394
4892.53 998.981 938.33 938.741 889.421 27.5568
4895.42 878.322 954.497 820.844 912.418 25.099
4898.32 986.189 922.616 977.67 902.82 27.1925
4901.22 903.336 944.557 909.946 955.106 25.4675
4904.12 944.145 911.319 977.703 915.168 26.3039
4907.02 886.475 916.986 857.856 908.496 24.9992
4909.92 920.338 904.136 889.93 880.989 25.9067
4912.82 905.593 916.157 895.181 892.569 25.5799
4915.72 922.538 947.516 892.597 927.079 25.9355
4918.61 1014.42 942.763 993.459 908.714 27.845
4921.51 891.333 936.348 840.086 888.053 25.4172
4924.41 903.294 910.204 830.614 841.471 25.6722
4927.31 935.986 921.338 853.713 847.028 26.1758
4930.21 924.733 939.36 856.758 880.981 26.0627
4933.1 957.361 933.092 932.471 890.074 26.4019
4936 917.181 921.963 880.994 878.814 25.8013
4938.9 891.346 896.3 822.979 858.279 25.209
4941.8 880.372 881.913 870.863 839.718 24.6747
4944.7 874.02 884.923 825.311 852.209 24.7254
4947.59 900.376 904.579 860.452 853.799 25.3229
4950.49 939.342 910.182 875.634 868.593 26.0411
4953.39 890.826 917.467 869.693 875.229 24.9633
4956.29 922.232 889.102 880.361 847.969 25.6929
4959.18 854.247 891.325 793.853 830.576 24.4004
4962.08 897.496 892.066 817.514 840.613 25.0832
4964.98 924.456 932.741 910.473 886.514 25.5089
4967.88 976.27 982.82 931.555 942.732 26.5186
4970.77 1047.73 993.545 986.169 936.202 27.9649
4973.67 956.63 991.783 890.883 933.083 26.0891
4976.57 970.986 973.442 922.195 919.299 26.5449
4979.46 992.711 991.321 944.819 941.973 26.9867
4982.36 1010.27 1004.88 958.906 965.458 27.4109
4985.26 1011.67 1021.68 992.65 985.154 27.2596
4988.15 1043.09 991.911 1003.91 955.47 27.9703
4991.05 920.968 970.091 869.853 923.932 25.4424
4993.95 946.213 956.182 898.036 910.822 25.8959
4996.84 1001.37 980.635 964.576 936.752 27.0571
4999.74 994.325 1018.12 947.643 977.541 26.9472
5002.64 1058.68 1010.22 1020.4 982.589 28.3166
5005.53 977.656 1027.22 979.719 991.797 26.8323
5008.43 1045.32 1004.32 975.267 962.911 28.0931
5011.32 989.984 1010.86 933.747 958.528 26.9133
5014.22 997.264 1006.61 966.57 970.822 27.1559
5017.12 1032.58 1024.72 1012.15 1011.09 27.931
5020.01 1044.33 1053.4 1054.55 1042.04 28.1201
5022.91 1083.3 1061.72 1059.42 1045.79 28.9091
5025.8 1057.53 1047.14 1023.42 1010.68 28.4607
5028.7 1000.6 1014.4 949.192 972.031 27.328
5031.59 985.089 1020.71 943.482 984.359 27.13
5034.49 1076.44 1045.38 1060.4 1021.85 28.7935
5037.39 1074.63 1064.63 1061.67 1031.72 28.6806
5040.28 1042.82 1065.16 973.08 1026.79 28.1051
5043.18 1078.02 1063.49 1045.63 1036.54 29.1213
5046.07 1069.64 1071.9 1090.92 1067.27 28.6145
5048.97 1068.03 1082.38 1065.27 1091.67 28.3317
5051.86 1109.46 1062.72 1118.83 1062.21 29.2083
5054.76 1010.67 1042.75 1002.53 1055.15 27.2066
5057.65 1008.11 1021.43 1044.08 1026.32 27.1013
5060.55 1045.52 1035.69 1032.34 1044.77 28.0719
5063.44 1053.43 1055.68 1057.89 1072.72 28.0762
5066.34 1068.09 1063.91 1127.92 1083.39 28.4152
5069.23 1070.2 1083.13 1064.36 1090.1 28.5966
5072.12 1111.09 1069.28 1078.01 1064.57 29.5021
5075.02 1026.55 1080.21 1051.32 1078.76 27.4545
5077.91 1102.99 1068.16 1106.94 1072.93 29.1991
5080.81 1074.95 1086.3 1060.53 1094.42 28.5103
5083.7 1080.97 1077.48 1115.78 1088.6 28.7433
5086.6 1076.51 1084.65 1089.51 1102.91 28.434
5089.49 1096.47 1073.49 1103.44 1098.47 28.823
5092.38 1047.5 1082.36 1102.45 1104.78 28.0324
5095.28 1103.12 1084.23 1108.45 1115.91 29.1648
5098.17 1102.05 1097.97 1136.83 1108.64 28.9572
5101.06 1088.74 1091.75 1080.65 1105.07 28.6635
5103.96 1084.47 1097.18 1097.72 1113.61 28.8352
5106.85 1118.34 1094.94 1162.45 1123.8 29.4527
5109.74 1082 1087.7 1111.23 1132.93 28.4661
5112.64 1062.77 1091.91 1125.11 1127.72 28.3017
5115.53 1130.97 1060.31 1146.83 1103.33 29.302
5118.42 987.183 1048.99 1038.05 1101.22 26.7215
5121.32 1028.8 1033.83 1118.77 1111.26 27.6915
5124.21 1085.51 1071.98 1176.98 1136.86 28.4771
5127.1 1101.61 1084.61 1114.83 1117.22 28.8726
5130 1066.7 1096.93 1059.84 1105.64 28.3332
5132.89 1122.48 1114.74 1142.26 1136.52 29.2174
5135.78 1155.05 1126.55 1207.45 1141.22 29.5845
5138.67 1102.14 1138.02 1073.95 1154.17 28.9452
5141.57 1156.86 1130.89 1181.11 1137.15 30.0077
5144.46 1133.68 1134.84 1156.39 1160.82 29.374
5147.35 1113.99 1131.63 1144.96 1164.35 29.1168
5150.24 1147.22 1136.86 1191.71 1166.33 29.6014
5153.14 1149.37 1160.03 1162.31 1183.2 29.5724
5156.03 1183.49 1159.57 1195.58 1180.8 30.2782
5158.92 1145.84 1136.56 1184.5 1158.75 29.6161
5161.81 1080.35 1102.12 1096.15 1133.15 28.4891
5164.7 1080.17 1105.94 1118.79 1127.53 28.9042
5167.6 1157.3 1103.8 1167.64 1118.11 30.4401
5170.49 1073.93 1128.8 1067.89 1145.71 28.8008
5173.38 1155.17 1115.64 1201.58 1151.21 30.1407
5176.27 1117.83 1109.31 1184.15 1179.09 29.4466
5179.16 1054.92 1103.97 1151.52 1176.59 28.209
5182.05 1139.16 1112.69 1194.1 1191.79 29.9583
5184.94 1143.99 1152.02 1229.74 1221 29.7549
5187.84 1172.9 1160.9 1239.17 1227.34 30.2443
5190.73 1165.8 1185.72 1213.11 1244.82 29.9653
5193.62 1218.46 1175.59 1282.17 1223.08 30.9287
5196.51 1142.52 1168.14 1173.96 1221.97 29.389
5199.4 1143.44 1140.6 1209.78 1199.07 29.1642
5202.29 1135.85 1117.34 1213.46 1190.6 29.1242
5205.18 1072.72 1103.44 1148.56 1187.62 27.9692
5208.07 1101.76 1102.07 1200.83 1172.07 28.6527
5210.96 1131.71 1146.46 1166.82 1198.82 29.3941
5213.85 1205.91 1153.05 1228.79 1204.09 30.8101
5216.74 1121.53 1166.1 1216.65 1220.53 28.9775
5219.63 1170.86 1118.45 1216.14 1174.86 29.668
5222.52 1062.97 1115.41 1091.8 1147.76 27.8493
5225.41 1112.4 1109.04 1135.35 1143.29 28.8972
5228.3 1151.76 1122.45 1202.71 1164.07 29.4215
5231.19 1103.2 1116.52 1154.16 1165.05 29.0589
5234.08 1094.6 1094.56 1138.29 1158.86 28.4471
5236.97 1085.87 1110.88 1184.14 1175.38 28.103
5239.86 1152.17 1124.8 1203.7 1193.35 29.3879
5242.75 1136.37 1134.59 1192.2 1195.64 29.2731
5245.64 1115.23 1114.18 1191.03 1174.75 28.8604
5248.53 1090.95 1096.23 1141.01 1149.24 28.4805
5251.42 1082.51 1081.84 1115.68 1115.47 28.2014
5254.31 1072.07 1069.3 1089.72 1112.02 27.8033
5257.2 1053.34 1077.03 1130.66 1140.23 27.4985
5260.09 1105.68 1106.51 1200.31 1180.32 28.7552
5262.98 1160.52 1118.89 1210 1200.44 29.9611
5265.86 1090.47 1101.82 1191.01 1178.74 28.7807
5268.75 1054.48 1081.47 1135.22 1159.13 28.4183
5271.64 1099.46 1125.36 1151.16 1174.94 28.8909
5274.53 1222.13 1150.07 1238.45 1178.46 31.0272
5277.42 1128.62 1180.87 1145.78 1206.2 29.204
5280.31 1191.87 1154.22 1234.37 1192.48 30.4398
5283.2 1142.17 1166.58 1197.29 1217.12 29.6016
5286.08 1165.7 1157.67 1219.69 1206.43 29.7697
5288.97 1165.14 1147.12 1202.31 1203.8 29.8099
5291.86 1110.54 1134.76 1189.39 1197.76 28.6608
5294.75 1128.6 1152.5 1201.57 1234.42 28.7237
5297.64 1218.37 1189.36 1312.3 1281.08 30.3862
5300.52 1221.12 1197.43 1329.35 1297.21 30.4762
5303.41 1152.79 1177.97 1249.97 1277.54 29.3255
5306.3 1160 1163.83 1253.3 1261.84 29.5177
5309.19 1178.7 1180.17 1282.25 1284.45 29.7477
5312.07 1201.81 1195.89 1317.81 1294.69 29.9584
5314.96 1207.15 1210.53 1284.02 1297.37 30.0851
5317.85 1222.63 1216.62 1290.28 1304.83 30.4282
5320.74 1220.08 1228.79 1340.18 1319.14 30.5019
5323.62 1243.66 1238.62 1326.97 1335.34 30.8368
5326.51 1252.11 1250.24 1338.89 1339.6 31.1499
5329.4 1254.95 1205.49 1352.95 1289.55 31.141
5332.28 1109.42 1224.7 1176.81 1310.49 28.6422
5335.17 1309.75 1205.99 1401.71 1293.09 32.1066
5338.06 1198.8 1227.43 1300.75 1311.22 30.1507
5340.94 1173.73 1191.73 1231.2 1269.8 29.65
5343.83 1202.65 1194.56 1277.44 1261.67 30.1734
5346.72 1207.29 1201.76 1276.37 1275.13 30.3311
5349.6 1195.34 1196.04 1271.57 1277.23 30.0154
5352.49 1185.48 1171.66 1283.75 1261.69 29.742
5355.38 1134.16 1192.58 1229.74 1286.21 28.8832
5358.26 1258.09 1219.8 1345.15 1326.58 31.1995
5361.15 1267.16 1279.47 1404.84 1381.04 31.2355
5364.03 1313.15 1284.66 1393.13 1385.48 32.0738
5366.92 1273.67 1299.15 1358.46 1391.95 31.4646
5369.8 1310.62 1322.99 1424.25 1424.57 31.9481
5372.69 1384.67 1322.29 1490.99 1440.77 33.4267
5375.58 1271.58 1296.64 1407.07 1395.45 31.2581
5378.46 1233.68 1256.04 1288.29 1346.51 30.7746
5381.35 1262.88 1245.26 1344.18 1332.08 31.2844
5384.23 1239.23 1277.14 1363.76 1374.92 30.9182
5387.12 1329.3 1309.93 1416.82 1426.54 32.4224
5390 1361.24 1353.43 1499.06 1471.41 32.8482
5392.89 1369.73 1356.12 1498.35 1479.09 33.0278
5395.77 1337.38 1361.12 1439.87 1481.5 32.5736
5398.66 1376.24 1352.94 1506.27 1475 33.4333
5401.54 1345.19 1340.61 1478.85 1455.56 32.8527
5404.42 1300.39 1294.83 1381.56 1407.27 32.3673
5407.31 1238.92 1281.7 1361.41 1380.75 30.9492
5410.19 1305.79 1258.07 1399.29 1356.64 32.1929
5413.08 1229.51 1286.43 1309.23 1386.45 30.7496
5415.96 1323.99 1266.81 1450.82 1362.29 32.2691
5418.85 1246.92 1283.81 1326.82 1392.22 31.1264
5421.73 1280.52 1283.98 1399.02 1387.27 31.6076
5424.61 1324.52 1296.92 1435.96 1413.05 32.2882
5427.5 1285.72 1317.96 1404.16 1432.14 31.7519
5430.38 1343.65 1313.25 1456.3 1443.09 32.4983
5433.26 1310.39 1351.17 1468.82 1486.36 31.9215
5436.15 1399.49 1361.17 1533.97 1509.5 33.4199
5439.03 1373.63 1380.18 1525.73 1510.15 32.7674
5441.91 1367.44 1371.05 1470.74 1496.94 32.7275
5444.8 1372.08 1367.18 1494.35 1479.13 32.9527
5447.68 1362.01 1375.28 1472.3 1495.99 32.7913
5450.56 1391.76 1354.01 1521.32 1479.23 33.2465
5453.45 1308.28 1350.05 1444.08 1486.06 31.8062
5456.33 1350.12 1317.26 1492.79 1468.71 32.3542
5459.21 1293.37 1338.58 1469.26 1486.22 31.152
5462.09 1372.25 1344.84 1496.62 1493.55 32.7788
5464.98 1368.92 1367.8 1514.78 1505.7 32.5038
5467.86 1362.24 1364.61 1505.69 1491.92 32.7199
5470.74 1362.66 1374.67 1455.3 1488.44 32.6791
5473.62 1399.1 1373.89 1504.32 1482.89 33.3044
5476.51 1359.9 1351.34 1489.06 1468.95 32.6521
5479.39 1295.04 1326.09 1413.46 1463.33 31.456
5482.27 1323.34 1324.19 1487.48 1451.88 31.9538
5485.15 1354.18 1316.6 1454.7 1447.04 32.6866
5488.03 1272.28 1354.18 1398.93 1459.49 31.1278
5490.91 1436.09 1345.69 1524.84 1470.39 33.9764
5493.8 1328.71 1388.73 1487.39 1512.47 32.0449
5496.68 1401.38 1341.61 1525.18 1484.16 33.0829
5499.56 1294.74 1343.67 1439.9 1486.47 31.1992
5502.44 1334.88 1325.37 1494.32 1474.73 31.9808
5505.32 1346.48 1352.67 1489.96 1500.67 32.2674
5508.2 1376.66 1405.2 1517.74 1552.58 32.8656
5511.08 1492.47 1412.6 1650.05 1551.18 34.5961
5513.96 1368.67 1395.05 1485.74 1532.94 32.4849
5516.84 1324.02 1364.63 1463.04 1514 31.6257
5519.73 1401.2 1381.36 1593.21 1534.9 33.037
5522.61 1418.85 1431.71 1548.45 1582.93 33.0983
5525.49 1475.07 1428.37 1607.14 1553.92 34.3181
5528.37 1391.19 1401.31 1506.18 1524.64 33.0551
5531.25 1337.68 1351.99 1460.61 1494.04 31.9164
5534.13 1327.11 1354.84 1515.34 1511.51 31.681
5537.01 1399.72 1366.18 1558.58 1535.63 32.6423
5539.89 1371.72 1386.36 1532.97 1524.26 32.2463
5542.77 1387.64 1387.78 1481.24 1511.28 32.3541
5545.65 1403.99 1391.69 1519.62 1506.87 32.6382
5548.53 1383.43 1386.63 1519.74 1515.58 32.082
5551.41 1372.46 1376.39 1507.38 1506.25 32.2048
5554.28 1373.29 1368.8 1491.62 1503.41 32.1478
5557.16 1360.66 1390.87 1511.22 1524.27 31.8604
5560.04 1438.67 1407.87 1569.98 1557.11 32.974
5562.92 1424.28 1432.09 1590.13 1617.09 32.5481
5565.8 1433.33 1408.61 1691.16 1673.11 32.2838
5568.68 1368.22 1439.88 1738.05 1744.5 27.5273
5571.56 1518.09 1420.86 1804.29 1706.1 24.5599
5574.44 1376.27 1514.98 1575.96 1664.93 19.3974
5577.32 1650.59 1558.22 1614.53 1679.39 21.7709
5580.19 1647.79 1593.84 1847.69 1701.85 23.2394
5583.07 1483.13 1520.98 1643.32 1699.37 23.5521
5585.95 1432.01 1439.61 1607.1 1608.12 25.6238
5588.83 1403.68 1416.53 1573.94 1566.86 26.6817
5591.71 1413.9 1392.61 1519.56 1531.54 28.04
5594.59 1360.25 1401.42 1501.12 1545.81 28.4836
5597.46 1430.1 1391.09 1616.76 1557.8 30.8648
5600.34 1382.9 1428.89 1555.51 1602.96 31.1228
5603.22 1473.66 1467.54 1636.62 1631.5 33.185
5606.1 1546.07 1469.2 1702.35 1645.22 34.4185
5608.97 1387.87 1462.07 1596.68 1630.3 31.9942
5611.85 1452.26 1394.52 1591.86 1562.26 33.3902
5614.73 1343.43 1421.97 1498.24 1559.64 31.5572
5617.61 1470.22 1407.81 1588.82 1569.48 33.6374
5620.48 1409.79 1462.19 1621.39 1626.63 32.2706
5623.36 1506.56 1441.57 1669.68 1628.7 34.0054
5626.24 1408.36 1447.12 1595.02 1614.6 32.6265
5629.11 1426.43 1451.15 1579.11 1637.3 33.1389
5631.99 1518.65 1480.27 1737.77 1677.19 34.4411
5634.87 1495.74 1495.18 1714.69 1688.48 34.1809
5637.74 1471.15 1489.88 1612.96 1656.23 33.7057
5640.62 1502.73 1483.58 1641.03 1629.56 34.1238
5643.49 1476.86 1460.64 1634.7 1622.91 33.7452
5646.37 1402.32 1453.64 1593.01 1627.33 32.4171
5649.25 1481.74 1457.58 1654.28 1620.2 33.9248
5652.12 1488.67 1464.66 1613.3 1625.14 33.9119
5655 1423.57 1442.25 1607.84 1612.62 32.832
5657.87 1414.51 1436.56 1616.7 1610.97 32.8508
5660.75 1471.59 1445.12 1608.36 1628.04 33.7982
5663.63 1449.26 1432.4 1659.07 1605.33 33.3853
5666.5 1376.35 1396.22 1548.54 1594.95 31.9864
5669.38 1363.05 1379.85 1577.23 1558.74 31.7266
5672.25 1400.14 1426.2 1550.45 1599.6 32.2441
5675.13 1515.4 1425.39 1671.13 1590.26 34.3677
5678 1360.64 1433.06 1549.22 1609.12 31.612
5680.88 1423.15 1401.61 1607.02 1576.98 32.7281
5683.75 1421.03 1426.84 1574.71 1578.89 32.589
5686.62 1436.33 1451.23 1554.94 1601.41 32.8269
5689.5 1496.32 1489.98 1674.59 1637.51 33.6593
5692.37 1537.28 1488.45 1683.01 1650.34 34.4296
5695.25 1431.73 1478.79 1593.42 1654.82 32.7258
5698.12 1467.37 1465.28 1688.04 1657.11 33.2361
5701 1496.73 1481.32 1689.86 1679.3 33.8605
5703.87 1479.87 1483.85 1660.02 1666.74 33.8009
5706.74 1474.94 1473.97 1650.33 1664.61 33.684
5709.62 1467.11 1462.54 1683.47 1634.77 33.5285
5712.49 1445.56 1504 1570.52 1669.15 33.1209
5715.36 1599.32 1485.98 1753.47 1639.68 35.7165
5718.24 1413.07 1506.05 1595.04 1684.63 32.5841
5721.11 1505.77 1459.77 1705.39 1646.08 34.1662
5723.98 1460.48 1476.55 1637.82 1669.43 33.2143
5726.86 1463.41 1466.45 1665.08 1656.25 33.3626
5729.73 1475.47 1461.06 1665.83 1643.3 33.5349
5732.6 1444.28 1476.36 1598.97 1649.18 33.3334
5735.48 1509.32 1479.15 1682.73 1644.5 34.1558
5738.35 1483.85 1506.49 1651.79 1673.74 33.8222
5741.22 1526.31 1484.99 1686.68 1663.1 34.2884
5744.09 1444.8 1484.78 1650.82 1676.49 33.2113
5746.97 1483.23 1471.99 1691.95 1668.11 33.9934
5749.84 1487.93 1473.54 1661.56 1662.68 33.9419
5752.71 1449.46 1467.79 1634.53 1656.1 33.574
5755.58 1465.99 1484.41 1672.23 1676.73 33.5987
5758.45 1537.77 1520.54 1723.43 1717.41 34.9907
5761.33 1557.84 1506.27 1756.58 1701.95 35.025
5764.2 1423.21 1481.92 1625.83 1664.61 32.8079
5767.07 1464.72 1479.79 1611.42 1679.45 33.5501
5769.94 1551.45 1487.7 1801.11 1688.88 34.9227
5772.81 1446.93 1486.99 1654.1 1707.17 32.9782
5775.68 1462.6 1483.23 1666.3 1683.56 33.4008
5778.55 1540.18 1481.68 1730.28 1665.95 34.8027
5781.43 1442.27 1471.4 1601.25 1646.56 33.4028
5784.3 1431.76 1462.34 1608.15 1649.43 33.1412
5787.17 1512.99 1465.64 1738.89 1664.35 34.2305
5790.04 1452.17 1474.6 1646.02 1676.39 33.4704
5792.91 1458.64 1461.01 1644.27 1645.2 33.7
5795.78 1472.22 1449.25 1645.3 1654.48 33.7142
5798.65 1416.9 1470.29 1673.86 1664.12 32.5386
5801.52 1521.75 1476.66 1673.2 1689.77 34.5101
5804.39 1491.35 1491.13 1722.24 1675.71 33.7348
5807.26 1460.31 1524.05 1631.67 1714.56 33.35
5810.13 1620.5 1532.91 1789.76 1717.29 35.9411
5813 1517.94 1583.13 1730.45 1793.77 34.1832
5815.87 1610.95 1565.39 1861.1 1782.94 35.4317
5818.74 1567.29 1595.81 1757.26 1811.98 35.0043
5821.61 1609.2 1567.66 1817.57 1762.38 35.4442
5824.48 1526.47 1555.04 1712.3 1758.1 34.2241
5827.34 1529.43 1529.71 1744.43 1728.57 34.2499
5830.21 1533.22 1539.01 1728.99 1754.09 34.3432
5833.08 1554.37 1563.31 1788.85 1765.67 34.5594
5835.95 1602.35 1563.59 1779.19 1760.31 35.358
5838.82 1534.05 1549.13 1712.88 1743.22 34.2788
5841.69 1511 1518.09 1737.6 1732.17 33.8934
5844.56 1509.23 1540.08 1746.02 1751.43 34.0571
5847.43 1600.03 1557.59 1770.66 1764.7 35.3111
5850.29 1563.51 1572.27 1777.41 1756.73 34.6637
5853.16 1553.27 1538.31 1722.13 1724.86 34.5225
5856.03 1498.15 1554.69 1675.05 1743.28 33.8102
5858.9 1612.66 1583.64 1832.65 1804.81 35.1166
5861.77 1640.12 1602.78 1906.74 1846.33 34.7014
5864.63 1555.56 1559.52 1799.61 1796.69 32.7815
5867.5 1482.87 1533.56 1683.72 1739.99 31.4597
5870.37 1562.25 1514.76 1736.65 1714.22 33.0403
5873.24 1499.14 1547.39 1722.28 1757.96 32.1956
5876.1 1580.79 1509.11 1814.94 1733.61 33.6842
5878.97 1447.41 1533.71 1663.6 1760.69 31.6681
5881.84 1572.93 1516.82 1803.52 1738.16 31.9525
5884.7 1530.12 1601.44 1747.37 1821.38 28.8491
5887.57 1701.28 1618.06 1913.25 1820.31 29.5393
5890.44 1622.78 1621.5 1800.3 1801.82 27.5159
5893.3 1540.43 1582.12 1691.9 1780.67 26.7748
5896.17 1583.16 1540.88 1849.8 1741.67 28.3524
5899.04 1499.06 1528.19 1683.3 1740.65 28.5675
5901.9 1502.33 1515.58 1688.86 1690.63 29.7668
5904.77 1545.35 1519.9 1699.72 1705.48 31.4276
5907.63 1512.02 1544.75 1727.85 1735.18 31.5591
5910.5 1576.87 1540.1 1777.96 1742.51 32.6907
5913.37 1531.4 1554.45 1721.73 1764.38 32.0648
5916.23 1555.07 1561.74 1793.44 1779.92 32.6358
5919.1 1598.73 1603.94 1824.61 1830.49 33.599
5921.96 1658.02 1638.51 1873.43 1868.96 34.6564
5924.83 1658.77 1658.36 1908.85 1874.86 34.4912
5927.69 1658.29 1656.45 1842.31 1875.26 34.2654
5930.56 1652.27 1612.3 1874.62 1831.87 33.8755
5933.42 1526.32 1575.2 1778.66 1793.12 32.2114
5936.29 1546.99 1550.91 1726.08 1764.4 32.9142
5939.15 1579.43 1540.38 1788.45 1756.23 33.8422
5942.02 1494.72 1526.82 1754.17 1754.99 32.4863
5944.88 1506.32 1518.18 1722.33 1758.7 32.4244
5947.74 1553.49 1545.71 1799.58 1786.95 32.8203
5950.61 1577.32 1561.04 1838.92 1788.25 33.2708
5953.47 1552.32 1561.22 1726.26 1776.46 32.761
5956.34 1554.01 1566.63 1764.19 1761.82 33.1653
5959.2 1593.57 1577 1795 1803.62 33.9908
5962.06 1583.43 1600.72 1851.68 1836.03 34.11
5964.93 1625.16 1589.91 1861.43 1839.79 34.7375
5967.79 1561.13 1582.11 1806.28 1815.41 33.7027
5970.65 1560.03 1560.44 1778.53 1772.23 33.3823
5973.52 1560.16 1503.3 1731.89 1694.97 33.7677
5976.38 1389.72 1410.14 1574.51 1598 30.9907
5979.24 1280.53 1338.96 1487.6 1526.53 29.1417
5982.11 1346.63 1342.86 1517.47 1549.02 30.6448
5984.97 1401.44 1382.35 1641.99 1581.21 31.7076
5987.83 1398.98 1425.36 1584.18 1631.24 31.8141
5990.69 1475.68 1439 1667.56 1623.32 33.0785
5993.56 1442.33 1463.37 1618.22 1666.72 32.4831
5996.42 1472.09 1473.82 1714.4 1690.35 32.8447
5999.28 1507.06 1526.56 1738.44 1769.01 33.3072
6002.14 1600.53 1540.12 1854.2 1793.15 34.7487
6005 1512.79 1528.1 1786.82 1802.58 33.6174
6007.86 1470.98 1484.29 1766.72 1742.71 32.8726
6010.73 1469.11 1493.99 1674.6 1741.74 33.1935
6013.59 1541.88 1523.2 1783.89 1763.62 34.3716
6016.45 1558.61 1556.81 1832.37 1810.63 34.9424
6019.31 1569.93 1566.83 1815.61 1840.49 35.1723
6022.17 1571.94 1547.1 1873.48 1818.26 35.0544
6025.03 1499.43 1548.81 1765.7 1833.22 33.8818
6027.89 1575.06 1521.65 1860.48 1805.94 34.8186
6030.75 1490.45 1535.13 1791.64 1810.71 33.3469
6033.61 1539.87 1502.24 1779.99 1786.69 34.4311
6036.47 1476.4 1514.65 1788.44 1786.31 33.3527
6039.33 1527.67 1516.8 1790.51 1790.4 34.3256
6042.2 1546.32 1515.83 1792.25 1777.24 34.7797
6045.06 1473.49 1521.03 1748.97 1788.92 33.4987
6047.92 1543.27 1517.53 1825.53 1799.26 34.8277
6050.77 1535.82 1572.36 1823.28 1861.34 34.6102
6053.63 1637.98 1590.42 1935.21 1861.78 36.5214
6056.49 1597.46 1577.71 1826.85 1837.8 35.6322
6059.35 1497.69 1518.13 1751.34 1767.56 34.2008
6062.21 1459.22 1492.2 1724.5 1745.54 33.5683
6065.07 1519.68 1511.82 1760.78 1770.58 34.2484
6067.93 1556.56 1549.57 1826.47 1788.58 35.0563
6070.79 1572.48 1572.81 1778.5 1827.4 35.3261
6073.65 1589.4 1555.44 1877.24 1816.66 35.6773
6076.51 1504.45 1554.45 1794.24 1844.29 34.3128
6079.37 1569.51 1533.82 1861.4 1828.31 35.3471
6082.22 1527.5 1532.37 1829.29 1819.98 34.6624
6085.08 1500.08 1517.76 1769.27 1786.21 34.2553
6087.94 1525.68 1539.31 1760.09 1805.15 34.6342
6090.8 1592.17 1552.82 1886.09 1801.08 35.9056
6093.66 1540.61 1578.18 1757.05 1840.22 34.98
6096.51 1601.77 1545.5 1877.52 1803.92 36.1457
6099.37 1494.13 1530.76 1777.18 1808.71 34.176
6102.23 1496.37 1528.03 1771.43 1801.36 34.0597
6105.09 1593.58 1533.47 1855.47 1800.69 35.8011
6107.94 1510.45 1552.82 1775.17 1827.1 34.4695
6110.8 1554.42 1505.37 1850.65 1775.28 35.1365
6113.66 1451.24 1516.37 1700.03 1779.62 33.6838
6116.52 1543.43 1521.04 1788.17 1777.36 35.1377
6119.37 1568.45 1558.55 1843.87 1819.56 35.5518
6122.23 1563.76 1578.04 1826.64 1860.78 35.6145
6125.09 1601.89 1583.37 1911.83 1863.59 36.174
6127.94 1584.47 1611.77 1852.28 1884.66 36.0328
6130.8 1648.95 1613.55 1889.87 1879.01 36.9491
6133.65 1607.23 1626.66 1894.88 1892.35 35.7914
6136.51 1623.81 1608.17 1892.29 1869.65 35.7035
6139.37 1593.48 1599.56 1821.76 1855.65 35.3418
6142.22 1581.39 1572.09 1852.89 1838.74 34.9681
6145.08 1541.39 1573.79 1841.56 1866.81 34.429
6147.93 1598.58 1584.49 1905.97 1873.99 35.7487
6150.79 1613.48 1594.22 1874.43 1884.03 35.933
6153.64 1570.61 1594.89 1871.67 1861.41 35.4337
6156.5 1600.58 1598.79 1838.12 1866.3 36.0815
6159.35 1625.2 1574.95 1889.12 1837.42 36.4298
6162.21 1499.07 1577.53 1785.03 1853.62 34.4469
6165.06 1608.33 1573.85 1886.71 1843.54 35.7878
6167.92 1614.16 1621.04 1858.88 1890.42 35.5504
6170.77 1640.63 1602.27 1925.68 1866.37 35.7283
6173.63 1552.01 1581.14 1814.56 1851.27 34.8385
6176.48 1550.79 1552.37 1813.57 1836.98 35.0753
6179.33 1554.32 1576.83 1882.81 1871.25 34.9609
6182.19 1625.38 1583.66 1917.38 1890.61 36.3395
6185.04 1571.27 1590.73 1871.63 1880.95 35.407
6187.9 1575.53 1542.86 1853.84 1822.45 35.6217
6190.75 1481.79 1546.43 1741.87 1818.11 34.307
6193.6 1581.98 1516.79 1858.63 1788.09 35.7111
6196.46 1486.61 1517.81 1763.77 1785.33 34.0532
6199.31 1484.84 1513.92 1733.58 1779.21 33.7054
6202.16 1570.31 1529.56 1840.29 1788.36 34.9917
6205.01 1533.53 1548.22 1791.21 1815.49 34.6762
6207.87 1540.81 1551.81 1814.96 1831.8 34.8417
6210.72 1581.08 1543.8 1889.23 1829.02 35.3163
6213.57 1509.51 1539.74 1782.88 1815.92 34.045
6216.43 1528.63 1542.63 1775.66 1810.87 34.3906
6219.28 1589.74 1554.89 1874.07 1822.74 35.217
6222.13 1546.29 1533.77 1818.48 1806.78 34.6094
6224.98 1465.28 1525.38 1727.8 1794.49 33.3767
6227.83 1564.57 1500.19 1837.18 1773.65 34.3086
6230.68 1470.72 1518.16 1755.97 1774.94 31.7404
6233.54 1519.19 1515.7 1731.66 1756.32 31.3135
6236.39 1557.2 1562.38 1781.32 1795.07 31.6844
6239.24 1610.75 1562.57 1872.23 1822.01 32.9023
6242.09 1519.75 1557.36 1812.49 1819.15 31.8722
6244.94 1541.57 1534.63 1772.74 1790.34 33.0995
6247.79 1542.57 1522.61 1785.8 1765.47 33.5816
6250.64 1483.69 1482.32 1737.87 1728 32.3015
6253.49 1420.69 1448.83 1660.33 1698.95 30.8891
6256.34 1442.1 1431.8 1698.65 1678.08 30.6147
6259.19 1432.62 1448.03 1675.27 1704.96 30.606
6262.04 1469.37 1463.38 1740.98 1717.57 31.5568
6264.89 1488.15 1468.22 1736.45 1723.79 32.1843
6267.74 1447.15 1474.75 1693.95 1734.14 32.0854
6270.59 1488.96 1487.64 1772.02 1742.79 32.8937
6273.44 1526.83 1500.1 1762.39 1766.8 33.9562
6276.29 1484.51 1503.02 1766.01 1753.85 33.4514
6279.14 1497.72 1471.08 1733.14 1734.45 33.5077
6281.99 1431.03 1481.33 1704.19 1734.64 31.7144
6284.84 1515.24 1449.83 1766.58 1708 32.6579
6287.69 1403.21 1466.78 1653.22 1747.41 30.8304
6290.54 1481.89 1454.04 1822.41 1727.67 31.0133
6293.39 1477.01 1475.66 1707.38 1763.39 27.8249
6296.24 1468.08 1493.81 1760.39 1747.08 25.1957
6299.08 1536.33 1529.04 1773.48 1775.34 24.8932
6301.93 1582.7 1540.04 1792.15 1765.44 26.1063
6304.78 1501.07 1482.57 1730.68 1714.86 26.6497
6307.63 1363.94 1433.74 1621.76 1679.79 26.368
6310.48 1436.2 1425.83 1686.92 1678.42 29.3499
6313.32 1477.35 1426.61 1726.58 1685.66 31.2675
6316.17 1366.28 1455.18 1643.49 1705.49 30.3339
6319.02 1521.9 1456.85 1746.41 1709.79 33.3396
6321.87 1482.38 1492.7 1739.48 1737.48 32.4385
6324.71 1473.82 1493.81 1726.55 1755.72 32.0647
6327.56 1525.22 1455.73 1801.14 1709.01 32.5305
6330.41 1368.15 1454.57 1599.34 1700.95 30.1944
6333.25 1470.34 1448.26 1702.37 1690.07 32.7377
6336.1 1506.28 1486.22 1768.49 1747.9 33.7731
6338.95 1482.03 1448.2 1772.83 1709.41 33.8449
6341.79 1356.3 1442.7 1586.9 1687.75 31.6638
6344.64 1489.75 1456.74 1703.53 1691.03 33.6604
6347.49 1524.18 1486.22 1782.67 1720.82 34.2616
6350.33 1444.73 1488.44 1676.26 1731.68 32.5178
6353.18 1496.42 1473.91 1736.12 1704.12 32.7041
6356.02 1480.59 1512.79 1699.98 1755.03 31.4239
6358.87 1561.36 1537.39 1829 1790.8 31.5536
6361.71 1570.22 1549.28 1843.42 1813.7 31.321
6364.56 1516.26 1527.99 1768.68 1782.06 30.9172
6367.4 1497.5 1492.26 1734.08 1734.82 31.6677
6370.25 1463.01 1493.13 1701.7 1755.74 32.291
6373.09 1518.87 1476.07 1831.45 1734.41 33.7675
6375.94 1446.33 1475.4 1670.08 1714.01 32.8637
6378.78 1460.99 1499.65 1640.51 1709.58 33.4334
6381.63 1591.63 1519.46 1818.16 1739.78 35.5794
6384.47 1505.74 1540.42 1760.67 1773.42 33.9941
6387.32 1523.88 1495.5 1741.41 1725.42 34.5184
6390.16 1456.88 1493.13 1674.19 1719.39 33.9075
6393 1498.64 1475.86 1742.56 1723.6 34.7031
6395.85 1472.06 1483.88 1754.05 1738.86 34.4325
6398.69 1480.94 1504.57 1719.98 1758.2 34.6592
6401.53 1560.7 1524.21 1800.58 1768.88 36.1797
6404.38 1530.98 1537.35 1786.09 1792.19 35.902
6407.22 1520.36 1525.96 1789.89 1784.88 35.3401
6410.06 1526.54 1527.94 1778.64 1785.65 35.6695
6412.91 1536.93 1495.8 1788.41 1740.85 35.4549
6415.75 1423.92 1501.69 1655.49 1756.01 33.5297
6418.59 1544.22 1482.24 1824.13 1740.15 35.3149
6421.43 1478.58 1544 1740.84 1824.54 34.3497
6424.28 1609.2 1509.43 1908.65 1771.51 36.4762
6427.12 1440.52 1522.36 1665.03 1788.45 34.0343
6429.96 1517.37 1454.44 1791.67 1709.65 35.2435
6432.8 1405.44 1486.03 1672.25 1733.74 33.6154
6435.64 1535.28 1497.04 1737.3 1730.82 35.864
6438.49 1550.39 1530.59 1782.91 1749.29 36.2773
6441.33 1506.08 1512.34 1727.65 1747.49 35.5003
6444.17 1480.55 1478.32 1731.91 1712.83 34.902
6447.01 1448.31 1486.2 1678.92 1718.6 34.2675
6449.85 1529.75 1492.71 1744.97 1737.27 35.7662
6452.69 1500.07 1496.21 1787.93 1746.32 34.8518
6455.53 1458.82 1482.27 1706.06 1752.06 33.9587
6458.37 1487.93 1453.73 1762.19 1708.17 33.759
6461.21 1414.43 1462.67 1656.28 1716.28 31.6247
6464.05 1485.65 1483.05 1730.39 1713.66 31.9435
6466.89 1549.06 1508.09 1754.31 1750.15 33.0259
6469.73 1489.54 1531.46 1765.74 1777.5 32.2144
6472.57 1555.77 1515.27 1812.45 1779.79 33.7501
6475.41 1500.49 1525.52 1761.18 1780.07 33.6599
6478.25 1520.3 1524.7 1766.58 1780.68 34.3093
6481.09 1553.32 1543.4 1814.27 1795.29 35.559
6483.93 1556.57 1553.97 1805.02 1800.42 36.0676
6486.77 1552.04 1505.59 1781.96 1746.58 36.2076
6489.61 1408.17 1467.95 1652.76 1705.29 33.341
6492.45 1443.65 1435.76 1681.15 1673.17 32.624
6495.29 1455.47 1485.47 1685.6 1722 31.7167
6498.12 1557.3 1509.55 1799.25 1754.04 32.7136
6500.96 1515.9 1535.13 1777.27 1783.97 32.1858
6503.8 1532.2 1510.8 1775.4 1757.15 33.36
6506.64 1484.31 1484.44 1718.77 1709.44 33.3794
6509.48 1436.81 1414.19 1634.14 1655.31 33.0489
6512.31 1321.45 1391.43 1613 1622.36 31.2641
6515.15 1416.03 1402.09 1619.93 1639.68 33.0568
6517.99 1468.79 1456.88 1686.11 1682.82 33.8867
6520.83 1485.82 1476.85 1742.43 1713.12 34.1179
6523.66 1475.95 1498.36 1710.82 1760.16 33.724
6526.5 1533.3 1477.38 1827.23 1732.41 34.1888
6529.34 1422.89 1496.53 1659.17 1757.63 31.6842
6532.17 1533.4 1456.78 1786.49 1702.82 33.2691
6535.01 1414.04 1476.96 1662.79 1714.51 31.6335
6537.85 1483.45 1483.45 1694.24 1721.92 33.2813
6540.68 1552.85 1517.95 1808.72 1743.58 34.2732
6543.52 1517.55 1509.67 1727.77 1744.72 33.9979
6546.36 1458.62 1482.8 1697.67 1696.81 32.2706
6549.19 1472.22 1471.38 1665 1699.65 32.1222
6552.03 1483.29 1465.01 1736.27 1687.01 31.9725
6554.86 1439.5 1485.57 1659.77 1728.23 31.663
6557.7 1533.91 1481.58 1788.65 1719.3 33.2966
6560.53 1471.34 1491.73 1709.48 1740.28 32.5444
6563.37 1469.94 1476.32 1722.72 1726 32.6546
6566.2 1487.7 1478.76 1745.79 1714.56 33.3616
6569.04 1478.64 1483.52 1675.16 1691.28 33.2385
6571.87 1484.22 1491.13 1652.88 1702.21 32.9255
6574.71 1510.52 1520.81 1778.6 1742.76 32.872
6577.54 1567.68 1503.68 1796.78 1739.14 33.6779
6580.38 1432.83 1485.28 1642.03 1714.35 32.5499
6583.21 1455.33 1476.58 1704.24 1706.51 33.4076
6586.04 1541.59 1481.71 1773.27 1710.88 35.4347
6588.88 1448.21 1461.98 1655.12 1679.58 34.0025
6591.71 1396.14 1425.14 1610.35 1642.06 33.0907
6594.54 1431.07 1449.6 1660.71 1670.6 33.5791
6597.38 1521.57 1471.35 1740.75 1684.67 34.4938
6600.21 1461.4 1494.23 1652.56 1700.05 33.4961
6603.04 1499.72 1493.66 1706.84 1705.9 33.9149
6605.88 1519.85 1488.86 1758.31 1717.12 34.562
6608.71 1447.01 1513.47 1686.21 1753.54 33.9435
6611.54 1573.55 1486.15 1816.11 1722.93 36.4282
6614.37 1437.9 1556.55 1666.47 1795.43 34.4388
6617.21 1658.21 1552.22 1903.7 1784.63 37.9662
6620.04 1560.56 1574.9 1783.73 1814.84 36.5618
6622.87 1505.94 1556.23 1757.09 1784.29 35.2669
6625.7 1602.18 1544.01 1812.04 1766.98 36.7663
6628.53 1523.91 1560.28 1731.81 1778.4 35.3166
6631.37 1554.75 1547.52 1791.36 1772.59 35.339
6634.2 1563.91 1544.49 1794.61 1768.16 35.9839
6637.03 1514.8 1558.31 1718.51 1805.15 35.4015
6639.86 1596.21 1565.11 1902.33 1820.29 36.8465
6642.69 1584.31 1624.08 1840.02 1910.77 36.7277
6645.52 1691.72 1655.95 1989.98 1925.68 38.6674
6648.35 1691.83 1672.35 1947.05 1946 38.465
6651.18 1633.5 1694.17 1900.96 1946.43 37.6546
6654.01 1757.18 1859.74 1991.28 2135.96 39.487
6656.84 2188.52 2147.54 2515.65 2473.82 44.932
6659.67 2496.91 2430.56 2914.52 2818.63 48.5906
6662.5 2606.25 2546.94 3025.71 2924.03 49.6467
6665.33 2537.67 2432.28 2831.86 2755.87 48.9272
6668.16 2152.91 2202.37 2410.04 2477.38 44.3296
6670.99 1916.55 1939.11 2190.26 2201.09 41.4388
6673.82 1747.89 1805.91 2002.99 2067.54 39.1985
6676.65 1753.3 1799.77 2009.37 2068.13 39.2724
6679.48 1898.14 1843.16 2192.05 2125.71 41.432
6682.31 1878.06 1899.16 2175.71 2191.57 41.122
6685.13 1921.3 1876.61 2206.95 2161.74 41.7387
6687.96 1830.47 1807.87 2102.56 2071.35 40.4694
6690.79 1671.86 1707.97 1904.53 1955.01 38.0127
6693.62 1621.58 1631.11 1857.94 1872.73 37.5813
6696.45 1599.91 1603.78 1855.71 1843.83 37.2209
6699.27 1589.86 1575.33 1817.85 1813.48 36.978
6702.1 1536.21 1598.44 1766.89 1840.09 36.072
6704.93 1669.26 1579.52 1935.52 1818.64 38.2606
6707.76 1533.11 1586.26 1753.52 1823.58 36.2773
6710.58 1556.43 1553.41 1781.69 1779.59 36.359
6713.41 1570.69 1576.71 1803.56 1801.05 36.7346
6716.24 1603.02 1600.66 1817.89 1823.38 37.1388
6719.06 1628.27 1608.02 1848.69 1850 37.8503
6721.89 1592.76 1613.34 1883.43 1865.62 37.0383
6724.72 1618.99 1593.03 1864.76 1853.75 37.4375
6727.54 1567.35 1595.98 1813.05 1836.46 36.6621
6730.37 1601.59 1550.68 1831.58 1790.47 36.9757
6733.19 1483.1 1531 1726.77 1752.3 35.5267
6736.02 1508.3 1511.4 1698.56 1725.97 35.815
6738.85 1542.81 1541.95 1752.57 1754.46 36.2321
6741.67 1574.73 1554.09 1812.25 1775.44 36.7267
6744.5 1544.72 1546.74 1761.5 1766.3 36.2588
6747.32 1520.77 1525.57 1725.15 1747.95 36.1211
6750.15 1511.23 1510.54 1757.2 1728.23 35.8486
6752.97 1499.62 1553.72 1702.33 1776.54 35.6538
6755.8 1650.31 1578.76 1870.09 1781.55 38.0614
6758.62 1586.35 1576.9 1772.24 1773.4 37.3327
6761.44 1494.03 1575.73 1677.87 1768.46 35.8746
6764.27 1646.79 1542.65 1855.27 1744.7 38.0188
6767.09 1487.12 1578.15 1700.98 1796.7 35.8853
6769.92 1600.54 1539.7 1833.84 1765.92 37.595
6772.74 1531.45 1554.35 1762.93 1785.82 36.4966
6775.56 1531.06 1527.63 1760.7 1743.13 36.419
6778.39 1520.37 1537.83 1705.75 1741.4 36.3501
6781.21 1562.06 1564.4 1757.77 1762.21 36.9072
6784.03 1610.77 1589.35 1823.12 1803.5 37.4985
6786.86 1595.23 1607.78 1829.6 1843.45 37.1271
6789.68 1617.33 1580.67 1877.62 1824.7 37.743
6792.5 1529.46 1585.84 1766.89 1821.08 36.3731
6795.32 1610.74 1585.55 1818.73 1799.28 37.78
6798.15 1616.45 1630.84 1812.23 1845.99 37.8325
6800.97 1665.31 1599.27 1907.02 1817.19 38.4551
6803.79 1516.03 1571.38 1732.33 1805.16 36.1574
6806.61 1532.79 1540.13 1776.14 1757.02 36.5229
6809.43 1571.57 1577.61 1762.6 1795.08 37.1553
6812.25 1628.46 1624.46 1846.48 1852.43 37.7475
6815.08 1673.36 1698.32 1948.21 1950.52 38.5243
6817.9 1793.15 1722.46 2056.87 1975.53 39.5421
6820.72 1700.87 1725.88 1921.53 1958.47 36.7076
6823.54 1683.63 1688.63 1897.02 1907.08 34.0954
6826.36 1681.38 1673.32 1902.69 1890.34 31.8178
6829.18 1654.96 1638.58 1871.3 1846.28 30.5615
6832 1579.4 1652.96 1764.84 1847.28 29.4329
6834.82 1724.51 1656.62 1905.7 1851.92 32.853
6837.64 1665.94 1642.48 1885.21 1847.86 33.3548
6840.46 1536.99 1570.3 1752.66 1778.11 32.716
6843.28 1507.97 1518.62 1696.47 1719.99 33.8108
6846.1 1510.9 1479.8 1710.84 1688.83 34.8942
6848.92 1420.53 1494.33 1659.18 1715.01 33.7633
6851.74 1551.57 1473.34 1775.02 1705.12 36.265
6854.56 1447.93 1499.74 1681.15 1717.55 33.217
6857.37 1499.71 1476.9 1696.48 1693.92 31.4565
6860.19 1483.07 1465.03 1704.14 1677.02 29.2847
6863.01 1412.32 1365.34 1630.44 1582.16 27.5427
6865.83 1200.62 1275.19 1411.9 1486.11 25.6152
6868.65 1212.63 1202.94 1416 1400 27.4022
6871.47 1195.58 1200.79 1372.09 1380.37 28.7327
6874.28 1194.17 1196.42 1353.01 1355.13 29.4295
6877.1 1199.52 1246.55 1340.3 1406.39 29.9218
6879.92 1345.96 1304.64 1525.84 1470.52 32.6353
6882.74 1368.44 1356.42 1545.42 1542.52 32.4183
6885.55 1354.85 1346.33 1556.3 1537.08 31.8999
6888.37 1315.7 1340.9 1509.52 1538.54 31.36
6891.19 1352.15 1342.13 1549.78 1523.42 32.1565
6894 1358.56 1358.04 1510.96 1533.61 32.3189
6896.82 1363.43 1354.59 1540.1 1518.16 32.2958
6899.64 1341.77 1338.59 1503.43 1515.53 31.8618
6902.45 1310.58 1344.44 1503.06 1526.39 31.4741
6905.27 1380.96 1378.79 1572.69 1561.26 32.2897
6908.08 1444.83 1426.88 1608.04 1609.34 32.9429
6910.9 1454.85 1468.92 1647.29 1666.2 32.5644
6913.72 1507.09 1463.94 1743.27 1675.38 33.3023
6916.53 1429.89 1464 1635.57 1675.88 31.2865
6919.35 1455.03 1431.63 1648.79 1610.6 30.8708
6922.16 1409.97 1455.61 1547.43 1634.02 29.9771
6924.98 1501.83 1439.29 1705.84 1617.55 32.6247
6927.79 1406.07 1445.22 1599.37 1625.94 32.2193
6930.6 1427.75 1424.15 1572.62 1593.14 33.2173
6933.42 1438.62 1433.45 1607.43 1574.07 33.3389
6936.23 1433.97 1435.18 1542.17 1588.43 32.8116
6939.05 1432.95 1428.02 1615.68 1579.32 32.32
6941.86 1417.13 1440.21 1580.09 1613.13 31.1737
6944.67 1470.56 1432.7 1643.62 1598.04 30.9193
6947.49 1410.42 1406.34 1570.41 1575.64 29.5523
6950.3 1338.03 1401.72 1512.89 1560.82 29.1549
6953.11 1456.71 1404.43 1599.16 1569.93 32.529
6955.93 1418.55 1439.71 1597.74 1609.65 33.0524
6958.74 1443.88 1438.84 1632.03 1622.16 34.3195
6961.55 1454.1 1452.28 1636.7 1632.79 34.3805
6964.37 1458.86 1442.83 1629.64 1630.66 34.1745
6967.18 1415.53 1431.87 1625.66 1613.33 32.7369
6969.99 1421.21 1430.78 1584.7 1615.68 32.3516
6972.8 1455.59 1445.37 1636.68 1629.74 32.2384
6975.61 1459.29 1463.63 1667.84 1658.65 31.5447
6978.42 1476 1463.11 1671.43 1649.4 32.158
6981.24 1454.05 1444.92 1608.92 1639.29 33.1764
6984.05 1404.73 1436.89 1637.53 1625.87 33.134
6986.86 1451.89 1413.87 1631.17 1618.26 34.7581
6989.67 1385 1436.68 1586.1 1625.47 33.9888
6992.48 1473.16 1436.05 1659.15 1617.63 35.8003
6995.29 1450 1444.66 1607.66 1623.21 35.3737
6998.1 1410.83 1438.94 1602.82 1618.66 33.9411
7000.91 1455.98 1405.59 1645.5 1599.52 34.5377
7003.72 1349.95 1395.39 1550.25 1579.46 32.373
7006.53 1380.24 1389.25 1542.62 1558.23 32.5776
7009.34 1437.56 1419.71 1581.81 1580.89 33.3906
7012.15 1441.31 1452.82 1618.25 1623.5 33.8882
7014.96 1479.59 1440.52 1670.44 1625.64 35.3441
7017.77 1400.65 1442.66 1588.22 1632.35 34.5279
7020.58 1447.75 1424.11 1638.38 1612.57 35.5379
7023.39 1423.94 1404.46 1611.12 1598.05 35.3146
7026.2 1341.7 1401.47 1544.65 1589.78 33.9274
7029 1438.76 1376.6 1613.56 1546.83 35.7158
7031.81 1349.35 1392.14 1482.27 1549.96 34.3545
7034.62 1388.29 1394.18 1554.05 1555.51 34.613
7037.43 1444.9 1392.77 1630.22 1568.78 35.2946
7040.24 1345.12 1407.74 1522.08 1570.47 33.1337
7043.04 1433.19 1401.39 1559.11 1557.48 34.0297
7045.85 1425.85 1403.45 1591.24 1551.76 33.6484
7048.66 1351.3 1397.53 1504.94 1554.79 32.5869
7051.47 1415.45 1390.05 1568.18 1538.68 34.1066
7054.27 1403.41 1393.2 1542.92 1552.29 34.3345
7057.08 1360.74 1385.97 1545.77 1555.7 33.9042
7059.89 1393.77 1368.75 1578.42 1543.66 34.5774
7062.69 1351.73 1402.1 1506.8 1582.86 33.8528
7065.5 1460.78 1392.84 1663.35 1575.84 35.7822
7068.31 1366.01 1406.99 1557.36 1600.04 34.0741
7071.11 1394.19 1357.88 1579.41 1552.58 34.4341
7073.92 1313.43 1375.79 1520.97 1569.62 33.0069
7076.72 1419.74 1390.66 1608.48 1601.57 34.741
7079.53 1438.8 1426.75 1675.25 1619.59 34.925
7082.33 1421.69 1416.74 1575.03 1612.74 34.4634
7085.14 1389.73 1398.07 1587.95 1572.2 33.9483
7087.94 1382.78 1385.2 1553.62 1572.44 33.9549
7090.75 1383.08 1382.13 1575.74 1559.68 34.2563
7093.55 1380.52 1370.9 1549.69 1561.62 34.4605
7096.36 1349.09 1364.54 1559.43 1539.69 34.0797
7099.16 1364.01 1345.32 1509.94 1520.9 34.6652
7101.97 1322.85 1335.04 1493.33 1497.77 33.7286
7104.77 1318.27 1334.84 1490.05 1513.94 33.7379
7107.57 1363.41 1363.19 1558.45 1549.97 34.2279
7110.38 1407.91 1347.05 1601.42 1521 35.0936
7113.18 1269.83 1339.24 1403.15 1507.78 32.7694
7115.98 1339.99 1324.64 1518.77 1482.01 34.3549
7118.79 1364.11 1357.98 1524.11 1532.77 34.856
7121.59 1369.83 1356.77 1555.43 1528.37 34.7467
7124.39 1336.39 1364.22 1505.57 1528.31 33.9154
7127.19 1386.46 1325.88 1523.94 1489.25 34.7068
7130 1254.79 1341.16 1438.23 1507.02 32.3633
7132.8 1382.23 1334.36 1558.9 1508.35 34.6091
7135.6 1366.07 1376.58 1527.91 1542.01 34.3272
7138.4 1381.44 1385.78 1539.22 1544.76 34.4464
7141.2 1409.84 1385.29 1567.16 1540.19 34.6389
7144 1364.58 1357.8 1514.21 1508.74 33.9692
7146.81 1298.99 1318.68 1444.85 1461.32 32.9848
7149.61 1292.47 1324.69 1424.9 1460.15 33.2231
7152.41 1382.62 1366.78 1510.71 1531.07 34.7798
7155.21 1425.26 1364.02 1657.6 1556.5 35.5172
7158.01 1284.18 1374.15 1501.18 1566.99 33.0077
7160.81 1413.02 1329.07 1542.19 1493.77 35.4221
7163.61 1290.02 1314.78 1437.94 1452.42 33.3452
7166.41 1241.31 1251.63 1377.13 1384.47 32.7317
7169.21 1223.57 1223.57 1338.33 1363.75 32.6099
7172.01 1205.84 1196.04 1375.8 1315 32.1683
7174.81 1158.72 1181.32 1230.87 1300.25 31.4699
7177.61 1179.39 1166.3 1294.1 1271.59 31.9909
7180.41 1160.8 1168.65 1289.81 1297.54 31.8804
7183.2 1165.75 1150.55 1308.71 1260.5 32.1445
7186 1125.11 1150.77 1182.96 1258.61 31.447
7188.8 1161.43 1119.48 1284.14 1221.5 32.1558
7191.6 1071.89 1116.29 1197.39 1228.04 30.8921
7194.4 1115.54 1109.91 1202.58 1211.33 31.533
7197.2 1142.3 1116.63 1234.03 1224.68 31.8949
7199.99 1092.06 1177.47 1237.44 1294 31.1839
7202.79 1298.06 1185.65 1410.54 1315.64 34.5545
7205.59 1166.82 1201.87 1298.95 1323.37 32.1163
7208.39 1140.74 1198.73 1260.63 1341.83 31.8685
7211.18 1288.62 1217.58 1465.91 1368.28 34.0752
7213.98 1223.39 1266.03 1378.29 1420.73 32.861
7216.78 1286.09 1267.85 1418 1398.45 33.9079
7219.57 1294.08 1261.23 1399.06 1366.73 33.9219
7222.37 1203.53 1233.64 1283.14 1348.88 32.1067
7225.17 1203.3 1188.92 1364.45 1315.65 31.8834
7227.96 1159.92 1163.09 1299.35 1301.74 31.0456
7230.76 1126.06 1176.61 1241.43 1273.15 28.1926
7233.55 1243.84 1212.74 1278.67 1282.25 26.7226
7236.35 1268.33 1205.04 1326.66 1258.04 23.8049
7239.14 1102.94 1163.99 1168.8 1224.42 19.251
7241.94 1120.69 1113.16 1177.8 1179.26 19.2792
7244.73 1115.84 1099.33 1191.18 1224.51 20.2991
7247.53 1061.46 1058.63 1304.55 1214.37 21.1789
7250.32 998.601 1074.67 1147.39 1250.24 22.0953
7253.12 1163.96 1088.98 1298.8 1221.09 27.0781
7255.91 1104.38 1104.03 1217.08 1224.05 27.6123
7258.71 1043.76 1093.68 1156.26 1208.12 27.8361
7261.5 1132.91 1088.41 1251.02 1207.31 29.9635
7264.29 1088.57 1081.03 1214.66 1194.93 29.2787
7267.09 1021.62 1092.58 1119.1 1186.27 25.5199
7269.88 1167.56 1076.13 1225.05 1165.53 24.3322
7272.67 1039.21 1110.33 1152.42 1202.78 19.7711
7275.47 1124.22 1095.23 1230.86 1217.82 20.373
7278.26 1122.26 1144.62 1270.17 1251.64 20.933
7281.05 1187.38 1150.42 1253.88 1279.26 22.8976
7283.84 1141.64 1135.46 1313.73 1273.7 23.3311
7286.63 1077.36 1095.56 1253.49 1278.14 24.3505
7289.43 1067.69 1108.16 1267.21 1277.32 25.7265
7292.22 1179.43 1109.63 1311.27 1260.33 28.4357
7295.01 1081.76 1142.29 1202.51 1257.22 26.8545
7297.8 1165.67 1120.97 1257.89 1211.4 27.7048
7300.59 1115.47 1133.46 1173.8 1217.23 26.5015
7303.38 1119.24 1089.98 1220 1183.07 26.8665
7306.17 1035.24 1125.03 1155.41 1196.35 25.261
7308.96 1220.6 1136.79 1213.64 1177.94 26.4541
7311.76 1154.54 1170.07 1164.78 1194.35 23.1439
7314.55 1135.06 1145.55 1204.62 1219.1 22.0116
7317.34 1147.04 1149.03 1287.91 1276.26 23.2224
7320.13 1165 1178.64 1336.25 1330.5 25.3464
7322.92 1223.88 1187.99 1367.34 1339.67 26.7872
7325.7 1175.1 1194.04 1315.43 1307.09 26.126
7328.49 1183.14 1179.11 1238.49 1294.07 26.4402
7331.28 1179.1 1228.1 1328.29 1309.47 26.3945
7334.07 1322.06 1205.28 1361.63 1285.91 26.5179
7336.86 1114.69 1242.27 1167.8 1284.27 21.1545
7339.65 1290.06 1197.3 1323.37 1255.95 23.2464
7342.44 1187.16 1198.16 1276.68 1318.17 22.839
7345.23 1117.27 1157.7 1354.45 1321.1 24.3185
7348.01 1168.68 1161.21 1332.19 1315.82 27.4671
7350.8 1197.67 1169.13 1260.83 1258.9 28.6963
7353.59 1141.05 1196.28 1183.67 1245.92 26.9631
7356.38 1250.1 1206.54 1293.27 1254.22 27.9825
7359.16 1228.46 1207.81 1285.73 1246.02 27.4633
7361.95 1144.88 1181.72 1159.05 1238.03 24.8309
7364.74 1171.83 1181.95 1269.33 1218.74 23.7259
7367.52 1229.14 1216.88 1227.83 1270.07 24.0784
7370.31 1249.66 1208 1313.07 1291.14 25.1959
7373.1 1145.2 1162.07 1332.53 1290.19 25.5903
7375.88 1091.35 1151.97 1224.98 1286.43 26.978
7378.67 1219.36 1154.12 1301.79 1263.36 31.3086
7381.46 1151.65 1170.74 1263.31 1268.15 30.5167
7384.24 1141.2 1161.86 1239.35 1246.79 29.7562
7387.03 1192.73 1180.86 1237.71 1240.84 29.2796
7389.81 1208.66 1188.23 1245.46 1234.98 28.7843
7392.6 1163.31 1195.6 1221.78 1227.03 27.0781
7395.38 1214.84 1198.85 1213.84 1231.86 26.7923
7398.17 1218.39 1196.35 1259.97 1222.63 26.052
7400.95 1155.81 1191.34 1194.09 1266.16 24.8647
7403.73 1199.81 1196.4 1344.4 1280.36 26.9592
7406.52 1233.57 1205.79 1302.58 1306.47 29.5242
7409.3 1183.99 1189.74 1272.42 1263.63 30.2721
7412.09 1151.67 1161.23 1215.89 1224.92 30.6248
7414.87 1148.03 1154.74 1186.46 1210.98 31.1462
7417.65 1164.53 1172.7 1230.61 1222.56 31.6586
7420.44 1205.55 1178.9 1250.61 1222.55 32.1382
7423.22 1166.61 1192.33 1186.42 1225.8 30.5619
7426 1204.84 1186.26 1240.37 1202.12 30.2712
7428.78 1187.35 1215.27 1179.58 1247.05 29.6234
7431.57 1253.63 1212.55 1321.21 1240.93 30.0612
7434.35 1196.68 1222.37 1222.01 1258.11 28.1033
7437.13 1216.8 1226.16 1231.1 1249.01 28.625
7439.91 1265.01 1230.22 1293.92 1258.06 30.2102
7442.69 1208.86 1228.12 1249.15 1282.98 30.6957
7445.48 1210.48 1212.97 1305.88 1271.54 31.7016
7448.26 1219.56 1226.13 1259.59 1283.16 32.4946
7451.04 1248.34 1213.43 1283.99 1254.43 33.4886
7453.82 1172.37 1217.73 1219.71 1252.85 31.8333
7456.6 1232.47 1207.75 1254.84 1233.9 32.2462
7459.38 1218.4 1212.75 1227.15 1234.09 31.0269
7462.16 1187.38 1216.99 1220.28 1243.06 29.5125
7464.94 1245.2 1231.48 1281.73 1265.68 29.5612
7467.72 1261.86 1206.41 1295.01 1228.14 28.992
7470.5 1112.17 1177.01 1107.68 1209.76 25.7393
7473.28 1157 1165.53 1226.58 1209.46 26.1931
7476.06 1227.42 1195.62 1294.13 1246.77 26.9374
7478.84 1202.45 1228.23 1219.59 1260.44 26.3143
7481.62 1254.81 1202.42 1267.61 1234.16 27.6927
7484.39 1149.99 1191.4 1215.27 1241.44 27.0671
7487.17 1169.38 1181.09 1241.45 1254.82 28.7314
7489.95 1223.89 1183.16 1307.76 1235.72 30.7542
7492.73 1156.22 1167.61 1157.96 1221.06 29.9526
7495.51 1122.72 1130.97 1197.47 1173.68 29.9218
7498.28 1113.98 1130.11 1165.6 1197.48 30.5639
7501.06 1153.63 1150.79 1229.36 1203.52 31.3746
7503.84 1184.77 1162.77 1215.59 1214.12 32.4139
7506.62 1149.9 1186.04 1197.41 1231.97 31.5757
7509.39 1223.44 1175.99 1282.92 1221.27 32.9315
7512.17 1154.64 1199.42 1183.47 1230.8 31.2614
7514.95 1220.17 1198.78 1225.99 1205.14 30.4786
7517.72 1221.52 1220.25 1205.96 1218.61 27.4452
7520.5 1219.07 1221.94 1223.88 1198.58 25.0386
7523.27 1225.24 1170.46 1165.91 1187.52 24.4874
7526.05 1067.07 1178.91 1172.77 1218.09 22.4246
7528.83 1244.4 1146.09 1315.59 1233.48 27.044
7531.6 1126.8 1180.52 1212.09 1247.13 26.8554
7534.38 1170.34 1129.18 1213.71 1170.08 29.3415
7537.15 1090.41 1128.83 1084.44 1156.22 28.9296
7539.93 1125.73 1124.8 1170.5 1135.74 30.1686
7542.7 1158.27 1131.67 1152.27 1161.09 31.1821
7545.47 1111.02 1134.69 1160.5 1153.62 30.6478
7548.25 1134.76 1129.7 1148.08 1146.52 30.7694
7551.02 1143.31 1130.93 1130.99 1129.13 30.5353
7553.8 1114.72 1126.8 1108.33 1123.28 29.1551
7556.57 1122.37 1127.76 1130.53 1123.97 29.0116
7559.34 1146.18 1151.34 1133.05 1171.93 30.1602
7562.12 1185.46 1156.9 1252.21 1183.9 30.4423
7564.89 1139.05 1180.28 1166.43 1205.44 27.8662
7567.66 1216.31 1173.49 1197.69 1165.33 27.3459
7570.43 1165.12 1169.66 1131.88 1151.62 25.7673
7573.21 1127.55 1126.51 1125.3 1148.15 25.7371
7575.98 1086.86 1097.1 1187.28 1135.92 26.8825
7578.75 1076.89 1103.82 1095.18 1156.62 27.7253
7581.52 1147.72 1112.54 1187.4 1134.29 29.2483
7584.29 1113.01 1109.57 1120.29 1137.84 28.699
7587.07 1067.99 1042.44 1105.85 1079.77 28.1739
7589.84 946.324 938.477 1013.19 976.858 26.9855
7592.61 801.114 768.42 811.537 782.716 24.1604
7595.38 557.823 619.02 523.422 591.939 18.65
7598.15 498.125 476.503 440.856 427.402 17.8402
7600.92 373.561 384.134 317.926 349.116 15.7415
7603.69 280.717 346.318 288.566 316.895 13.872
7606.46 384.677 358.511 344.192 342.095 18.2579
7609.23 410.138 452.596 393.526 424.202 18.2977
7612 562.972 568.046 534.888 560.754 20.9091
7614.77 731.028 676.732 753.848 669.688 23.4431
7617.54 736.196 722.479 720.329 729.164 22.8457
7620.31 700.213 710.292 713.314 709.888 21.8954
7623.08 694.467 670.366 696.02 668.194 21.668
7625.84 616.419 645.158 595.249 622.673 19.9599
7628.61 624.59 621.883 576.749 597.209 20.4397
7631.38 624.641 616.946 619.63 595.85 21.3554
7634.15 601.607 634.968 591.17 622.23 21.9821
7636.92 678.656 673.99 655.888 660.74 24.2804
7639.68 741.707 698.854 735.16 694.957 25.914
7642.45 676.199 716.661 693.823 727.18 24.3403
7645.22 732.078 732.704 752.557 728.127 25.2314
7647.99 789.834 778.287 738.002 768.678 25.7904
7650.75 812.949 819.981 815.475 813.968 25.6377
7653.52 857.161 857.547 888.427 867.957 25.886
7656.28 902.53 907.465 899.969 909.049 26.027
7659.05 962.704 939.625 938.752 934.027 26.6898
7661.82 953.64 960.95 963.361 937.951 26.4105
7664.58 966.505 963.76 911.739 952.752 27.2783
7667.35 971.136 988.145 983.155 975.155 28.0764
7670.11 1026.8 1003.19 1030.57 994.41 30.1548
7672.88 1011.65 1030.48 969.505 1004.64 30.0402
7675.64 1052.99 1021.94 1013.84 978.738 30.9835
7678.41 1001.18 1029.41 952.867 991.179 29.6071
7681.17 1034.05 998.333 1006.83 985.876 29.9524
7683.94 959.762 1013.33 997.931 996.411 28.1955
7686.7 1046.16 1039.71 984.473 1013.2 29.5049
7689.47 1113.2 1060.25 1057.2 1005.68 30.6019
7692.23 1021.39 1042.15 975.358 1001.16 28.5911
7694.99 991.86 1028.84 970.927 988.89 27.9007
7697.76 1073.26 1028.12 1020.38 996.813 29.0708
7700.52 1019.23 1007.22 999.128 979.948 28.5371
7703.28 929.161 1008.97 920.33 977.057 25.6643
7706.04 1078.53 1052.57 1011.71 986.092 25.0795
7708.81 1150.02 1089.86 1026.23 989.049 22.3986
7711.57 1041.02 1094.96 929.201 980.103 17.9016
7714.33 1093.83 1036.97 984.875 954.735 18.1853
7717.09 976.042 994.537 950.13 967.012 17.0092
7719.85 913.739 937.878 966.03 965.471 17.865
7722.62 923.853 938.765 980.255 963.049 20.166
7725.38 978.702 973.306 942.863 972.715 23.0857
7728.14 1017.36 991.045 995.027 964.894 25.7464
7730.9 977.069 1005.06 956.792 979.496 26.2744
7733.66 1020.76 1006.82 986.67 972.69 27.9377
7736.42 1022.64 1019.7 974.609 971.46 28.2106
7739.18 1015.7 978.737 953.102 965.652 28.3187
7741.94 897.875 987.507 969.245 949.947 23.7696
7744.7 1048.95 977.561 927.494 929.603 22.1169
7747.46 985.86 1017.88 892.071 914.931 18.5384
7750.22 1018.84 995.529 925.228 947.882 18.479
7752.98 981.886 991.313 1026.35 972.223 18.6353
7755.74 973.211 975.708 965.092 1001.52 19.9488
7758.5 972.028 963.738 1013.13 984.717 21.1851
7761.25 945.975 956.958 975.927 991.732 22.6258
7764.01 952.872 970.048 986.136 982.637 24.6658
7766.77 1011.3 1000.1 985.849 994.341 26.8005
7769.53 1036.13 1001.99 1011.04 978.209 27.3801
7772.29 958.552 987.245 937.738 944.183 25.3004
7775.04 967.056 937.902 883.772 880.178 24.4047
7777.8 888.097 923.412 819.025 860.592 22.652
7780.56 915.082 896.496 878.979 864.655 23.3785
7783.31 886.309 909.277 895.962 893.041 23.5966
7786.07 926.441 962.282 904.183 901.484 23.5776
7788.83 1074.1 990.98 904.306 888.265 23.3314
7791.58 972.403 1016.43 856.307 911.765 19.9059
7794.34 1002.8 967.11 974.681 910.903 20.3584
7797.1 926.124 935.807 901.72 927.165 20.8503
7799.85 878.495 936.233 905.093 921.269 22.141
7802.61 1004.08 916.189 956.993 890.231 24.8765
7805.36 865.99 945.499 808.608 889.084 22.0226
7808.12 966.425 903.448 901.65 885.976 23.548
7810.87 877.929 877.344 947.669 891.787 22.2042
7813.63 787.679 856.35 826.043 857.277 19.522
7816.38 903.442 893.384 798.119 836.608 19.1975
7819.13 989.031 958.732 885.663 853.167 19.2051
7821.89 983.724 968.283 875.72 895.237 19.1721
7824.64 932.094 922.701 924.329 878.611 20.2509
7827.4 852.284 911.534 835.784 884.534 21.5917
7830.15 950.225 912.54 893.489 878.295 26.0206
7832.9 935.11 928.414 905.612 880.599 26.878
7835.65 899.906 920.059 842.696 885.871 24.521
7838.41 925.16 926.05 909.305 886.926 23.7329
7841.16 953.085 933.69 908.778 912.609 23.6494
7843.91 922.826 954.306 919.743 915.442 22.5687
7846.66 987.007 971.856 917.806 907.86 21.241
7849.42 1005.73 987.368 886.031 891.817 19.0941
7852.17 969.362 934.959 871.613 842.415 17.072
7854.92 829.779 868.99 769.601 802.987 14.7386
7857.67 807.829 835.322 767.748 781.842 15.5234
7860.42 868.359 843.733 808.176 810.344 17.7938
7863.17 855.012 867.569 855.109 823.696 18.4542
7865.92 879.335 882.346 807.803 814.487 18.8884
7868.67 912.691 882.877 780.55 803.974 19.5077
7871.42 856.604 899.116 823.569 836.879 18.7293
7874.17 928.054 885.646 906.519 853.523 20.7073
7876.92 872.28 890.183 830.481 866.366 20.0248
7879.67 870.214 870.224 862.099 856.151 20.2006
7882.42 868.178 861.351 875.873 825.06 20.1503
7885.17 845.662 883.744 737.209 839.02 19.3645
7887.92 937.393 871.691 903.978 790.238 20.6335
7890.67 832.017 854.481 729.528 824.377 19.2679
7893.42 794.033 806.701 839.625 788.642 20.2291
7896.16 794.052 802.312 796.772 825.009 22.2966
7898.91 818.851 826.873 838.629 823.447 24.6226
7901.66 867.717 817.235 834.941 812.374 26.3009
7904.41 765.137 807.594 763.552 771.434 22.5765
7907.15 789.929 847.177 715.809 776.171 18.3599
7909.9 986.465 838.031 849.152 764.811 18.5197
7912.65 737.699 891.554 729.471 795.599 12.9376
7915.39 950.499 855.607 808.174 813.737 16.1322
7918.14 878.624 885.713 903.566 829.224 16.1505
7920.89 828.014 872.331 775.933 873.25 16.7154
7923.63 910.354 869.591 940.25 854.975 20.0278
7926.38 870.405 895.461 848.743 857.177 20.26
7929.12 905.623 879.466 782.537 831.9 21.527
7931.87 862.371 902.489 864.42 836.331 21.0111
7934.62 939.472 884.68 862.035 843.392 24.2119
7937.36 852.197 879.159 803.721 823.122 24.3616
7940.1 845.808 847.645 803.609 786.452 25.1738
7942.85 844.932 876.203 752.026 789.281 24.1237
7945.59 937.871 881.488 812.208 775.484 24.5197
7948.34 861.662 846.705 762.22 768.969 22.5761
7951.08 740.583 803.407 732.48 754.516 20.4801
7953.83 807.976 794.368 768.847 767.887 23.4644
7956.57 834.544 837.802 802.334 788.714 23.2844
7959.31 870.885 860.588 794.962 782.408 20.3705
7962.05 876.336 864.061 749.926 768.816 18.2791
7964.8 844.963 819.567 761.56 734.209 16.7497
7967.54 737.402 795.768 691.14 748.32 16.1362
7970.28 804.94 774.829 792.26 738.439 19.6363
7973.02 782.146 798.343 731.917 752.745 20.0431
7975.77 807.943 810.981 734.059 754.418 20.0792
7978.51 842.854 821.66 797.279 777.563 20.1252
7981.25 814.183 790.17 801.351 769.61 20.1698
7983.99 713.473 794.653 710.2 767.003 19.4037
7986.73 856.303 835.736 789.459 742.535 20.7081
7989.47 937.431 917.201 727.945 734.574 19.4182
7992.21 957.867 893.34 686.319 713.684 18.3466
7994.95 784.72 831.887 726.789 714.894 15.8352
7997.69 753.074 768.741 731.574 734.958 17.6278
8000.43 768.43 769.882 746.511 734.548 20.8585
8003.17 788.143 782.609 725.558 736.447 24.0277
8005.91 791.254 796.376 737.272 728.812 25.1414
8008.65 809.732 802.839 723.605 745.811 23.7878
8011.39 807.532 794.659 776.558 746.492 22.1851
8014.13 766.712 752.087 739.314 733.445 20.3183
8016.87 682.017 744.378 684.464 721.519 18.7709
8019.61 784.405 732.65 740.78 691.41 19.5379
8022.34 731.529 804.636 648.985 718.408 16.5576
8025.08 897.973 806.615 765.457 702.351 18.8697
8027.82 790.341 828.927 692.611 751.34 17.4596
8030.56 798.468 754.836 795.951 715.152 19.8359
8033.29 675.699 739.655 656.894 717.869 19.8738
8036.03 744.798 731.547 700.762 686.605 23.7504
8038.77 774.144 761.763 702.157 714.064 25.8968
8041.51 766.347 768.51 739.274 715.666 25.7158
8044.24 765.038 767.246 705.565 715.399 25.2742
8046.98 770.353 780.962 701.359 692.649 23.7667
8049.71 807.494 805.909 671.023 711.908 23.5935
8052.45 839.878 797.721 763.341 724.182 23.7287
8055.18 745.792 784.843 738.182 725.886 21.2288
8057.92 768.86 740.229 676.134 672.774 20.553
8060.65 706.036 753.564 604.005 659.494 18.6349
8063.39 785.797 734.629 698.343 679.87 20.4122
8066.12 712.056 761.653 737.263 728.556 20.5267
8068.86 787.107 763.613 750.062 741.613 24.3377
8071.59 791.678 780.308 737.515 734.046 25.4694
8074.33 762.141 779.689 714.561 707.995 25.6826
8077.06 785.248 773.405 671.91 694.687 25.9951
8079.79 772.826 783.234 697.591 712.301 25.8794
8082.53 791.628 775.006 767.402 742.87 26.2828
8085.26 760.564 773.906 763.616 755.172 25.4859
8087.99 769.525 785.805 734.498 757.98 25.3986
8090.73 827.326 798.64 775.825 741.437 25.7935
8093.46 799.069 800.545 713.988 732.731 24.9195
8096.19 775.241 772.822 708.38 704.474 23.8221
8098.92 744.155 728.414 691.053 689.631 22.5585
8101.65 665.845 728.319 669.458 682.816 20.3372
8104.38 774.958 731.96 687.935 679.011 23.4596
8107.12 755.078 743.228 679.639 675.541 23.9231
8109.85 699.648 740.848 659.049 675.703 23.8981
8112.58 767.819 734.797 688.42 665.835 26.2255
8115.31 736.923 779.209 650.036 689.96 25.8415
8118.04 832.886 765.578 731.426 673.603 28.0696
8120.77 726.924 769.052 639.349 670.996 26.0034
8123.5 747.347 744.84 642.213 647.231 26.4843
8126.23 760.249 736.875 660.13 647.196 26.5147
8128.96 703.03 739.294 639.244 657.366 25.1131
8131.69 754.602 725.42 672.724 645.758 26.3408
8134.42 718.628 734.384 625.305 643.097 25.0853
8137.14 729.921 704.059 631.262 616.262 24.8021
8139.87 663.629 687.135 592.218 612.949 23.0163
8142.6 667.855 663.659 615.367 596.771 23.1145
8145.33 659.493 680.332 582.729 614.486 22.8826
8148.06 713.65 679.136 645.362 617.336 24.4445
8150.78 664.265 670.524 623.916 619.662 23.8316
8153.51 633.657 649.408 589.708 592.708 23.6301
8156.24 650.303 657.753 564.5 582.643 24.3237
8158.97 689.301 656.958 593.72 585.099 25.5962
8161.69 631.272 654.915 597.076 584.975 24.4086
8164.42 644.172 653.557 564.129 582.551 24.6429
8167.15 685.227 669.261 586.449 570.517 25.6025
8169.87 678.384 675.181 560.973 578.184 25.4694
8172.6 661.931 653.396 587.129 574.228 25.0472
8175.32 619.872 649.549 574.582 592.131 23.9138
8178.05 666.845 666.547 614.681 605.262 24.772
8180.77 712.925 676.12 626.522 606.797 26.2294
8183.5 648.59 661.36 579.188 583.596 24.0468
8186.22 622.564 636.408 545.078 560.032 23.1118
8188.95 638.07 641.356 555.829 569.981 23.3058
8191.67 663.433 657.861 609.035 580.91 24.0209
8194.4 672.079 661.088 577.867 587.65 24.0194
8197.12 647.753 661.568 576.047 590.347 23.5087
8199.84 664.871 671.844 617.126 607.945 24.3769
8202.57 702.908 689.649 630.663 608.716 25.3226
8205.29 701.169 693.348 578.359 593.606 25.6108
8208.01 675.967 688.309 571.798 587.687 24.8329
8210.73 687.79 675.977 612.905 583.681 25.0061
8213.46 664.173 677.234 566.339 597.113 24.6418
8216.18 679.738 661.039 612.096 574.784 25.1326
8218.9 639.208 643.958 545.916 554.678 24.3023
8221.62 612.93 616.432 506.022 525.556 23.8455
8224.34 597.159 566.695 524.731 483.03 23.6218
8227.06 489.996 559.537 418.336 480.385 21.0092
8229.79 591.456 578.374 498.087 491.806 23.8916
8232.51 653.672 641.697 558.995 539.615 25.2849
8235.23 679.964 680.481 561.762 564.326 25.5853
8237.95 707.806 733.824 572.221 586.653 25.9009
8240.67 813.703 764.917 625.976 607.603 27.7507
8243.39 773.242 762.898 624.613 624.186 27.0724
8246.11 701.748 722.709 621.969 621.34 25.1576
8248.83 693.136 685.648 617.439 609.17 24.7081
8251.54 662.06 661.982 588.101 584.809 24.1784
8254.26 630.751 653.352 548.887 572.685 23.7083
8256.98 667.244 652.027 581.066 567.868 24.7939
8259.7 658.085 676.078 573.65 578.507 24.6889
8262.42 702.903 669.367 580.806 577.382 25.6965
8265.14 647.113 673.597 577.691 584.508 24.4128
8267.85 670.776 677.987 595.028 599.972 24.9335
8270.57 716.073 685.876 627.199 603.24 25.7155
8273.29 670.781 706.995 587.493 604.968 22.159
8276.01 734.132 698.526 600.211 574.767 20.3594
8278.72 690.665 663.028 536.596 530.73 16.828
8281.44 564.287 652.955 455.381 513.573 12.7355
8284.16 703.914 618.9 548.741 507.787 14.5229
8286.87 588.499 615.308 519.24 557.68 12.2269
8289.59 553.511 586.099 605.059 581.334 11.8358
8292.3 616.287 610.334 619.703 584.393 13.3865
8295.02 661.204 673.748 528.418 590.017 13.9016
8297.73 743.754 727.789 621.929 599.66 15.0195
8300.45 778.408 689.886 648.633 621.24 16.1591
8303.16 547.497 659.598 593.159 635.796 13.252
8305.88 652.889 634.223 665.596 615.146 17.4745
8308.59 702.283 688.014 586.685 620.687 19.5906
8311.31 708.87 686.676 609.782 595.713 20.1672
8314.02 648.876 672.126 590.672 577.129 19.7585
8316.73 658.633 654.147 530.933 566.358 21.6201
8319.45 654.934 661.148 577.47 569.835 22.7644
8322.16 669.878 674.179 601.103 590.222 24.2998
8324.87 697.726 679.293 592.092 599.22 25.6195
8327.58 670.273 689.04 604.464 593.293 24.9079
8330.3 699.12 664.309 583.323 570.448 25.9915
8333.01 623.536 643.543 523.559 550.699 23.5912
8335.72 607.974 619.628 545.217 538.524 21.6111
8338.43 627.374 662.686 546.798 504.648 16.6605
8341.14 752.71 675.928 421.931 484.968 14.3369
8343.85 647.699 731.399 486.174 516.193 10.7363
8346.56 793.788 655.92 640.474 578.429 12.3841
8349.28 526.271 645.312 608.637 641.578 9.15344
8351.99 615.877 587.029 675.623 573.1 12.0331
8354.7 618.938 616.245 435.038 589.202 13.7216
8357.41 613.92 617.568 656.943 544.992 15.6138
8360.12 619.846 640.789 542.995 577.728 17.5225
8362.82 688.603 674.551 533.245 550.857 19.8943
8365.53 715.205 707.399 576.332 586.428 20.6413
8368.24 718.389 705.005 649.709 611.605 21.6286
8370.95 681.422 697.783 608.773 627.461 22.4734
8373.66 693.54 679.334 623.9 605.247 23.8035
8376.37 663.04 705.049 583.068 601.301 21.5365
8379.08 758.567 709.492 596.935 565.509 21.0945
8381.78 706.869 737.903 516.523 546.467 18.3675
8384.49 748.273 705.225 525.943 529.84 19.2421
8387.2 660.534 688.818 547.054 551.799 18.8335
8389.91 657.648 665.59 582.399 580.475 20.7619
8392.61 678.588 732.35 611.971 604.142 20.3148
8395.32 860.815 783.301 618.055 597.141 19.2291
8398.03 810.499 806.91 561.398 561.703 15.5448
8400.73 749.415 727.87 505.657 555.661 13.6994
8403.44 623.695 630.956 599.929 555.09 12.6617
8406.14 519.757 598.331 559.684 576.522 13.3808
8408.85 651.542 635.494 569.952 560.548 19.3204
8411.55 735.184 690.163 552.009 551.662 20.3556
8414.26 683.763 699.599 533.025 531.593 17.5152
8416.96 679.849 649.107 509.745 530.56 16.7453
8419.67 583.709 643.414 548.911 552.444 15.8729
8422.37 666.685 634.303 598.677 546.686 19.1573
8425.08 652.517 725.707 492.47 546.598 16.131
8427.78 857.92 742.369 548.648 512.36 16.514
8430.48 716.671 780.882 495.962 530.052 12.5278
8433.19 768.057 681.433 545.545 517.27 13.5077
8435.89 559.571 640.507 510.302 544.45 12.1245
8438.59 593.893 601.345 577.503 542.112 16.3897
8441.29 650.572 623.409 538.531 555.414 21.4227
8444 625.761 641.638 550.207 556.189 22.8478
8446.7 648.581 656.195 579.83 550.255 21.8094
8449.4 694.243 670.642 520.727 554.297 19.5888
8452.1 669.103 676.77 562.333 550.998 17.3765
8454.8 666.963 645.568 569.935 586.988 16.9848
8457.5 600.638 643.565 628.695 576.984 16.734
8460.2 663.096 677.376 532.321 543.081 17.3719
8462.91 768.394 728.312 468.227 488.251 16.7177
8465.61 753.447 721.728 464.204 469.953 14.7591
8468.31 643.343 673.332 477.428 490.441 12.6735
8471.01 623.205 633.234 529.69 524.109 14.4764
8473.7 633.155 631.813 565.209 543.1 18.0159
8476.4 639.078 662.078 534.401 569.303 21.1107
8479.1 714.001 672.844 608.298 554.413 25.288
8481.8 665.452 668.803 520.539 546.566 24.8905
8484.5 626.956 651.831 510.861 530.059 24.0252
8487.2 663.086 663.771 558.778 549.245 23.7525
8489.9 701.271 681.059 578.096 547.624 22.1699
8492.59 678.82 695.406 505.998 534.007 19.735
8495.29 706.128 666.983 517.928 502.435 19.7267
8497.99 616.001 676.66 483.38 521.936 17.8759
8500.69 707.85 696.457 564.499 525.771 18.7829
8503.38 765.52 709.208 529.434 532.958 18.4616
8506.08 654.256 691.315 504.94 523.861 15.2672
8508.78 654.168 633.855 537.21 495.741 15.9976
8511.47 593.14 627.737 445.072 501.604 17.1268
8514.17 635.903 630.761 522.53 523.839 21.2458
8516.86 663.239 644.57 603.916 546.526 23.8951
8519.56 634.569 650.91 513.132 554.626 24.1254
8522.25 654.921 657.781 546.829 536.177 24.4112
8524.95 683.854 650.841 548.569 540.484 25.1643
8527.64 613.747 649.423 526.054 536.867 24.089
8530.34 650.668 653.785 535.978 544.562 24.6981
8533.03 696.941 694.309 571.655 562.641 25.585
8535.73 735.317 707.084 580.291 567.422 24.7674
8538.42 688.993 700.388 550.319 550.399 22.6412
8541.11 676.854 686.539 520.586 532.083 21.8564
8543.81 693.771 693.13 525.344 540.716 21.6686
8546.5 708.765 705.604 576.216 550.816 20.7507
8549.19 714.277 715.016 550.888 566.402 20.2445
8551.89 722.006 681.148 572.101 548.906 20.3408
8554.58 607.161 660.624 523.727 536.173 19.1496
8557.27 652.706 647.088 512.689 520.75 22.4214
8559.96 681.397 675.539 525.832 531.371 24.7184
8562.65 692.515 678.536 555.592 531.292 25.6503
8565.34 661.696 669.557 512.453 529.097 24.9938
8568.03 654.461 679.774 519.247 537.001 25.1578
8570.73 723.165 692.237 579.304 540.621 26.3943
8573.42 699.084 705.821 523.313 540.99 25.6582
8576.11 695.213 679.029 520.353 519.15 25.3317
8578.8 642.79 662.852 513.785 516.774 24.0937
8581.49 650.553 655.349 516.184 524.253 24.6004
8584.17 672.704 674.43 542.789 528.427 24.3889
8586.86 700.032 697.928 526.309 549.886 24.413
8589.55 721.048 705.552 580.56 561.086 24.3154
8592.24 695.574 699.135 576.389 571.259 22.9986
8594.93 680.783 681.012 556.828 548.103 22.3672
8597.62 666.68 685.879 511.09 536.228 21.7349
8600.31 710.174 692.234 540.765 531.473 22.9184
8602.99 699.849 685.299 542.564 532.575 23.6876
8605.68 645.874 654.762 514.397 513.688 23.4231
8608.37 618.563 647.413 484.102 509.58 23.0045
8611.06 677.803 670.243 530.239 507.704 23.9649
8613.74 714.363 704.62 508.771 524.344 23.8225
8616.43 721.694 715.01 534.023 544.264 22.7523
8619.11 708.973 695.734 589.998 535.68 21.2021
8621.8 656.534 689.843 483.019 537.234 18.6684
8624.49 704.021 672.465 538.686 506.302 18.722
8627.17 656.84 666.81 497.201 507.986 17.0072
8629.86 639.568 646.332 488.071 492.751 16.3125
8632.54 642.589 651.578 492.981 495.523 16.2697
8635.23 672.579 702.994 505.517 534.776 17.1773
8637.91 793.815 719.235 605.829 560.926 20.4034
8640.6 691.312 703.654 571.432 569.607 19.2975
8643.28 625.835 658.436 531.559 539.02 18.7764
8645.96 658.162 642.193 514.071 503.313 20.1258
8648.65 642.583 684.529 464.309 526.894 19.027
8651.33 752.843 690.223 602.304 526.948 20.2498
8654.01 675.243 715.636 514.23 558.257 17.5397
8656.69 718.821 712.301 558.237 533.642 18.0378
8659.38 742.837 710.483 528.458 546.391 18.4162
8662.06 669.79 687.347 552.479 528.831 16.8479
8664.74 649.413 643.046 505.557 521.603 16.6308
8667.42 609.933 619.423 506.775 489.533 16.184
8670.1 598.923 607.283 456.267 485.297 16.4072
8672.79 612.992 585.604 492.848 459.019 17.2033
8675.47 544.898 586.704 427.943 472.093 16.1615
8678.15 602.222 565.834 495.487 446.653 18.0383
8680.83 550.383 582.804 416.531 458.621 17.507
8683.51 595.808 576.174 463.844 449.47 19.2745
8686.19 582.332 620.739 468.036 477.801 19.4251
8688.87 684.076 656.481 501.524 510.753 22.7304
8691.55 703.036 687.297 562.699 533.171 23.627
8694.23 674.778 678.157 535.29 531.991 23.3855
8696.9 656.659 679.367 497.983 515.76 23.0327
8699.58 706.664 708.152 514.006 534.68 24.1262
8702.26 761.134 717.082 592.05 537.11 25.2445
8704.94 683.447 717.218 505.274 540.894 23.3054
8707.62 707.073 702.07 525.357 515.604 24.2833
8710.29 715.691 692.136 516.181 510.353 24.4982
8712.97 653.643 682.133 489.522 506.746 23.6182
8715.65 677.065 664.367 514.536 495.516 24.4998
8718.33 662.393 697.08 482.492 522.607 24.5258
8721 751.78 694.086 570.792 514.57 26.7372
8723.68 668.085 710.719 490.425 527.073 24.7312
8726.35 712.293 698.118 520.002 522.187 25.499
8729.03 713.975 694.612 556.135 512.379 25.6952
8731.71 657.567 677.608 461.001 503.645 24.4871
8734.38 661.281 671.815 493.8 488.364 24.6735
8737.06 696.595 672.429 510.29 497.794 25.43
8739.73 659.41 677.31 489.291 492.573 24.3711
8742.41 675.924 694.373 478.139 510.257 24.7839
8745.08 747.786 715.688 563.341 523.357 26.1237
8747.75 723.354 720.103 528.592 540.005 25.7045
8750.43 689.17 695.188 528.083 521.715 24.8364
8753.1 673.041 685.201 508.47 527.894 23.9008
8755.77 693.392 741.534 547.13 569.975 21.6724
8758.45 858.169 778.386 654.325 573.356 20.2856
8761.12 783.598 812.317 518.614 607.901 15.3392
8763.79 795.184 815.08 650.763 609.45 13.5493
8766.46 866.458 809.869 658.973 650.634 13.5073
8769.14 767.963 762.497 642.167 614.458 12.0682
8771.81 653.07 702.252 542.235 624.075 10.8514
8774.48 685.722 661.033 687.821 579.946 12.0023
8777.15 644.306 667.976 509.783 546.867 11.1979
8779.82 673.901 652.37 442.997 482.02 11.3922
8782.49 638.904 612.404 493.282 504.487 11.2935
8785.16 524.407 570.496 577.181 546.53 11.0193
8787.83 548.178 575.057 569.126 541.981 13.8537
8790.5 652.587 613.727 479.635 508.842 16.993
8793.17 640.416 617.428 477.765 464.156 16.5307
8795.84 559.283 555.997 435.069 431.111 14.9539
8798.51 468.293 528.368 380.497 427.436 14.3286
8801.18 557.529 547.07 466.742 441.172 18.9569
8803.85 615.389 608.709 476.277 482.427 22.5783
8806.52 653.209 639.271 504.262 494.914 24.1278
8809.18 649.214 651.5 504.203 505.346 23.6971
8811.85 652.077 660.355 507.571 505.375 23.4453
8814.52 679.774 660.647 504.349 497.333 23.9295
8817.19 650.09 653.255 480.078 510.338 23.4824
8819.85 629.901 633.096 546.585 574.453 22.4923
8822.52 619.296 722.344 696.697 672.159 17.2732
8825.19 917.834 852.388 773.195 732.804 16.5196
8827.85 1020.03 948.013 728.519 652.249 14.3546
8830.52 906.173 855.18 455.034 512.834 11.7181
8833.18 639.333 704.173 354.949 465.65 8.69161
8835.85 567.013 574.987 586.966 444.119 8.8534
8838.51 518.615 535.533 390.442 453.074 9.12403
8841.18 520.97 534.04 381.812 412.506 10.1231
8843.84 562.535 540.638 465.264 445.756 12.8454
8846.51 538.408 591.926 490.191 497.895 14.8842
8849.17 674.836 625.528 538.229 512.16 18.6717
8851.84 663.339 663.606 508.059 523.463 18.1256
8854.5 652.643 644.692 524.099 510.658 18.103
8857.16 618.093 622.865 499.816 472.701 18.5356
8859.83 597.858 591.745 394.189 457.805 20.071
8862.49 559.284 630.333 479.41 487.861 19.5767
8865.15 733.857 703.11 589.985 547.323 21.0625
8867.81 816.189 743.802 572.574 553.07 19.4165
8870.48 681.361 713.313 496.65 481.907 15.3255
8873.14 642.389 671.296 376.499 449.411 14.8692
8875.8 690.137 652.821 475.084 463.891 18.1931
8878.46 625.936 674.078 540.089 560.401 19.9069
8881.12 706.16 703.566 666.03 633.917 22.1919
8883.78 778.603 801.465 695.634 646.886 17.8589
8886.44 919.632 830.903 578.993 601.252 15.9982
8889.1 794.475 789.281 529.128 489.888 12.5193
8891.76 653.738 622.324 361.544 407.718 10.609
8894.42 418.758 530.651 332.481 386.791 8.57545
8897.08 519.457 517.354 466.349 462.104 13.8695
8899.74 613.846 619.173 587.48 526.03 18.4249
8902.4 724.215 701.916 524.26 538.59 18.3001
8905.06 767.688 744.032 504.03 475.715 16.7711
8907.72 740.192 676.163 398.854 437.859 15.5427
8910.37 520.61 616.867 410.693 467.655 12.2734
8913.03 589.799 551.83 593.417 514.982 16.2566
8915.69 545.081 658.32 540.836 617.047 15.583
8918.35 840.08 780.721 716.888 592.859 16.8967
8921 957.001 850.704 520.852 540.034 15.1952
8923.66 755.03 764.795 382.361 369.805 11.0818
8926.32 582.352 585.721 206.203 247.583 9.1851
8928.97 419.78 518.533 154.184 259.291 8.52212
8931.63 553.468 528.488 417.485 308.804 14.9818
8934.28 612.215 595.273 354.741 416.766 20.3285
8936.94 620.137 606.925 478.072 421.401 22.1844
8939.59 588.421 650.47 431.389 472.392 20.4216
8942.25 742.852 670.041 507.713 497.571 20.6538
8944.9 678.85 671.384 553.611 475.902 16.4163
8947.56 592.448 624.912 366.381 434.318 13.5479
8950.21 603.439 589.391 382.961 415.979 14.4281
8952.87 572.285 586.935 498.595 475.493 15.8428
8955.52 585.082 625.536 544.924 541.127 15.7577
8958.17 719.242 714.169 579.863 567.56 14.6252
8960.82 838.183 780.219 577.892 508.275 14.4139
8963.48 783.23 646.153 367.07 322.578 13.1157
8966.13 317.045 477.911 22.7701 156.59 6.47065
8968.78 333.458 400.18 79.9304 116.859 9.02449
8971.43 550.036 476.055 247.876 207.984 18.6623
8974.09 544.67 556.319 296.146 310.801 20.8604
8976.74 574.253 563.976 388.38 347.849 22.4761
8979.39 573.006 576.634 359.021 393.289 22.3546
8982.04 582.644 582.506 432.465 403.129 22.2574
8984.69 591.868 581.169 417.901 406.113 21.7461
8987.34 568.996 579.385 367.973 425.203 18.7739
8989.99 577.29 545.938 489.735 411.483 16.5535
8992.64 491.527 509.62 376.742 387.406 13.6554
8995.29 460.044 490.783 295.741 364.783 13.2851
8997.94 520.777 539.792 421.868 397.97 15.7965
9000.59 638.556 580.441 476.303 458.054 16.9256
9003.23 581.991 586.713 475.99 492.639 13.4495
9005.88 539.593 522.21 525.623 410.77 11.7444
9008.53 445.045 454.554 230.698 277.384 10.3012
9011.18 379.025 449.79 75.8316 180.933 11.0352
9013.83 525.3 468.035 236.27 186.521 18.5237
9016.47 499.78 526.193 247.461 251.493 20.92
9019.12 553.499 525.778 270.75 284.86 23.1716
9021.77 524.054 547.847 336.368 317.24 22.5316
9024.41 565.988 545.242 344.601 350.983 23.2936
9027.06 545.685 564.077 371.981 376.793 22.4833
9029.71 580.557 561.436 413.798 389.653 23.1859
9032.35 558.064 574.276 383.179 391.517 22.8137
9035 584.205 584.818 377.573 400.321 22.8489
9037.64 612.186 611.68 440.211 434.841 21.578
9040.29 638.651 623.282 486.739 436.552 20.2453
9042.93 619.011 625.828 382.706 408.252 19.0417
9045.58 619.823 623.875 355.313 377.401 19.0135
9048.22 632.791 619.848 394.186 394.247 19.3508
9050.86 606.931 625.989 433.242 418.154 17.0535
9053.51 638.247 603.535 427.033 422.477 16.886
9056.15 565.429 589.07 407.154 376.298 15.0197
9058.79 563.535 548.639 294.708 309.194 17.0764
9061.44 516.953 535.987 225.722 273.081 18.3294
9064.08 527.473 537.191 298.813 290.249 21.0784
9066.72 567.146 539.305 346.212 343.556 22.6828
9069.36 523.295 518.79 385.644 336.289 21.7115
9072 465.93 420.113 277.012 277.962 20.5965
9074.64 271.114 245.681 171.23 149.414 15.2954
