wavelength spectrum_sum 3smoothed_sum spectrum_optimal 3smoothed_optimal spectrum_snr
3508.41 25.8615 14.2533 36.9578 20.4449 nan
3511.32 16.8985 22.9258 24.3769 34.488 nan
3514.23 26.0173 21.7452 42.1293 34.2411 nan
3517.15 22.3198 26.313 36.2172 35.9412 nan
3520.06 30.6019 28.4651 29.4769 33.328 nan
3522.97 32.4737 28.0453 34.2897 27.3826 nan
3525.88 21.0604 23.5436 18.3811 26.3457 nan
3528.8 17.0966 24.2591 26.3662 24.5007 17.5749
3531.71 34.6204 26.2689 28.7548 25.6645 23.8252
3534.62 27.0898 32.9785 21.8726 29.3265 9.98713
3537.53 37.2253 32.969 37.3522 22.6492 6.91109
3540.45 34.5917 36.2557 8.72278 28.1901 6.01148
3543.36 36.9502 30.7805 38.4954 27.7764 5.92043
3546.27 20.7998 24.6244 36.1111 33.5788 3.87533
3549.18 16.1233 22.1309 26.1298 33.4951 2.7609
3552.1 29.4697 31.5259 38.2444 40.9189 4.03427
3555.01 48.9848 33.3278 58.3825 46.6722 6.29246
3557.92 21.5289 36.0336 43.3896 46.81 3.61612
3560.83 37.5872 31.9721 38.6579 42.3196 7.03077
3563.75 36.8001 36.9749 44.9115 40.5005 6.55812
3566.66 36.5375 40.6142 37.9321 39.8659 12.2932
3569.57 48.5051 44.3098 36.754 44.9659 11.6109
3572.48 47.8867 43.8751 60.2116 40.4074 8.53943
3575.4 35.2337 37.6238 24.2566 40.5089 nan
3578.31 29.751 34.4171 37.0584 34.609 7.46723
3581.22 38.2665 34.0472 42.5119 38.7384 9.83216
3584.13 34.124 37.7912 36.645 42.5726 24.9581
3587.05 40.9831 40.4123 48.5609 43.8674 10.1719
3589.96 46.1299 44.1116 46.3962 48.8563 15.272
3592.87 45.2218 40.7764 51.612 48.5476 15.4203
3595.79 30.9774 36.3653 47.6348 49.0957 8.09224
3598.7 32.8967 40.8318 48.0402 53.8895 8.18872
3601.61 58.6212 52.6607 65.9935 59.3882 8.94391
3604.52 66.4643 53.0212 64.1308 60.1155 11.9407
3607.44 33.978 52.5002 50.2222 57.9291 8.32216
3610.35 57.0583 41.3175 59.4344 49.635 9.61292
3613.26 32.9162 47.8206 39.2485 50.7303 7.00122
3616.17 53.4873 48.2909 53.5081 53.114 8.14006
3619.09 58.4692 56.1687 66.5854 56.1916 7.91791
3622 56.5496 52.8284 48.4814 59.4267 9.20135
3624.91 43.4662 46.6248 63.2134 49.5395 6.24323
3627.82 39.8585 38.4422 36.9236 45.4976 5.1583
3630.74 32.0018 41.7323 36.3558 44.9655 4.69525
3633.65 53.3366 43.0682 61.6171 48.0221 6.57263
3636.56 43.866 45.6075 46.0935 52.9997 6.13641
3639.47 39.62 48.0521 51.2886 53.6184 5.25842
3642.39 60.6703 46.3154 63.4731 45.4118 7.0086
3645.3 38.6558 52.9061 21.4738 46.5353 5.91769
3648.21 59.3923 51.3802 54.6589 42.1328 7.4901
3651.13 56.0925 54.0567 50.2657 49.0198 7.29645
3654.04 46.6854 53.3109 42.1347 46.1507 6.06449
3656.95 57.1547 49.1372 46.0516 40.5728 7.518
3659.86 43.5714 56.4791 33.5322 53.3053 5.5888
3662.78 68.7111 58.996 80.3321 61.2219 7.95992
3665.69 64.7054 65.7974 69.8014 70.9678 7.59397
3668.6 63.9757 61.0941 62.7699 65.5605 7.11354
3671.51 54.6012 47.6476 64.1104 55.2861 7.68661
3674.43 24.366 44.3656 38.9781 49.4998 3.65187
3677.34 54.1295 40.4318 45.4108 42.9546 7.88837
3680.25 42.8 53.3435 44.475 47.5524 6.80579
3683.16 63.1011 61.1963 52.7716 54.953 8.53513
3686.08 77.6877 73.9075 67.6124 64.0778 9.29782
3688.99 80.9338 70.1999 71.8494 64.3575 9.84301
3691.9 51.9782 62.8391 53.6106 58.8955 5.9923
3694.81 55.6053 63.5452 51.2266 59.9058 6.18333
3697.73 83.0519 62.5758 74.8801 54.0665 8.72556
3700.64 49.0703 71.2929 36.0927 65.7557 5.48683
3703.55 81.7565 70.5678 86.2944 66.7586 7.69163
3706.46 80.8766 79.7785 77.8887 75.7751 7.77766
3709.38 76.7026 70.2331 63.142 61.7164 8.49362
3712.29 53.12 76.1836 44.1185 63.0834 5.85071
3715.2 98.7283 68.2242 81.9895 55.2258 9.70375
3718.11 52.8243 78.9631 39.5694 65.0883 5.77463
3721.03 85.3368 75.4493 73.706 59.3797 9.08491
3723.94 88.1867 82.4839 64.8638 68.9988 8.50737
3726.85 73.9282 80.2762 68.4267 63.5136 7.32164
3729.76 78.7138 68.3046 57.2504 66.8466 7.28365
3732.68 52.2717 61.6389 74.8627 61.7189 4.86163
3735.59 53.9311 62.9801 53.0435 65.1513 5.26851
3738.5 82.7376 64.3515 67.5477 55.6857 7.54977
3741.41 56.3858 78.0085 46.466 67.6611 5.32755
3744.33 94.902 66.2437 88.9695 63.6125 8.29973
3747.24 47.4433 81.3726 55.4019 81.9762 4.87612
3750.15 101.773 78.3218 101.557 85.179 8.68955
3753.06 85.7495 91.6591 98.5778 87.8725 7.63867
3755.98 87.4554 90.1044 63.4823 89.5094 8.70834
3758.89 97.1084 97.1476 106.468 99.6848 8.59867
3761.8 106.879 108.433 129.104 108.346 9.03538
3764.71 121.31 96.02 89.465 97.4618 10.3207
3767.63 59.8706 92.2227 73.8161 83.8478 5.47315
3770.54 95.4873 85.3779 88.2622 93.1471 8.88686
3773.45 100.776 105.941 117.363 106.258 8.47534
3776.36 121.561 110.216 113.149 114.598 9.50026
3779.28 108.312 117.954 113.28 117.761 8.6717
3782.19 123.988 118.558 126.854 132.071 9.92917
3785.1 123.372 122.429 156.077 138.878 9.22674
3788.01 119.925 117.153 133.702 134.359 9.21055
3790.93 108.161 111.777 113.297 124.131 8.56401
3793.84 107.244 104.707 125.394 116.686 8.95381
3796.75 98.717 95.2844 111.366 110.172 8.26799
3799.66 79.8918 88.3254 93.7567 94.512 7.04266
3802.58 86.3673 88.2221 78.4133 94.3475 7.37091
3805.49 98.4073 93.6501 110.873 96.6204 8.05163
3808.4 96.1756 94.2059 100.576 99.7299 7.48472
3811.31 88.0347 95.1869 87.7417 92.0671 7.41713
3814.23 101.35 102.838 87.8842 100.899 7.90769
3817.14 119.128 115.349 127.07 115.773 8.78248
3820.05 125.57 124.491 132.366 131.71 9.44054
3822.96 128.776 123.354 135.696 129.273 9.52986
3825.87 115.717 119.237 119.758 120.364 8.79467
3828.79 113.218 119.733 105.64 123.237 8.44999
3831.7 130.264 124.781 144.313 124.54 9.31111
3834.61 130.86 133.36 123.668 134.015 9.50574
3837.52 138.957 148.172 134.065 145.533 9.67671
3840.44 174.698 152.681 178.866 157.597 11.1431
3843.35 144.389 150.787 159.859 167.372 9.8641
3846.26 133.275 130.263 163.392 147.89 9.41866
3849.17 113.125 135.498 120.419 143.801 8.31873
3852.08 160.093 135.744 147.594 129.946 10.8124
3855 134.013 142.547 121.825 138.741 9.76175
3857.91 133.535 132.765 146.804 133.218 9.31208
3860.82 130.747 136.509 131.024 140.344 9.40439
3863.73 145.244 137.214 143.204 137.603 10.1829
3866.64 135.651 139.556 138.58 145.485 9.96079
3869.56 137.774 136.662 154.671 142.471 9.7298
3872.47 136.562 134.144 134.163 145.406 10.0262
3875.38 128.095 132.82 147.385 134.597 9.18065
3878.29 133.802 127.091 122.242 133.26 9.84929
3881.2 119.377 133.224 130.153 130.457 9.44282
3884.12 146.493 146.847 138.976 146.571 10.7182
3887.03 174.671 147.542 170.584 141.176 12.0118
3889.94 121.463 141.894 113.968 135.952 9.43256
3892.85 129.547 129.612 123.305 116.723 9.95455
3895.76 137.826 136.189 112.896 125.732 9.56024
3898.68 141.195 131.769 140.995 120.479 9.67446
3901.59 116.287 135.277 107.546 130.965 8.00885
3904.5 148.349 138.475 144.354 133.71 9.20967
3907.41 150.79 164.918 149.229 168.335 9.35611
3910.32 195.616 163.778 211.422 177.066 11.0093
3913.24 144.928 188.327 170.546 207.11 8.85046
3916.15 224.437 187.43 239.363 210.077 12.3253
3919.06 192.925 203.255 220.321 219.697 11.0778
3921.97 192.403 187.274 199.405 206.925 11.548
3924.88 176.495 177.237 201.049 184.477 11.128
3927.8 162.813 169.867 152.976 177.479 10.8424
3930.71 170.293 162.025 178.413 165.98 11.3573
3933.62 152.968 163.182 166.552 163.97 10.2722
3936.53 166.285 164.358 146.946 161.667 10.7837
3939.44 173.82 159.46 171.502 152.714 11.1639
3942.35 138.275 155.126 139.694 153.552 9.44916
3945.27 153.283 156.068 149.46 157.443 9.57482
3948.18 176.645 167.814 183.174 179.772 10.8327
3951.09 173.512 188.055 206.683 204.82 10.3369
3954 214.007 180.195 224.604 198.748 12.3298
3956.91 153.067 181.367 164.957 190.835 9.74272
3959.82 177.027 169.379 182.943 183.423 11.3199
3962.74 178.044 179.9 202.369 184.653 11.3332
3965.65 184.631 178.423 168.647 184.714 11.5839
3968.56 172.594 193.433 183.125 188.783 11.4787
3971.47 223.076 191.895 214.576 197.63 13.2011
3974.38 180.015 195.545 195.189 203.732 11.1422
3977.29 183.542 190.902 201.43 201.431 10.7593
3980.2 209.148 186.641 207.673 193.427 12.039
3983.12 167.232 186.971 171.178 182.362 9.94706
3986.03 184.532 167.893 168.234 162.699 10.6304
3988.94 151.915 163.561 148.686 159.639 9.17313
3991.85 154.235 162.927 161.997 165.923 9.22052
3994.76 182.629 176.244 187.086 181.348 10.4913
3997.67 191.868 186.321 194.962 186.768 10.4478
4000.58 184.466 189.567 178.257 188.074 10.1031
4003.5 192.368 185.69 191.002 189.748 10.4527
4006.41 180.236 185.163 199.984 192.245 9.27456
4009.32 182.886 196.2 185.75 206.944 9.5747
4012.23 225.479 207.259 235.098 220.46 11.3949
4015.14 213.412 211.305 240.534 222.017 10.7916
4018.05 195.024 206.443 190.419 210.976 10.086
4020.96 210.894 198.742 201.975 198.004 10.8345
4023.87 190.308 181.84 201.62 186.214 9.72921
4026.79 144.319 159.884 155.048 174.922 7.958
4029.7 145.025 157.604 168.098 167.454 8.0881
4032.61 183.469 161.326 179.216 181.518 9.54512
4035.52 155.485 193.243 197.239 209.676 8.35892
4038.43 240.776 194.29 252.572 216.284 11.7852
4041.34 186.609 229.929 199.039 240.426 9.49735
4044.25 262.401 229.652 269.667 233.51 12.5214
4047.16 239.945 247.413 231.825 252.589 11.6958
4050.07 239.894 238.827 256.275 254.773 11.4076
4052.99 236.642 265.011 276.218 281.247 11.2386
4055.9 318.499 273.197 311.247 281.786 14.3916
4058.81 264.45 282.076 257.892 284.076 12.2183
4061.72 263.278 270.89 283.089 269.433 12.2434
4064.63 284.943 278.647 267.318 277.851 12.9555
4067.54 287.721 284.486 283.145 277.837 13.421
4070.45 280.793 287.217 283.048 287.905 12.8486
4073.36 293.136 299.559 297.523 305.532 13.2527
4076.27 324.749 302.969 336.025 308.337 14.6421
4079.18 291.022 318.122 291.462 319.1 13.0436
4082.09 338.593 315.357 329.813 318.598 15.0195
4085 316.457 324.094 334.519 339.661 13.9228
4087.92 317.232 310.332 354.652 332.665 14.0902
4090.83 297.308 302.445 308.825 325.861 13.1375
4093.74 292.795 305.263 314.106 317.246 13.1861
4096.65 325.687 318.149 328.807 325.89 14.4622
4099.56 335.966 316.207 334.758 313.981 15.151
4102.47 286.968 317.936 278.378 323.666 13.5648
4105.38 330.873 307.29 357.863 313.855 14.5146
4108.29 304.029 327.39 305.326 333.463 13.6304
4111.2 347.269 321.853 337.202 332.281 15.1728
4114.11 314.26 322.52 354.317 335.344 13.7098
4117.02 306.031 320.065 314.514 331.863 13.4442
4119.93 339.904 309.038 326.757 304.225 14.6417
4122.84 281.179 315.8 271.406 316.08 12.9251
4125.75 326.317 299.134 350.079 305.896 14.2086
4128.66 289.907 330.365 296.205 334.576 12.8755
4131.57 374.872 317.369 357.443 308.942 15.4727
4134.48 287.327 344.343 273.177 335.211 12.8505
4137.39 370.831 340.177 375.012 344.283 15.7415
4140.3 362.374 343.095 384.66 363.303 15.3764
4143.21 296.079 337.04 330.238 361.307 13.0923
4146.12 352.666 328.091 369.023 346.606 14.8007
4149.03 335.528 339.707 340.556 350.534 14.2769
4151.94 330.928 330.894 342.023 339.28 14.2013
4154.85 326.226 335.547 335.262 350.573 13.8875
4157.76 349.487 319.457 374.433 337.842 14.2908
4160.67 282.658 321.909 303.829 350.51 12.0914
4163.59 333.583 313.972 373.267 331.505 13.5698
4166.5 325.675 338.145 317.417 350.573 13.8066
4169.4 355.179 345.265 361.033 346.138 14.5736
4172.31 354.94 346.682 359.964 361.381 14.6642
4175.22 329.928 350.345 363.146 362.583 13.8204
4178.13 366.167 351.184 364.639 368.54 14.8291
4181.04 357.455 360.906 377.836 374.2 14.5595
4183.95 359.096 358.156 380.126 372.231 14.571
4186.86 357.917 357.308 358.732 367.562 14.758
4189.77 354.911 371.04 363.827 370.162 14.6171
4192.68 400.292 382.085 387.928 381.71 16.1637
4195.59 391.052 375.028 393.373 375.888 16.4105
4198.5 333.738 368.512 346.362 371.567 14.0504
4201.41 380.745 366.963 374.965 373.011 15.5596
4204.32 386.405 385.266 397.705 399.113 15.7244
4207.23 388.646 376.156 424.67 398.119 15.7555
4210.14 353.417 368.575 371.981 395.745 14.3168
4213.05 363.663 377.607 390.585 399.991 14.79
4215.96 415.742 383.609 437.408 401.831 16.4101
4218.87 371.423 389.379 377.501 410.642 15.0601
4221.78 380.974 390.582 417.017 409.31 15.3987
4224.69 419.35 394.498 433.411 405.571 16.7375
4227.6 383.169 403.206 366.285 395.5 15.6527
4230.51 407.1 387.043 386.805 382.888 16.2832
4233.42 370.859 384.553 395.574 398.65 15.3607
4236.33 375.7 380.916 413.572 405.2 15.1507
4239.24 396.191 403.925 406.454 423.217 16.2009
4242.14 439.886 414.486 449.624 427.734 17.402
4245.05 407.38 419.59 427.125 431.051 16.023
4247.96 411.504 413.828 416.404 426.776 16.4226
4250.87 422.6 412.94 436.798 416.73 16.5682
4253.78 404.715 414.318 396.988 419.547 15.9673
4256.69 415.64 405.199 424.856 407.215 16.1441
4259.6 395.244 397.39 399.802 406.905 15.6102
4262.51 381.287 386.915 396.058 399.146 15.0601
4265.42 384.214 400.597 401.579 419.572 15.3327
4268.33 436.289 409.062 461.08 420.736 16.9066
4271.24 406.682 407.119 399.548 415.942 15.997
4274.14 378.385 400.366 387.199 407.894 15.3259
4277.05 416.03 390.964 436.936 408.055 16.1407
4279.96 378.475 384.203 400.03 403.388 14.8922
4282.87 358.105 402.598 373.2 422.527 14.5119
4285.78 471.214 427.028 494.352 447.894 18.0391
4288.69 451.766 457.744 476.131 481.993 17.2932
4291.6 450.25 440.308 475.497 465.887 17.1696
4294.51 418.908 430.924 446.034 453.306 16.4904
4297.41 423.613 411.43 438.387 440.873 16.6428
4300.32 391.77 428.61 438.197 458.267 15.9145
4303.23 470.446 438.437 498.216 463.235 18.224
4306.14 453.094 464.476 453.292 472.826 17.7554
4309.05 469.888 458.256 466.971 458.377 17.9855
4311.96 451.786 474.9 454.868 479.484 17.4041
4314.86 503.025 473.049 516.614 479.703 18.5995
4317.77 464.337 470.644 467.626 485.151 17.4846
4320.68 444.57 452.119 471.214 465.081 16.7312
4323.59 447.448 468.006 456.404 481.398 16.6366
4326.5 511.999 460.381 516.576 473.276 18.5919
4329.41 421.694 462.489 446.848 493.757 15.885
4332.31 453.774 454.003 517.847 488.649 16.899
4335.22 486.54 465.296 501.253 502.629 17.799
4338.13 455.576 461.105 488.788 484.081 16.6877
4341.04 441.2 447.511 462.201 467.232 16.4365
4343.95 445.756 441.806 450.706 454.804 16.478
4346.85 438.462 439.455 451.504 449.616 16.3874
4349.76 434.149 443.55 446.637 453.146 16.2283
4352.67 458.039 446.745 461.296 469.324 16.9928
4355.58 448.048 459.88 500.039 495.056 16.4289
4358.49 473.553 449.957 523.834 489.744 17.1523
4361.39 428.271 447.882 445.359 476.315 15.9565
4364.3 441.821 433.877 459.753 448.871 16.4601
4367.21 431.54 443.465 441.501 459.275 16.1738
4370.12 457.035 437.014 476.57 451.352 16.8478
4373.02 422.467 428.115 435.986 453.364 15.8534
4375.93 404.843 420.9 447.536 446.57 15.099
4378.84 435.389 450.894 456.188 481.955 16.2002
4381.75 512.449 484.056 542.142 508.133 18.2311
4384.65 504.329 495.189 526.069 523.644 18.0723
4387.56 468.789 479.841 502.72 509.07 17.0646
4390.47 466.405 487.984 498.422 511.896 16.8162
4393.38 528.758 512.279 534.546 523.007 18.7966
4396.28 541.674 520.336 536.054 521.72 19.0534
4399.19 490.577 504.783 494.56 510.283 17.3435
4402.1 482.098 493.686 500.235 504.375 17.1999
4405.01 508.385 496.98 518.329 520.999 17.728
4407.91 500.458 522.725 544.432 537.754 17.3522
4410.82 559.331 520.36 550.502 540.353 18.941
4413.73 501.291 501.295 526.125 510.985 17.3401
4416.63 443.262 496.971 456.329 512.655 15.6057
4419.54 546.359 504.771 555.509 523.768 18.6143
4422.45 524.691 544.592 559.465 575.472 17.7319
4425.35 562.725 544.32 611.442 573.704 18.7418
4428.26 545.543 550.508 550.204 573.945 18.1271
4431.17 543.257 535.831 560.19 571.4 17.973
4434.08 518.693 527.88 603.805 568.624 17.3272
4436.98 521.689 541.262 541.877 586.202 17.7659
4439.89 583.406 562.183 612.924 579.979 19.2237
4442.8 581.453 571.249 585.135 590.484 19.1768
4445.7 548.888 536.518 573.394 554.63 18.3769
4448.61 479.213 496.136 505.361 529.671 16.5058
4451.52 460.308 483.335 510.257 525.863 16.0202
4454.42 510.483 500.773 561.97 559.857 17.4116
4457.33 531.527 529.06 607.342 581.845 17.8818
4460.23 545.17 531.631 576.222 589.624 18.3645
4463.14 518.196 563.179 585.306 596.412 17.6672
4466.05 626.171 529.446 627.707 564.937 20.5431
4468.95 443.971 538.236 481.799 562.861 15.5859
4471.86 544.565 513.393 579.078 541.024 18.2403
4474.77 551.642 570.044 562.196 592.464 18.5278
4477.67 613.926 577.862 636.117 607.368 20.2014
4480.58 568.018 595.433 623.79 638.438 18.5618
4483.48 604.355 570.166 655.406 614.91 19.6659
4486.39 538.125 574.51 565.533 608.133 17.999
4489.3 581.051 558.415 603.459 585.676 19.2741
4492.2 556.068 583.191 588.035 600.055 18.39
4495.11 612.454 566.933 608.671 583.602 19.7685
4498.01 532.278 593.087 554.099 607.553 17.5519
4500.92 634.528 564.323 659.89 596.244 20.2208
4503.83 526.162 604.74 574.743 643.104 17.4301
4506.73 653.531 585.445 694.68 623.49 20.64
4509.64 576.643 606.295 601.046 648.836 18.7762
4512.54 588.712 610.752 650.781 644.92 18.9473
4515.45 666.902 622.275 682.934 667.005 20.828
4518.35 611.212 639.284 667.3 685.583 19.498
4521.26 639.738 620.199 706.516 670.258 20.1761
4524.16 609.649 615.899 636.959 676.569 19.4915
4527.07 598.311 585.133 686.232 633.205 19.3843
4529.97 547.441 582.513 576.423 645.73 18.0157
4532.88 601.788 594.01 674.537 653.731 18.9783
4535.79 632.802 625.663 710.233 690.376 19.9386
4538.69 642.4 618.052 686.358 667.775 20.058
4541.6 578.953 620.799 606.734 649.657 18.4667
4544.5 641.045 604.8 655.878 628.372 20.1245
4547.41 594.4 623.652 622.505 646.376 18.9775
4550.31 635.51 634.093 660.745 659.529 19.7481
4553.22 672.37 649.29 695.337 675.187 20.6572
4556.12 639.99 657.992 669.478 690.05 20.2331
4559.03 661.617 665.462 705.334 694.444 20.4352
4561.93 694.78 685.262 708.519 709.667 20.9054
4564.84 699.391 672.267 715.148 681.09 21.2713
4567.74 622.631 662.787 619.603 668.284 19.5916
4570.64 666.339 673.837 670.101 669.361 20.407
4573.55 732.541 716.21 718.379 699.991 22.2022
4576.45 749.75 736.652 711.494 725.187 22.479
4579.36 727.666 749.255 745.688 745.027 22.0037
4582.26 770.348 696.326 777.901 712.27 22.8229
4585.17 590.964 696.484 613.22 708.706 18.7438
4588.07 728.139 669.153 734.998 666.475 21.9399
4590.98 688.355 695.608 651.208 682.169 20.8607
4593.88 670.33 667.974 660.301 650.447 20.7365
4596.78 645.237 681.555 639.833 665.1 19.9034
4599.69 729.098 698.313 695.164 676.945 21.9332
4602.59 720.603 711.741 695.838 661.497 21.511
4605.5 685.522 716.47 593.49 664.343 20.8155
4608.4 743.285 701.047 703.703 646.963 22.2153
4611.3 674.334 711.664 643.695 677.534 20.749
4614.21 717.373 703.661 685.203 669.214 21.5303
4617.11 719.277 718.847 678.745 686.958 21.7781
4620.02 719.891 706.394 696.928 677.394 21.4446
4622.92 680.013 709.497 656.508 665.622 20.6694
4625.82 728.586 724.844 643.429 656.657 22.0148
4628.73 765.932 739.638 670.034 650.256 22.6429
4631.63 724.397 728.196 637.305 642.055 21.4991
4634.53 694.261 713.54 618.826 645.589 20.8758
4637.44 721.963 718.865 680.638 664.641 21.8354
4640.34 740.371 768.694 694.461 711.111 21.7427
4643.24 843.749 778.23 758.234 718.251 24.4573
4646.15 750.571 789.226 702.056 724.661 22.3918
4649.05 773.359 747.255 713.692 688.859 22.8744
4651.95 717.836 762.483 650.828 689.941 21.7758
4654.86 796.253 743.684 705.301 677.945 23.1193
4657.76 716.962 751.429 677.705 677.384 21.4352
4660.66 741.073 735.605 649.146 667.625 21.8823
4663.57 748.781 730.202 676.024 655.435 22.1475
4666.47 700.752 734.131 641.136 663.786 20.6445
4669.37 752.86 726.984 674.197 644.688 22.202
4672.28 727.338 770.24 618.73 673.932 21.598
4675.18 830.52 768.464 728.868 678.085 23.6288
4678.08 747.532 782.875 686.657 694.807 21.7539
4680.98 770.573 792.044 668.896 718.362 22.3509
4683.89 858.026 802.087 799.533 740.119 24.3356
4686.79 777.663 826.486 751.929 759.107 22.8302
4689.69 843.77 805.517 725.86 721.755 23.9023
4692.59 795.118 774.251 687.476 710.788 22.8845
4695.5 683.865 726.411 719.028 695.011 20.3844
4698.4 700.251 734.632 678.528 744.236 20.608
4701.3 819.78 770.417 835.151 781.912 23.1951
4704.2 791.219 776.958 832.058 799.163 22.7296
4707.11 719.875 755.447 730.28 782.71 21.1808
4710.01 755.247 731.619 785.792 765.485 21.8976
4712.91 719.737 731.356 780.384 759.543 21.0148
4715.81 719.084 711.095 712.452 745.271 21.1772
4718.71 694.464 718.161 742.976 737.193 20.6178
4721.62 740.935 739.225 756.151 769.715 21.7486
4724.52 782.277 743.968 810.018 768.301 22.2965
4727.42 708.693 727.322 738.735 752.912 20.5619
4730.32 690.996 680.843 709.982 705.087 20.5328
4733.22 642.84 677.531 666.543 693.807 19.4297
4736.12 698.757 675.744 704.895 694.249 20.5569
4739.03 685.636 718.296 711.309 741.427 20.6577
4741.93 770.496 724.845 808.077 757.691 22.03
4744.83 718.404 743.808 753.687 768.28 21.0604
4747.73 742.523 735.539 743.078 761.391 21.5609
4750.63 745.691 738.484 787.407 744.768 21.6311
4753.53 727.238 721.059 703.819 732.711 21.111
4756.43 690.249 722.766 706.908 731.679 20.5145
4759.34 750.81 728.022 784.309 756.46 21.9051
4762.24 743.008 745.623 778.163 765.53 21.7619
4765.14 743.052 738.692 734.116 753.905 21.744
4768.04 730.016 722.495 749.436 728.583 21.5825
4770.94 694.416 724.935 702.196 753.123 20.398
4773.84 750.373 709.392 807.737 747.812 21.5455
4776.74 683.388 721.96 733.502 774.947 20.1365
4779.64 732.12 706.626 783.601 752.967 21.2723
4782.54 704.371 717.467 741.798 757.4 20.7791
4785.44 715.911 716.395 746.801 763.626 20.7717
4788.34 728.904 760.487 802.279 796.199 21.0782
4791.24 836.647 780.959 839.518 816.079 23.7712
4794.15 777.326 772.155 806.44 785.225 22.2246
4797.05 702.493 748.705 709.718 776.681 20.5261
4799.95 766.295 733.8 813.884 768.079 21.9405
4802.85 732.611 771.785 780.635 821.983 21.348
4805.75 816.449 778.106 871.43 824.488 22.6061
4808.65 785.258 790.841 821.398 836.896 22.0915
4811.55 770.817 771.03 817.86 809.975 21.6895
4814.45 757.017 760.316 790.667 812.488 21.5583
4817.35 753.113 769.191 828.937 815.213 21.3539
4820.25 797.443 769.896 826.035 817.754 22.1754
4823.15 759.131 778.74 798.29 811.154 21.5207
4826.05 779.646 779.989 809.137 831.392 21.8545
4828.95 801.188 784.835 886.749 845.256 22.5322
4831.85 773.671 788.288 839.881 847.201 21.8959
4834.75 790.004 774.322 814.971 811.1 22.2531
4837.65 759.292 793.212 778.448 819.213 21.5008
4840.54 830.339 797.66 864.219 826.25 22.7597
4843.44 803.349 796.239 836.084 854.564 22.5471
4846.34 755.029 780.829 863.389 839.015 21.5311
4849.24 784.109 779.707 817.573 842.496 22.1446
4852.14 799.984 781.579 846.525 831.062 22.7491
4855.04 760.645 801.557 829.087 859.656 21.8777
4857.94 844.044 787.428 903.356 844.924 23.7594
4860.84 757.595 800.219 802.329 841.187 22.1084
4863.74 799.018 798.212 817.876 837.283 23.0886
4866.64 838.023 818.953 891.646 842.754 23.7012
4869.54 819.818 808.856 818.742 837.501 23.6009
4872.43 768.726 777.354 802.115 812.483 22.3011
4875.33 743.519 773.2 816.592 825.517 21.5431
4878.23 807.356 771.48 857.843 831.233 22.9256
4881.13 763.565 777.026 819.263 845.986 22.0324
4884.03 760.159 782.965 860.852 852.765 21.7519
4886.93 825.173 806.679 878.18 882.571 23.2786
4889.83 834.706 847.12 908.679 908.533 23.4952
4892.72 881.482 825.509 938.741 889.421 24.3156
4895.62 760.339 839.029 820.844 912.418 21.7274
4898.52 875.267 815.194 977.67 902.82 24.134
4901.42 809.977 845.448 909.946 955.106 22.8355
4904.32 851.098 813.595 977.703 915.168 23.7116
4907.22 779.709 812.236 857.856 908.496 21.9883
4910.11 805.902 804.853 889.93 880.989 22.6854
4913.01 828.948 820.501 895.181 892.569 23.415
4915.91 826.653 850.782 892.597 927.079 23.2398
4918.81 896.744 831.035 993.459 908.714 24.615
4921.7 769.708 811.877 840.086 888.053 21.949
4924.6 769.179 779.554 830.614 841.471 21.8606
4927.5 799.777 792.481 853.713 847.028 22.3665
4930.4 808.488 827.472 856.758 880.981 22.7865
4933.29 874.15 824.069 932.471 890.074 24.1071
4936.19 789.569 810.534 880.994 878.814 22.2114
4939.09 767.884 780.12 822.979 858.279 21.7172
4941.99 782.906 778.671 870.863 839.718 21.943
4944.88 785.224 786.168 825.311 852.209 22.2134
4947.78 790.375 801.245 860.452 853.799 22.2292
4950.68 828.136 807.486 875.634 868.593 22.9582
4953.57 803.946 811.033 869.693 875.229 22.5287
4956.47 801.016 777.664 880.361 847.969 22.3159
4959.37 728.028 763.787 793.853 830.576 20.7951
4962.26 762.315 781.086 817.514 840.613 21.3052
4965.16 852.914 831.592 910.473 886.514 23.5348
4968.06 879.548 895.053 931.555 942.732 23.8913
4970.95 952.699 891.006 986.169 936.202 25.4284
4973.85 840.771 873.543 890.883 933.083 22.9294
4976.75 827.158 847.592 922.195 919.299 22.613
4979.64 874.846 865.797 944.819 941.973 23.7825
4982.54 895.386 899.658 958.906 965.458 24.294
4985.44 928.741 911.383 992.65 985.154 25.0249
4988.33 910.023 887.685 1003.91 955.47 24.4021
4991.23 824.292 860.644 869.853 923.932 22.7717
4994.12 847.617 853.209 898.036 910.822 23.1976
4997.02 887.718 869.409 964.576 936.752 23.9863
4999.92 872.891 895.588 947.643 977.541 23.6562
5002.81 926.154 899.866 1020.4 982.589 24.7719
5005.71 900.554 913.232 979.719 991.797 24.7162
5008.6 912.989 886.779 975.267 962.911 24.5366
5011.5 846.793 871.279 933.747 958.528 23.0206
5014.39 854.055 885.227 966.57 970.822 23.2563
5017.29 954.832 923.177 1012.15 1011.09 25.828
5020.18 960.643 962.833 1054.55 1042.04 25.8667
5023.08 973.022 955.093 1059.42 1045.79 25.9663
5025.97 931.612 927.487 1023.42 1010.68 25.0719
5028.87 877.827 891.558 949.192 972.031 23.975
5031.76 865.234 896.63 943.482 984.359 23.8291
5034.66 946.828 929.824 1060.4 1021.85 25.3266
5037.55 977.411 934.818 1061.67 1031.72 26.086
5040.45 880.215 928.184 973.08 1026.79 23.7227
5043.34 926.926 918.639 1045.63 1036.54 25.0397
5046.24 948.777 949.607 1090.92 1067.27 25.3812
5049.13 973.118 965.87 1065.27 1091.67 25.8141
5052.03 975.716 952.526 1118.83 1062.21 25.6872
5054.92 908.745 930.33 1002.53 1055.15 24.463
5057.82 906.53 899.65 1044.08 1026.32 24.3706
5060.71 883.674 910.78 1032.34 1044.77 23.7265
5063.61 942.136 930.589 1057.89 1072.72 25.1099
5066.5 965.958 950.515 1127.92 1083.39 25.6981
5069.39 943.451 950.803 1064.36 1090.1 25.2097
5072.29 943 936.088 1078.01 1064.57 25.0389
5075.18 921.812 947.308 1051.32 1078.76 24.6534
5078.08 977.114 945.379 1106.94 1072.93 25.8669
5080.97 937.213 970.434 1060.53 1094.42 24.8572
5083.86 996.977 975.762 1115.78 1088.6 26.51
5086.76 993.095 983.467 1089.51 1102.91 26.2307
5089.65 960.329 965.102 1103.44 1098.47 25.2443
5092.54 941.88 955.959 1102.45 1104.78 25.2058
5095.44 965.668 969.014 1108.45 1115.91 25.5307
5098.33 999.493 980.335 1136.83 1108.64 26.2624
5101.22 975.843 976.673 1080.65 1105.07 25.6913
5104.12 954.683 971.119 1097.72 1113.61 25.3843
5107.01 982.832 971.313 1162.45 1123.8 25.8839
5109.9 976.423 965.751 1111.23 1132.93 25.6886
5112.8 937.998 973.084 1125.11 1127.72 24.9789
5115.69 1004.83 947.417 1146.83 1103.33 26.0338
5118.58 899.423 945.449 1038.05 1101.22 24.346
5121.47 932.095 937.155 1118.77 1111.26 25.0884
5124.37 979.946 965.154 1176.98 1136.86 25.7076
5127.26 983.421 968.158 1114.83 1117.22 25.7749
5130.15 941.107 975.967 1059.84 1105.64 24.9972
5133.04 1003.37 995.816 1142.26 1136.52 26.1171
5135.94 1042.97 1012.15 1207.45 1141.22 26.7138
5138.83 990.109 1017.77 1073.95 1154.17 26.003
5141.72 1020.23 1018.34 1181.11 1137.15 26.4637
5144.61 1044.66 1024.63 1156.39 1160.82 27.0676
5147.51 1008.99 1025.53 1144.96 1164.35 26.3723
5150.4 1022.94 1018.45 1191.71 1166.33 26.3947
5153.29 1023.42 1029.59 1162.31 1183.2 26.3319
5156.18 1042.4 1032.72 1195.58 1180.8 26.6684
5159.07 1032.35 1004.72 1184.5 1158.75 26.6828
5161.96 939.404 976.101 1096.15 1133.15 24.7723
5164.86 956.545 975.571 1118.79 1127.53 25.5961
5167.75 1030.76 974.354 1167.64 1118.11 27.1118
5170.64 935.752 993.753 1067.89 1145.71 25.0952
5173.53 1014.74 985.396 1201.58 1151.21 26.4767
5176.42 1005.69 999.158 1184.15 1179.09 26.4926
5179.31 977.04 996.014 1151.52 1176.59 26.1265
5182.2 1005.31 1001.98 1194.1 1191.79 26.4382
5185.09 1023.6 1031.68 1229.74 1221 26.6236
5187.99 1066.13 1043.53 1239.17 1227.34 27.4911
5190.88 1040.87 1071.49 1213.11 1244.82 26.754
5193.77 1107.48 1062.98 1282.17 1223.08 28.1118
5196.66 1040.59 1071.36 1173.96 1221.97 26.7668
5199.55 1066.01 1045.92 1209.78 1199.07 27.1893
5202.44 1031.15 1020.14 1213.46 1190.6 26.4398
5205.33 963.27 998.843 1148.56 1187.62 25.1153
5208.22 1002.11 994.491 1200.83 1172.07 26.0611
5211.11 1018.1 1029.37 1166.82 1198.82 26.4431
5214 1067.92 1036.99 1228.79 1204.09 27.2846
5216.89 1024.96 1048.77 1216.65 1220.53 26.4825
5219.78 1053.42 997.516 1216.14 1174.86 26.6921
5222.67 914.17 978.71 1091.8 1147.76 23.9509
5225.56 968.541 962.481 1135.35 1143.29 25.1601
5228.45 1004.73 991.461 1202.71 1164.07 25.6659
5231.34 1001.11 991.957 1154.16 1165.05 26.3697
5234.23 970.03 989.404 1138.29 1158.86 25.2098
5237.12 997.073 1001.85 1184.14 1175.38 25.8049
5240.01 1038.45 1023.2 1203.7 1193.35 26.4872
5242.9 1034.07 1029.97 1192.2 1195.64 26.6378
5245.79 1017.39 1006.34 1191.03 1174.75 26.3284
5248.68 967.577 988.134 1141.01 1149.24 25.2598
5251.56 979.439 967.042 1115.68 1115.47 25.5162
5254.45 954.112 959.019 1089.72 1112.02 24.7443
5257.34 943.506 958.73 1130.66 1140.23 24.6312
5260.23 978.573 988.87 1200.31 1180.32 25.4495
5263.12 1044.53 1010.87 1210 1200.44 26.9666
5266.01 1009.5 1013.27 1191.01 1178.74 26.6435
5268.9 985.797 1005.4 1135.22 1159.13 26.5673
5271.79 1020.9 1024.01 1151.16 1174.94 26.8265
5274.67 1065.32 1016.05 1238.45 1178.46 27.0462
5277.56 961.937 1027.01 1145.78 1206.2 24.8909
5280.45 1053.78 1018.08 1234.37 1192.48 26.913
5283.34 1038.52 1046.57 1197.29 1217.12 26.9154
5286.23 1047.41 1050.14 1219.69 1206.43 26.7489
5289.12 1064.49 1049.09 1202.31 1203.8 27.2348
5292 1035.37 1045.08 1189.39 1197.76 26.7207
5294.89 1035.37 1058.03 1201.57 1234.42 26.3509
5297.78 1103.34 1074.14 1312.3 1281.08 27.5174
5300.67 1083.71 1083.28 1329.35 1297.21 27.0467
5303.55 1062.78 1067.36 1249.97 1277.54 27.0358
5306.44 1055.6 1052.39 1253.3 1261.84 26.8613
5309.33 1038.78 1059.68 1282.25 1284.45 26.2163
5312.22 1084.66 1073.06 1317.81 1294.69 27.0381
5315.1 1095.75 1096.63 1284.02 1297.37 27.3087
5317.99 1109.47 1107.04 1290.28 1304.83 27.612
5320.88 1115.91 1118.7 1340.18 1319.14 27.8978
5323.76 1130.72 1120.35 1326.97 1335.34 28.0363
5326.65 1114.4 1123.46 1338.89 1339.6 27.7241
5329.54 1125.26 1073.98 1352.95 1289.55 27.9228
5332.43 982.288 1097.37 1176.81 1310.49 25.3601
5335.31 1184.57 1094.6 1401.71 1293.09 29.0381
5338.2 1116.93 1124.46 1300.75 1311.22 28.0917
5341.08 1071.88 1089.81 1231.2 1269.8 27.0772
5343.97 1080.62 1075.75 1277.44 1261.67 27.1118
5346.86 1074.75 1080.12 1276.37 1275.13 27.0013
5349.74 1085 1075.06 1271.57 1277.23 27.2448
5352.63 1065.41 1045.42 1283.75 1261.69 26.7297
5355.52 985.849 1062.74 1229.74 1286.21 25.1062
5358.4 1136.94 1096.63 1345.15 1326.58 28.1951
5361.29 1167.09 1163.08 1404.84 1381.04 28.7689
5364.17 1185.2 1166.48 1393.13 1385.48 28.9484
5367.06 1147.15 1173.35 1358.46 1391.95 28.3389
5369.94 1187.71 1191.48 1424.25 1424.57 28.9521
5372.83 1239.58 1194 1490.99 1440.77 29.924
5375.72 1154.72 1157.96 1407.07 1395.45 28.3856
5378.6 1079.58 1129.44 1288.29 1346.51 26.9306
5381.49 1154.02 1128.29 1344.18 1332.08 28.5878
5384.37 1151.28 1173.58 1363.76 1374.92 28.7238
5387.26 1215.45 1204.85 1416.82 1426.54 29.6454
5390.14 1247.82 1249.31 1499.06 1471.41 30.1112
5393.03 1284.68 1246.04 1498.35 1479.09 30.9769
5395.91 1205.64 1249.78 1439.87 1481.5 29.3648
5398.79 1259.02 1230.53 1506.27 1475 30.5857
5401.68 1226.94 1221.66 1478.85 1455.56 29.9648
5404.56 1179.01 1183.47 1381.56 1407.27 29.3461
5407.45 1144.45 1159.94 1361.41 1380.75 28.5894
5410.33 1156.34 1133.36 1399.29 1356.64 28.5085
5413.22 1099.29 1149.42 1309.23 1386.45 27.4928
5416.1 1192.63 1146.65 1450.82 1362.29 29.0674
5418.98 1148.02 1166.9 1326.82 1392.22 28.6577
5421.87 1160.05 1174.26 1399.02 1387.27 28.6341
5424.75 1214.71 1185.52 1435.96 1413.05 29.6114
5427.64 1181.79 1201.78 1404.16 1432.14 29.1854
5430.52 1208.84 1201.33 1456.3 1443.09 29.2377
5433.4 1213.37 1232.75 1468.82 1486.36 29.5581
5436.29 1276.04 1248.98 1533.97 1509.5 30.4719
5439.17 1257.54 1254.84 1525.73 1510.15 29.9981
5442.05 1230.96 1245.55 1470.74 1496.94 29.4611
5444.94 1248.16 1234.26 1494.35 1479.13 29.9765
5447.82 1223.67 1253.3 1472.3 1495.99 29.4607
5450.7 1288.06 1239.66 1521.32 1479.23 30.7694
5453.59 1207.25 1243.73 1444.08 1486.06 29.3499
5456.47 1235.88 1207.99 1492.79 1468.71 29.6164
5459.35 1180.85 1222.17 1469.26 1486.22 28.442
5462.23 1249.78 1232.08 1496.62 1493.55 29.8535
5465.12 1265.59 1252.93 1514.78 1505.7 30.0505
5468 1243.4 1244.27 1505.69 1491.92 29.8655
5470.88 1223.82 1241.36 1455.3 1488.44 29.3495
5473.76 1256.87 1238.12 1504.32 1482.89 29.9186
5476.65 1233.67 1223.83 1489.06 1468.95 29.6212
5479.53 1180.95 1212.36 1413.46 1463.33 28.685
5482.41 1222.46 1205.8 1487.48 1451.88 29.5179
5485.29 1213.99 1200.95 1454.7 1447.04 29.3029
5488.17 1166.39 1227.73 1398.93 1459.49 28.537
5491.05 1302.82 1226.23 1524.84 1470.39 30.8234
5493.94 1209.49 1262.69 1487.39 1512.47 29.1695
5496.82 1275.78 1218.75 1525.18 1484.16 30.1178
5499.7 1170.97 1222.49 1439.9 1486.47 28.2167
5502.58 1220.72 1204.37 1494.32 1474.73 29.2457
5505.46 1221.4 1240.71 1489.96 1500.67 29.2701
5508.34 1280 1282.11 1517.74 1552.58 30.558
5511.22 1344.94 1288.87 1650.05 1551.18 31.1764
5514.1 1241.66 1273.49 1485.74 1532.94 29.4704
5516.99 1233.88 1261.23 1463.04 1514 29.4724
5519.87 1308.15 1280.33 1593.21 1534.9 30.8429
5522.75 1298.98 1324.58 1548.45 1582.93 30.302
5525.63 1366.62 1311.51 1607.14 1553.92 31.795
5528.51 1268.92 1282.53 1506.18 1524.64 30.1499
5531.39 1212.05 1247.84 1460.61 1494.04 28.9191
5534.27 1262.53 1252.95 1515.34 1511.51 30.1394
5537.15 1284.25 1264.96 1558.58 1535.63 29.9497
5540.03 1248.1 1258.16 1532.97 1524.26 29.3403
5542.91 1242.12 1258.56 1481.24 1511.28 28.961
5545.79 1285.46 1251.05 1519.62 1506.87 29.8828
5548.67 1225.58 1254.56 1519.74 1515.58 28.4213
5551.55 1252.64 1233.14 1507.38 1506.25 29.3933
5554.43 1221.2 1245.94 1491.62 1503.41 28.5875
5557.31 1263.97 1265.87 1511.22 1524.27 29.5963
5560.19 1312.43 1296.76 1569.98 1557.11 30.0805
5563.07 1313.89 1322.47 1590.13 1617.09 30.0254
5565.94 1341.11 1340.62 1691.16 1673.11 30.2066
5568.82 1366.88 1376.47 1738.05 1744.5 27.5004
5571.7 1421.41 1360.61 1804.29 1706.1 22.9959
5574.58 1293.54 1384.78 1575.96 1664.93 18.2314
5577.46 1439.38 1397.65 1614.53 1679.39 18.9852
5580.34 1460.03 1405.51 1847.69 1701.85 20.5913
5583.22 1317.12 1364.41 1643.32 1699.37 20.9158
5586.1 1316.09 1297.7 1607.1 1608.12 23.5496
5588.97 1259.91 1286.27 1573.94 1566.86 23.9488
5591.85 1282.81 1261.71 1519.56 1531.54 25.4404
5594.73 1242.42 1285.74 1501.12 1545.81 26.0162
5597.61 1331.99 1283.47 1616.76 1557.8 28.7472
5600.49 1276 1331.7 1555.51 1602.96 28.7168
5603.36 1387.13 1366.05 1636.62 1631.5 31.2364
5606.24 1435.01 1380.85 1702.35 1645.22 31.9461
5609.12 1320.41 1367.41 1596.68 1630.3 30.4391
5612 1346.81 1301.45 1591.86 1562.26 30.9656
5614.87 1237.13 1307.61 1498.24 1559.64 29.0602
5617.75 1338.88 1297.47 1588.82 1569.48 30.6326
5620.63 1316.39 1348.67 1621.39 1626.63 30.1326
5623.51 1390.75 1336.97 1669.68 1628.7 31.3914
5626.38 1303.77 1336.42 1595.02 1614.6 30.2035
5629.26 1314.75 1351.16 1579.11 1637.3 30.5444
5632.14 1434.96 1374.87 1737.77 1677.19 32.543
5635.01 1374.91 1380.9 1714.69 1688.48 31.4196
5637.89 1332.83 1356.25 1612.96 1656.23 30.5366
5640.77 1361 1353.85 1641.03 1629.56 30.9054
5643.64 1367.73 1339.54 1634.7 1622.91 31.2515
5646.52 1289.91 1343.21 1593.01 1627.33 29.8185
5649.39 1371.99 1332.97 1654.28 1620.2 31.412
5652.27 1337 1344.83 1613.3 1625.14 30.4569
5655.15 1325.49 1340.25 1607.84 1612.62 30.5699
5658.02 1358.25 1345.13 1616.7 1610.97 31.5442
5660.9 1351.64 1360.22 1608.36 1628.04 31.0434
5663.77 1370.77 1329.14 1659.07 1605.33 31.577
5666.65 1265.02 1305.92 1548.54 1594.95 29.399
5669.53 1281.99 1274.55 1577.23 1558.74 29.8397
5672.4 1276.66 1309.63 1550.45 1599.6 29.4003
5675.28 1370.24 1298.76 1671.13 1590.26 31.0757
5678.15 1249.38 1318.03 1549.22 1609.12 29.0271
5681.03 1334.48 1294.23 1607.02 1576.98 30.689
5683.9 1298.83 1307.48 1574.71 1578.89 29.7864
5686.78 1289.12 1324.4 1554.94 1601.41 29.4624
5689.65 1385.26 1366.47 1674.59 1637.51 31.161
5692.53 1425.02 1388.35 1683.01 1650.34 31.9153
5695.4 1354.78 1383.98 1593.42 1654.82 30.967
5698.27 1372.13 1369.57 1688.04 1657.11 31.079
5701.15 1381.8 1372.87 1689.86 1679.3 31.2604
5704.02 1364.66 1368.56 1660.02 1666.74 31.1696
5706.9 1359.21 1355.34 1650.33 1664.61 31.041
5709.77 1342.16 1333.77 1683.47 1634.77 30.673
5712.64 1299.94 1362.5 1570.52 1669.15 29.7846
5715.52 1445.41 1354.34 1753.47 1639.68 32.2792
5718.39 1317.66 1395.02 1595.04 1684.63 30.384
5721.27 1422 1368.57 1705.39 1646.08 32.2654
5724.14 1366.04 1382.33 1637.82 1669.43 31.0664
5727.01 1358.97 1362.87 1665.08 1656.25 30.9816
5729.89 1363.6 1348.8 1665.83 1643.3 30.9921
5732.76 1323.84 1349.51 1598.97 1649.18 30.5535
5735.63 1361.09 1347.99 1682.73 1644.5 30.8014
5738.5 1359.05 1374.86 1651.79 1673.74 30.9776
5741.38 1404.45 1364.08 1686.68 1663.1 31.5508
5744.25 1328.75 1375.6 1650.82 1676.49 30.5435
5747.12 1393.62 1350.32 1691.95 1668.11 31.9396
5749.99 1328.61 1351.74 1661.56 1662.68 30.3075
5752.87 1333.01 1348.79 1634.53 1656.1 30.8767
5755.74 1384.75 1377.74 1672.23 1676.73 31.7367
5758.61 1415.47 1422.62 1723.43 1717.41 32.2077
5761.48 1467.63 1411.52 1756.58 1701.95 32.9967
5764.36 1351.46 1392.75 1625.83 1664.61 31.154
5767.23 1359.15 1388.64 1611.42 1679.45 31.1321
5770.1 1455.32 1396.22 1801.11 1688.88 32.7588
5772.97 1374.2 1398.32 1654.1 1707.17 31.3205
5775.84 1365.45 1396.83 1666.3 1683.56 31.1824
5778.71 1450.83 1381.1 1730.28 1665.95 32.7838
5781.58 1327 1371.77 1601.25 1646.56 30.7332
5784.46 1337.48 1358.45 1608.15 1649.43 30.9589
5787.33 1410.86 1365.4 1738.89 1664.35 31.9199
5790.2 1347.86 1369.6 1646.02 1676.39 31.0663
5793.07 1350.08 1353.75 1644.27 1645.2 31.1919
5795.94 1363.31 1358.13 1645.3 1654.48 31.22
5798.81 1361 1371.6 1673.86 1664.12 31.2548
5801.68 1390.48 1395.05 1673.2 1689.77 31.5333
5804.55 1433.66 1392.11 1722.24 1675.71 32.4299
5807.42 1352.19 1427.91 1631.67 1714.56 30.881
5810.29 1497.88 1418.36 1789.76 1717.29 33.2216
5813.16 1405 1471.97 1730.45 1793.77 31.6398
5816.03 1513.04 1462.4 1861.1 1782.94 33.2782
5818.9 1469.17 1494.04 1757.26 1811.98 32.8127
5821.77 1499.92 1470.15 1817.57 1762.38 33.0371
5824.64 1441.38 1466.86 1712.3 1758.1 32.3162
5827.51 1459.3 1446.47 1744.43 1728.57 32.6792
5830.38 1438.74 1468.53 1728.99 1754.09 32.2269
5833.25 1507.57 1468.19 1788.85 1765.67 33.5189
5836.12 1458.25 1467.28 1779.19 1760.31 32.1782
5838.99 1436.02 1437.55 1712.88 1743.22 32.0882
5841.85 1418.38 1419.41 1737.6 1732.17 31.816
5844.72 1403.84 1433.29 1746.02 1751.43 31.6788
5847.59 1477.65 1452.21 1770.66 1764.7 32.6103
5850.46 1475.13 1467.04 1777.41 1756.73 32.7044
5853.33 1448.32 1435.44 1722.13 1724.86 32.19
5856.2 1382.85 1452.39 1675.05 1743.28 31.2082
5859.07 1525.99 1473.92 1832.65 1804.81 33.2294
5861.93 1512.91 1505.08 1906.74 1846.33 32.0099
5864.8 1476.33 1461.85 1799.61 1796.69 31.1119
5867.67 1396.32 1440.09 1683.72 1739.99 29.6233
5870.54 1447.61 1414.4 1736.65 1714.22 30.6157
5873.41 1399.28 1449.31 1722.28 1757.96 30.0509
5876.27 1501.03 1429.63 1814.94 1733.61 31.9848
5879.14 1388.59 1451.15 1663.6 1760.69 30.3811
5882.01 1463.82 1435.41 1803.52 1738.16 29.736
5884.87 1453.82 1499.84 1747.37 1821.38 27.4104
5887.74 1581.89 1505.17 1913.25 1820.31 27.4663
5890.61 1479.82 1495.02 1800.3 1801.82 25.0918
5893.48 1423.35 1455.86 1691.9 1780.67 24.7397
5896.34 1464.43 1423.08 1849.8 1741.67 26.226
5899.21 1381.47 1417.82 1683.3 1740.65 26.3266
5902.07 1407.55 1419.06 1688.86 1690.63 27.8888
5904.94 1468.14 1432.75 1699.72 1705.48 29.8575
5907.81 1422.56 1452.22 1727.85 1735.18 29.6918
5910.67 1465.95 1433.86 1777.96 1742.51 30.3913
5913.54 1413.06 1439.09 1721.73 1764.38 29.587
5916.41 1438.26 1451.05 1793.44 1779.92 30.1843
5919.27 1501.83 1499.34 1824.61 1830.49 31.5625
5922.14 1557.93 1538.2 1873.43 1868.96 32.5644
5925 1554.84 1556.57 1908.85 1874.86 32.33
5927.87 1556.93 1556.58 1842.31 1875.26 32.171
5930.73 1557.96 1505.84 1874.62 1831.87 31.942
5933.6 1402.62 1465.14 1778.66 1793.12 29.6009
5936.46 1434.83 1428.39 1726.08 1764.4 30.5277
5939.33 1447.73 1428.97 1788.45 1756.23 31.0202
5942.19 1404.35 1417.41 1754.17 1754.99 30.5223
5945.06 1400.14 1429.88 1722.33 1758.7 30.1388
5947.92 1485.15 1461.05 1799.58 1786.95 31.3765
5950.79 1497.86 1480.67 1838.92 1788.25 31.5947
5953.65 1458.99 1470.25 1726.26 1776.46 30.7913
5956.52 1453.91 1462.39 1764.19 1761.82 31.0289
5959.38 1474.28 1472.76 1795 1803.62 31.4463
5962.24 1490.1 1494.84 1851.68 1836.03 32.0995
5965.11 1520.15 1502.72 1861.43 1839.79 32.4929
5967.97 1497.91 1491.26 1806.28 1815.41 32.3379
5970.83 1455.73 1464.6 1778.53 1772.23 31.1504
5973.7 1440.16 1393.27 1731.89 1694.97 31.1704
5976.56 1283.93 1311.49 1574.51 1598 28.6315
5979.43 1210.39 1252.44 1487.6 1526.53 27.5455
5982.29 1262.99 1267.04 1517.47 1549.02 28.7415
5985.15 1327.74 1296.6 1641.99 1581.21 30.0402
5988.01 1299.06 1327.89 1584.18 1631.24 29.5418
5990.88 1356.88 1322.83 1667.56 1623.32 30.4155
5993.74 1312.56 1339.26 1618.22 1666.72 29.5605
5996.6 1348.35 1329.39 1714.4 1690.35 30.084
5999.46 1327.24 1355.12 1738.44 1769.01 29.3331
6002.33 1389.77 1345.97 1854.2 1793.15 30.1729
6005.19 1320.89 1337.17 1786.82 1802.58 29.3531
6008.05 1300.85 1312.6 1766.72 1742.71 29.0706
6010.91 1316.06 1327.19 1674.6 1741.74 29.7354
6013.77 1364.66 1349.97 1783.89 1763.62 30.4209
6016.64 1369.18 1371.78 1832.37 1810.63 30.6956
6019.5 1381.5 1393.14 1815.61 1840.49 30.9507
6022.36 1428.75 1380.91 1873.48 1818.26 31.8611
6025.22 1332.49 1388.58 1765.7 1833.22 30.1094
6028.08 1404.51 1360.72 1860.48 1805.94 31.0484
6030.94 1345.17 1377.27 1791.64 1810.71 30.0964
6033.8 1382.15 1350.46 1779.99 1786.69 30.9044
6036.66 1324.07 1341.47 1788.44 1786.31 29.9116
6039.53 1318.19 1325.53 1790.51 1790.4 29.6188
6042.39 1334.33 1326.14 1792.25 1777.24 30.0116
6045.25 1325.9 1355.74 1748.97 1788.92 30.1434
6048.11 1407 1359.9 1825.53 1799.26 31.7524
6050.97 1346.79 1402.35 1823.28 1861.34 30.3504
6053.83 1453.26 1402.02 1935.21 1861.78 32.4028
6056.69 1406 1394.08 1826.85 1837.8 31.3615
6059.55 1322.98 1338.52 1751.34 1767.56 30.2112
6062.41 1286.6 1321.38 1724.5 1745.54 29.5972
6065.27 1354.55 1343.06 1760.78 1770.58 30.5269
6068.13 1388.03 1364.14 1826.47 1788.58 31.2609
6070.99 1349.83 1381.77 1778.5 1827.4 30.3243
6073.84 1407.45 1357.16 1877.24 1816.66 31.5931
6076.7 1314.19 1367.45 1794.24 1844.29 29.9733
6079.56 1380.71 1354.97 1861.4 1828.31 31.0951
6082.42 1370.03 1360.16 1829.29 1819.98 31.0889
6085.28 1329.76 1348.51 1769.27 1786.21 30.3658
6088.14 1345.75 1359.57 1760.09 1805.15 30.5496
6091 1403.21 1356.02 1886.09 1801.08 31.6444
6093.86 1319.1 1385.23 1757.05 1840.22 29.9506
6096.71 1433.38 1353.73 1877.52 1803.92 32.346
6099.57 1308.71 1355.32 1777.18 1808.71 29.9349
6102.43 1323.87 1348.38 1771.43 1801.36 30.1333
6105.29 1412.56 1356.99 1855.47 1800.69 31.7344
6108.15 1334.54 1375.54 1775.17 1827.1 30.455
6111 1379.52 1329.7 1850.65 1775.28 31.1828
6113.86 1275.04 1345.91 1700.03 1779.62 29.5942
6116.72 1383.16 1351.67 1788.17 1777.36 31.4888
6119.57 1396.8 1391.43 1843.87 1819.56 31.6609
6122.43 1394.35 1417.19 1826.64 1860.78 31.7561
6125.29 1460.42 1424.37 1911.83 1863.59 32.9793
6128.15 1418.33 1445.39 1852.28 1884.66 32.2545
6131 1457.43 1443.37 1889.87 1879.01 32.6576
6133.86 1454.36 1452.65 1894.88 1892.35 32.3871
6136.71 1446.15 1429.16 1892.29 1869.65 31.7972
6139.57 1386.96 1408.2 1821.76 1855.65 30.7614
6142.43 1391.5 1391.3 1852.89 1838.74 30.7692
6145.28 1395.45 1407.04 1841.56 1866.81 31.1692
6148.14 1434.17 1430.42 1905.97 1873.99 32.0719
6151 1461.64 1437.88 1874.43 1884.03 32.5513
6153.85 1417.83 1431.33 1871.67 1861.41 31.987
6156.71 1414.52 1426.17 1838.12 1866.3 31.8873
6159.56 1446.14 1408.54 1889.12 1837.42 32.4163
6162.42 1364.95 1411.05 1785.03 1853.62 31.3647
6165.27 1422.06 1411.29 1886.71 1843.54 31.6431
6168.13 1446.86 1450.17 1858.88 1890.42 31.8659
6170.98 1481.58 1437.51 1925.68 1866.37 32.2646
6173.84 1384.08 1416.58 1814.56 1851.27 31.069
6176.69 1384.09 1392.24 1813.57 1836.98 31.3051
6179.55 1408.55 1413.7 1882.81 1871.25 31.6822
6182.4 1448.46 1420.82 1917.38 1890.61 32.3839
6185.25 1405.46 1420.03 1871.63 1880.95 31.6707
6188.11 1406.16 1391.15 1853.84 1822.45 31.7924
6190.96 1361.83 1404.9 1741.87 1818.11 31.5297
6193.82 1446.72 1383.1 1858.63 1788.09 32.6577
6196.67 1340.76 1370.23 1763.77 1785.33 30.7122
6199.52 1323.23 1358.55 1733.58 1779.21 30.0367
6202.38 1411.66 1370.2 1840.29 1788.36 31.4565
6205.23 1375.71 1388.29 1791.21 1815.49 31.1076
6208.08 1377.51 1391.87 1814.96 1831.8 31.1491
6210.94 1422.41 1383.61 1889.23 1829.02 31.772
6213.79 1350.93 1378.02 1782.88 1815.92 30.4684
6216.64 1360.74 1386.23 1775.66 1810.87 30.6134
6219.49 1447.02 1389.01 1874.07 1822.74 32.0552
6222.35 1359.27 1371.64 1818.48 1806.78 30.4235
6225.2 1308.64 1347.24 1727.8 1794.49 29.8087
6228.05 1373.8 1348.81 1837.18 1773.65 30.1253
6230.9 1363.98 1358.74 1755.97 1774.94 29.4368
6233.76 1338.43 1357.92 1731.66 1756.32 27.5878
6236.61 1371.34 1382.32 1781.32 1795.07 27.9027
6239.46 1437.19 1391.73 1872.23 1822.01 29.3571
6242.31 1366.65 1395.19 1812.49 1819.15 28.6613
6245.16 1381.73 1394.01 1772.74 1790.34 29.6677
6248.01 1433.66 1383 1785.8 1765.47 31.2107
6250.86 1333.6 1351.34 1737.87 1728 29.0337
6253.72 1286.76 1305.34 1660.33 1698.95 27.9772
6256.57 1295.65 1288.49 1698.65 1678.08 27.5058
6259.42 1283.05 1298.1 1675.27 1704.96 27.4105
6262.27 1315.61 1300.02 1740.98 1717.57 28.2547
6265.12 1301.4 1297.16 1736.45 1723.79 28.1454
6267.97 1274.48 1315.82 1693.95 1734.14 28.257
6270.82 1371.59 1338.22 1772.02 1742.79 30.3008
6273.67 1368.6 1364.86 1762.39 1766.8 30.4372
6276.52 1354.39 1360.98 1766.01 1753.85 30.5194
6279.37 1359.95 1332.98 1733.14 1734.45 30.4255
6282.22 1284.61 1334.63 1704.19 1734.64 28.4695
6285.07 1359.32 1299.42 1766.58 1708 29.2975
6287.92 1254.32 1328.13 1653.22 1747.41 27.5589
6290.77 1370.74 1336.35 1822.41 1727.67 28.6872
6293.62 1383.98 1354.31 1707.38 1763.39 26.0724
6296.46 1308.2 1362.99 1760.39 1747.08 22.4517
6299.31 1396.8 1372.43 1773.48 1775.34 22.6324
6302.16 1412.31 1379.07 1792.15 1765.44 23.2956
6305.01 1328.09 1328.63 1730.68 1714.86 23.5786
6307.86 1245.49 1285.86 1621.76 1679.79 24.0781
6310.71 1284.01 1284.61 1686.92 1678.42 26.2397
6313.56 1324.34 1272.61 1726.58 1685.66 28.029
6316.4 1209.48 1300.3 1643.49 1705.49 26.8526
6319.25 1367.07 1303.71 1746.41 1709.79 29.9478
6322.1 1334.57 1342.71 1739.48 1737.48 29.2041
6324.95 1326.5 1357.69 1726.55 1755.72 28.8596
6327.79 1412.01 1319.73 1801.14 1709.01 30.1158
6330.64 1220.7 1312.06 1599.34 1700.95 26.9401
6333.49 1303.48 1301.84 1702.37 1690.07 29.0225
6336.34 1381.34 1346.88 1768.49 1747.9 30.9718
6339.18 1355.81 1326.53 1772.83 1709.41 30.9622
6342.03 1242.45 1321.96 1586.9 1687.75 29.0059
6344.88 1367.63 1329.23 1703.53 1691.03 30.9011
6347.72 1377.61 1349.74 1782.67 1720.82 30.9669
6350.57 1303.99 1341.39 1676.26 1731.68 29.35
6353.41 1342.57 1335.42 1736.12 1704.12 29.3418
6356.26 1359.69 1363.08 1699.98 1755.03 28.8579
6359.11 1386.99 1383.71 1829 1790.8 28.0298
6361.95 1404.45 1383.53 1843.42 1813.7 28.0144
6364.8 1359.15 1366.54 1768.68 1782.06 27.7137
6367.64 1336.03 1336.74 1734.08 1734.82 28.2531
6370.49 1315.04 1348.88 1701.7 1755.74 29.025
6373.33 1395.57 1336.28 1831.45 1734.41 31.0263
6376.18 1298.23 1338.4 1670.08 1714.01 29.4985
6379.02 1321.38 1349.99 1640.51 1709.58 30.2386
6381.87 1430.37 1382.32 1818.16 1739.78 31.9745
6384.71 1395.21 1409.11 1760.67 1773.42 31.4986
6387.56 1401.75 1375.21 1741.41 1725.42 31.752
6390.4 1328.66 1366.99 1674.19 1719.39 30.9234
6393.25 1370.57 1346.6 1742.56 1723.6 31.7374
6396.09 1340.56 1346.35 1754.05 1738.86 31.3565
6398.94 1327.92 1355.6 1719.98 1758.2 31.0782
6401.78 1398.31 1377.8 1800.58 1768.88 32.4153
6404.62 1407.17 1391.68 1786.09 1792.19 32.9985
6407.47 1369.57 1386.82 1789.89 1784.88 31.8351
6410.31 1383.72 1368.3 1778.64 1785.65 32.3323
6413.15 1351.62 1339.69 1788.41 1740.85 31.1801
6416 1283.73 1356.67 1655.49 1756.01 30.2286
6418.84 1434.65 1364.2 1824.13 1740.15 32.809
6421.68 1374.22 1426.08 1740.84 1824.54 31.9251
6424.52 1469.37 1389.09 1908.65 1771.51 33.3067
6427.37 1323.69 1399.15 1665.03 1788.45 31.274
6430.21 1404.4 1334.85 1791.67 1709.65 32.6196
6433.05 1276.46 1356.32 1672.25 1733.74 30.5304
6435.89 1388.11 1360.58 1737.3 1730.82 32.4262
6438.74 1417.17 1388.55 1782.91 1749.29 33.16
6441.58 1360.38 1384.34 1727.65 1747.49 32.066
6444.42 1375.46 1346.38 1731.91 1712.83 32.4246
6447.26 1303.29 1349.28 1678.92 1718.6 30.8361
6450.1 1369.09 1344.63 1744.97 1737.27 32.0101
6452.94 1361.5 1345.9 1787.93 1746.32 31.6324
6455.78 1307.11 1347.88 1706.06 1752.06 30.4272
6458.63 1375.03 1327.7 1762.19 1708.17 31.1975
6461.47 1300.95 1341.76 1656.28 1716.28 29.0873
6464.31 1349.3 1331.43 1730.39 1713.66 29.0118
6467.15 1344.03 1344.91 1754.31 1750.15 28.6546
6469.99 1341.39 1382.27 1765.74 1777.5 29.0104
6472.83 1461.37 1400.91 1812.45 1779.79 31.7023
6475.67 1399.97 1427.73 1761.18 1780.07 31.405
6478.51 1421.86 1422.49 1766.58 1780.68 32.0877
6481.35 1445.64 1431.61 1814.27 1795.29 33.0941
6484.19 1427.34 1427.61 1805.02 1800.42 33.0732
6487.03 1409.84 1374.53 1781.96 1746.58 32.8903
6489.87 1286.41 1336.77 1652.76 1705.29 30.4581
6492.71 1314.07 1305.96 1681.15 1673.17 29.6958
6495.54 1317.38 1342.41 1685.6 1722 28.7077
6498.38 1395.78 1370.57 1799.25 1754.04 29.3207
6501.22 1398.54 1398.14 1777.27 1783.97 29.694
6504.06 1400.1 1389.04 1775.4 1757.15 30.4839
6506.9 1368.46 1356.27 1718.77 1709.44 30.7741
6509.74 1300.24 1305.97 1634.14 1655.31 29.9076
6512.58 1249.21 1282.97 1613 1622.36 29.5549
6515.41 1299.46 1291.74 1619.93 1639.68 30.3355
6518.25 1326.57 1339.8 1686.11 1682.82 30.6055
6521.09 1393.37 1357.27 1742.43 1713.12 31.9949
6523.93 1351.86 1392.61 1710.82 1760.16 30.8888
6526.76 1432.6 1359.24 1827.23 1732.41 31.9433
6529.6 1293.27 1379.81 1659.17 1757.63 28.7978
6532.44 1413.56 1341.17 1786.49 1702.82 30.6689
6535.28 1316.68 1352.44 1662.79 1714.51 29.4555
6538.11 1327.08 1352.96 1694.24 1721.92 29.7731
6540.95 1415.11 1374.65 1808.72 1743.58 31.2332
6543.79 1381.75 1385.32 1727.77 1744.72 30.9556
6546.62 1359.08 1357.17 1697.67 1696.81 30.0683
6549.46 1330.66 1349.43 1665 1699.65 29.0337
6552.29 1358.54 1333.54 1736.27 1687.01 29.2834
6555.13 1311.43 1357.66 1659.77 1728.23 28.846
6557.97 1403.02 1349.15 1788.65 1719.3 30.4553
6560.8 1333 1369.28 1709.48 1740.28 29.4845
6563.64 1371.82 1362.64 1722.72 1726 30.475
6566.47 1383.09 1375.56 1745.79 1714.56 31.0157
6569.31 1371.78 1372.37 1675.16 1691.28 30.8364
6572.14 1362.23 1377.11 1652.88 1702.21 30.2192
6574.98 1397.3 1405.05 1778.6 1742.76 30.4082
6577.81 1455.61 1389.43 1796.78 1739.14 31.2703
6580.65 1315.37 1381.27 1642.03 1714.35 29.8814
6583.48 1372.83 1374.99 1704.24 1706.51 31.5138
6586.32 1436.78 1381.27 1773.27 1710.88 33.0255
6589.15 1334.2 1355.45 1655.12 1679.58 31.3257
6591.98 1295.37 1318.27 1610.35 1642.06 30.7022
6594.82 1325.22 1344.32 1660.71 1670.6 31.0955
6597.65 1412.36 1358.41 1740.75 1684.67 32.0179
6600.48 1337.64 1375.31 1652.56 1700.05 30.6594
6603.32 1375.93 1370.03 1706.84 1705.9 31.1156
6606.15 1396.51 1373.51 1758.31 1717.12 31.7571
6608.98 1348.1 1402.6 1686.21 1753.54 31.6232
6611.82 1463.18 1387.9 1816.11 1722.93 33.8731
6614.65 1352.41 1440.25 1666.47 1795.43 32.3912
6617.48 1505.16 1431.34 1903.7 1784.63 34.4621
6620.31 1436.46 1441.4 1783.73 1814.84 33.6541
6623.15 1382.59 1429.16 1757.09 1784.29 32.3784
6625.98 1468.42 1418.46 1812.04 1766.98 33.6969
6628.81 1404.37 1436.18 1731.81 1778.4 32.5462
6631.64 1435.75 1426.21 1791.36 1772.59 32.6343
6634.47 1438.51 1418.42 1794.61 1768.16 33.0986
6637.31 1381 1437.03 1718.51 1805.15 32.2747
6640.14 1491.58 1442.33 1902.33 1820.29 34.4312
6642.97 1454.4 1508.55 1840.02 1910.77 33.7161
6645.8 1579.66 1537.5 1989.98 1925.68 36.1062
6648.63 1578.44 1556.22 1947.05 1946 35.8871
6651.46 1510.55 1562.73 1900.96 1946.43 34.8205
6654.29 1599.18 1707.99 1991.28 2135.96 35.9364
6657.12 2014.24 1989.03 2515.65 2473.82 41.3539
6659.95 2353.66 2273.73 2914.52 2818.63 45.8029
6662.78 2453.3 2383.07 3025.71 2924.03 46.733
6665.61 2342.24 2258.71 2831.86 2755.87 45.1593
6668.44 1980.59 2039.16 2410.04 2477.38 40.7815
6671.27 1794.64 1798.52 2190.26 2201.09 38.803
6674.1 1620.32 1685.99 2002.99 2067.54 36.3377
6676.93 1643.02 1681.29 2009.37 2068.13 36.8022
6679.76 1780.53 1725.5 2192.05 2125.71 38.8648
6682.59 1752.96 1778.04 2175.71 2191.57 38.3829
6685.42 1800.64 1749.74 2206.95 2161.74 39.1176
6688.25 1695.62 1677.46 2102.56 2071.35 37.4881
6691.08 1536.12 1589.93 1904.53 1955.01 34.9265
6693.9 1538.06 1521.66 1857.94 1872.73 35.6457
6696.73 1490.81 1496.5 1855.71 1843.83 34.6827
6699.56 1460.64 1460.24 1817.85 1813.48 33.9725
6702.39 1429.26 1480.89 1766.89 1840.09 33.5609
6705.22 1552.77 1473.07 1935.52 1818.64 35.5906
6708.04 1437.19 1476.4 1753.52 1823.58 34.0076
6710.87 1439.24 1449.34 1781.69 1779.59 33.6214
6713.7 1471.6 1459.36 1803.56 1801.05 34.4171
6716.53 1467.24 1487.58 1817.89 1823.38 33.993
6719.35 1523.91 1502.67 1848.69 1850 35.4245
6722.18 1516.85 1508.61 1883.43 1865.62 35.2732
6725.01 1485.07 1485.37 1864.76 1853.75 34.3407
6727.83 1454.19 1481.63 1813.05 1836.46 34.0153
6730.66 1505.63 1449.92 1831.58 1790.47 34.7604
6733.48 1389.94 1430.85 1726.77 1752.3 33.2952
6736.31 1396.97 1408.37 1698.56 1725.97 33.1713
6739.14 1438.19 1432.66 1752.57 1754.46 33.7751
6741.96 1462.81 1435.63 1812.25 1775.44 34.1165
6744.79 1405.88 1423.37 1761.5 1766.3 32.9999
6747.61 1401.42 1408.08 1725.15 1747.95 33.2863
6750.44 1416.93 1406.26 1757.2 1728.23 33.6116
6753.26 1400.43 1441.66 1702.33 1776.54 33.2955
6756.09 1507.61 1459.34 1870.09 1781.55 34.7704
6758.91 1469.99 1464.06 1772.24 1773.4 34.5941
6761.74 1414.59 1456.1 1677.87 1768.46 33.9671
6764.56 1483.73 1424.25 1855.27 1744.7 34.2541
6767.39 1374.42 1448.79 1700.98 1796.7 33.1658
6770.21 1488.23 1435.48 1833.84 1765.92 34.957
6773.03 1443.8 1456.51 1762.93 1785.82 34.4077
6775.86 1437.49 1442.66 1760.7 1743.13 34.1934
6778.68 1446.69 1446.99 1705.75 1741.4 34.5886
6781.51 1456.79 1472.9 1757.77 1762.21 34.42
6784.33 1515.21 1481.72 1823.12 1803.5 35.2739
6787.15 1473.16 1505.18 1829.6 1843.45 34.2862
6789.97 1527.16 1480.57 1877.62 1824.7 35.6387
6792.8 1441.39 1486.19 1766.89 1821.08 34.2787
6795.62 1490 1476.46 1818.73 1799.28 34.948
6798.44 1497.98 1514.33 1812.23 1845.99 35.0596
6801.26 1555.01 1491.02 1907.02 1817.19 35.9081
6804.09 1420.06 1477.14 1732.33 1805.16 33.8684
6806.91 1456.34 1433.93 1776.14 1757.02 34.7013
6809.73 1425.38 1464.75 1762.6 1795.08 33.6991
6812.55 1512.53 1503.22 1846.48 1852.43 35.0602
6815.37 1571.75 1589.65 1948.21 1950.52 36.185
6818.2 1684.68 1620.47 2056.87 1975.53 37.1502
6821.02 1604.98 1611.21 1921.53 1958.47 34.6382
6823.84 1543.96 1572.49 1897.02 1907.08 31.267
6826.66 1568.53 1554.45 1902.69 1890.34 29.6822
6829.48 1550.85 1538.41 1871.3 1846.28 28.6389
6832.3 1495.86 1551.16 1764.84 1847.28 27.876
6835.12 1606.77 1559.04 1905.7 1851.92 30.6098
6837.94 1574.48 1548.74 1885.21 1847.86 31.5236
6840.76 1464.97 1492.13 1752.66 1778.11 31.183
6843.58 1436.93 1430.74 1696.47 1719.99 32.2179
6846.4 1390.33 1395.5 1710.84 1688.83 32.1096
6849.22 1359.25 1407.96 1659.18 1715.01 32.3069
6852.04 1474.29 1404.54 1775.02 1705.12 34.4587
6854.86 1380.08 1413.99 1681.15 1717.55 31.6605
6857.68 1387.6 1386.38 1696.48 1693.92 29.105
6860.5 1391.45 1361.93 1704.14 1677.02 27.4756
6863.31 1306.74 1275.36 1630.44 1582.16 25.4836
6866.13 1127.9 1191.82 1411.9 1486.11 24.0636
6868.95 1140.82 1141.23 1416 1400 25.7796
6871.77 1154.98 1137.28 1372.09 1380.37 27.757
6874.59 1116.05 1128.5 1353.01 1355.13 27.5042
6877.41 1114.47 1163.34 1340.3 1406.39 27.8003
6880.22 1259.5 1222.9 1525.84 1470.52 30.5391
6883.04 1294.71 1282.04 1545.42 1542.52 30.6716
6885.86 1291.91 1275.83 1556.3 1537.08 30.418
6888.68 1240.86 1265.77 1509.52 1538.54 29.5762
6891.49 1264.54 1255.85 1549.78 1523.42 30.073
6894.31 1262.16 1264.04 1510.96 1533.61 30.0256
6897.13 1265.41 1260.62 1540.1 1518.16 29.974
6899.94 1254.29 1249.76 1503.43 1515.53 29.7844
6902.76 1229.57 1264.92 1503.06 1526.39 29.5287
6905.58 1310.91 1296.64 1572.69 1561.26 30.6517
6908.39 1349.45 1348.77 1608.04 1609.34 30.7682
6911.21 1385.94 1387.66 1647.29 1666.2 31.0219
6914.02 1427.58 1391.73 1743.27 1675.38 31.5455
6916.84 1361.68 1383.81 1635.57 1675.88 29.794
6919.65 1362.18 1353.9 1648.79 1610.6 28.9009
6922.47 1337.84 1375.68 1547.43 1634.02 28.4434
6925.28 1427.01 1369.03 1705.84 1617.55 30.9994
6928.1 1342.25 1371.38 1599.37 1625.94 30.757
6930.91 1344.89 1340.36 1572.62 1593.14 31.2894
6933.73 1333.95 1335.04 1607.43 1574.07 30.9134
6936.54 1326.27 1331.52 1542.17 1588.43 30.3472
6939.36 1334.33 1339.22 1615.68 1579.32 30.0956
6942.17 1357.06 1350.07 1580.09 1613.13 29.8524
6944.98 1358.82 1336.33 1643.62 1598.04 28.5699
6947.8 1293.09 1306.93 1570.41 1575.64 27.094
6950.61 1268.88 1303.45 1512.89 1560.82 27.6482
6953.43 1348.38 1321.57 1599.16 1569.93 30.1098
6956.24 1347.46 1346.95 1597.74 1609.65 31.3959
6959.05 1345.03 1354.19 1632.03 1622.16 31.9699
6961.86 1370.09 1361.92 1636.7 1632.79 32.3944
6964.68 1370.64 1359.61 1629.64 1630.66 32.1078
6967.49 1338.09 1342.99 1625.66 1613.33 30.9459
6970.3 1320.26 1346.3 1584.7 1615.68 30.0535
6973.11 1380.55 1357.14 1636.68 1629.74 30.5762
6975.93 1370.62 1377.16 1667.84 1658.65 29.6279
6978.74 1380.31 1368.17 1671.43 1649.4 30.0733
6981.55 1353.58 1353.29 1608.92 1639.29 30.884
6984.36 1325.97 1354.89 1637.53 1625.87 31.2764
6987.17 1385.12 1344.36 1631.17 1618.26 33.1596
6989.98 1321.98 1369.87 1586.1 1625.47 32.4422
6992.79 1402.53 1356.44 1659.15 1617.63 34.0839
6995.6 1344.82 1363.56 1607.66 1623.21 32.8077
6998.42 1343.35 1355.84 1602.82 1618.66 32.3176
7001.23 1379.35 1334.7 1645.5 1599.52 32.72
7004.04 1281.41 1319.3 1550.25 1579.46 30.7293
7006.85 1297.15 1320.25 1542.62 1558.23 30.6165
7009.66 1382.19 1340.99 1581.81 1580.89 32.1044
7012.47 1343.64 1383.42 1618.25 1623.5 31.5915
7015.28 1424.44 1369.76 1670.44 1625.64 34.0268
7018.08 1341.2 1382.82 1588.22 1632.35 33.0624
7020.89 1382.83 1353.2 1638.38 1612.57 33.9441
7023.7 1335.56 1340.31 1611.12 1598.05 33.1228
7026.51 1302.55 1334.88 1544.65 1589.78 32.9375
7029.32 1366.52 1311.96 1613.56 1546.83 33.9225
7032.13 1266.82 1310.41 1482.27 1549.96 32.2533
7034.94 1297.89 1315.87 1554.05 1555.51 32.3592
7037.75 1382.9 1311.5 1630.22 1568.78 33.7803
7040.55 1253.71 1329.83 1522.08 1570.47 30.882
7043.36 1352.88 1312.48 1559.11 1557.48 32.1227
7046.17 1330.86 1317.51 1591.24 1551.76 31.4066
7048.98 1268.79 1313.96 1504.94 1554.79 30.597
7051.78 1342.24 1312.94 1568.18 1538.68 32.3425
7054.59 1327.8 1277.18 1542.92 1552.29 32.4849
7057.4 1161.51 1239.46 1545.77 1555.7 28.9403
7060.2 1229.06 1195.78 1578.42 1543.66 30.491
7063.01 1196.77 1234.81 1506.8 1582.86 29.9721
7065.82 1278.59 1224.09 1663.35 1575.84 31.3193
7068.62 1196.9 1239.8 1557.36 1600.04 29.8558
7071.43 1243.9 1204 1579.41 1552.58 30.7222
7074.24 1171.21 1221.12 1520.97 1569.62 29.4327
7077.04 1248.24 1233.55 1608.48 1601.57 30.5443
7079.85 1281.2 1267.27 1675.25 1619.59 31.0994
7082.65 1272.36 1254.01 1575.03 1612.74 30.8435
7085.46 1208.47 1227 1587.95 1572.2 29.5205
7088.26 1200.16 1200.33 1553.62 1572.44 29.4705
7091.07 1192.36 1209.6 1575.74 1559.68 29.5327
7093.87 1236.26 1212.9 1549.69 1561.62 30.8596
7096.68 1210.06 1227.28 1559.43 1539.69 30.5677
7099.48 1235.52 1208.2 1509.94 1520.9 31.3998
7102.28 1179.01 1192.13 1493.33 1497.77 30.0611
7105.09 1161.84 1179.36 1490.05 1513.94 29.7346
7107.89 1197.24 1201.49 1558.45 1549.97 30.0564
7110.7 1245.39 1196.73 1601.42 1521 31.0426
7113.5 1147.55 1205.6 1403.15 1507.78 29.6138
7116.3 1223.88 1195.08 1518.77 1482.01 31.3779
7119.11 1213.82 1223.73 1524.11 1532.77 31.0157
7121.91 1233.5 1223.95 1555.43 1528.37 31.2888
7124.71 1224.52 1221.12 1505.57 1528.31 31.0763
7127.51 1205.33 1179.48 1523.94 1489.25 30.1727
7130.32 1108.6 1182.39 1438.23 1507.02 28.5927
7133.12 1233.23 1184.32 1558.9 1508.35 30.8784
7135.92 1211.12 1232.12 1527.91 1542.01 30.4335
7138.72 1252.01 1234.01 1539.22 1544.76 31.219
7141.52 1238.91 1239.92 1567.16 1540.19 30.4392
7144.32 1228.83 1205.65 1514.21 1508.74 30.5899
7147.13 1149.23 1188.75 1444.85 1461.32 29.1818
7149.93 1188.19 1187.21 1424.9 1460.15 30.5427
7152.73 1224.21 1227.78 1510.71 1531.07 30.795
7155.53 1270.95 1209.04 1657.6 1556.5 31.6719
7158.33 1131.96 1223.99 1501.18 1566.99 29.0952
7161.13 1269.04 1185.88 1542.19 1493.77 31.8129
7163.93 1156.65 1178.79 1437.94 1452.42 29.8978
7166.73 1110.67 1120.2 1377.13 1384.47 29.2871
7169.53 1093.27 1101.71 1338.33 1363.75 29.1373
7172.33 1101.19 1080.25 1375.8 1315 29.3768
7175.13 1046.28 1071.33 1230.87 1300.25 28.4162
7177.93 1066.52 1043.44 1294.1 1271.59 28.9292
7180.73 1017.52 1038.32 1289.81 1297.54 27.9455
7183.53 1030.91 1012.18 1308.71 1260.5 28.4264
7186.32 988.115 1010.8 1182.96 1258.61 27.618
7189.12 1013.37 991.791 1284.14 1221.5 28.0566
7191.92 973.884 999.315 1197.39 1228.04 28.0674
7194.72 1010.69 1007.17 1202.58 1211.33 28.5691
7197.52 1036.92 1014.67 1234.03 1224.68 28.9526
7200.31 996.402 1062.76 1237.44 1294 28.4524
7203.11 1154.95 1064.06 1410.54 1315.64 30.7448
7205.91 1040.82 1077.95 1298.95 1323.37 28.6482
7208.71 1038.1 1079.89 1260.63 1341.83 29.0011
7211.5 1160.75 1114.43 1465.91 1368.28 30.694
7214.3 1144.45 1158 1378.29 1420.73 30.7404
7217.1 1168.81 1153.31 1418 1398.45 30.8158
7219.89 1146.67 1137.62 1399.06 1366.73 30.0578
7222.69 1097.38 1114.83 1283.14 1348.88 29.2748
7225.49 1100.44 1080.67 1364.45 1315.65 29.1581
7228.28 1044.18 1054.41 1299.35 1301.74 27.9478
7231.08 1018.6 1052.28 1241.43 1273.15 25.5022
7233.87 1094.05 1076.77 1278.67 1282.25 23.5045
7236.67 1117.67 1053.11 1326.66 1258.04 20.9771
7239.46 947.625 1026.06 1168.8 1224.42 16.5401
7242.26 1012.9 979.069 1177.8 1179.26 17.4248
7245.05 976.686 986.598 1191.18 1224.51 17.7676
7247.85 970.212 962.779 1304.55 1214.37 19.3582
7250.64 941.441 989.124 1147.39 1250.24 20.8306
7253.44 1055.72 1010.23 1298.8 1221.09 24.56
7256.23 1033.51 1013.73 1217.08 1224.05 25.8404
7259.03 951.954 1005.32 1156.26 1208.12 25.3877
7261.82 1030.48 997.556 1251.02 1207.31 27.2544
7264.61 1010.23 990.29 1214.66 1194.93 27.1717
7267.41 930.155 1004.19 1119.1 1186.27 23.2352
7270.2 1072.19 985.959 1225.05 1165.53 22.3446
7272.99 955.537 1000.35 1152.42 1202.78 18.1793
7275.78 973.33 970.426 1230.86 1217.82 17.6386
7278.58 982.412 999.789 1270.17 1251.64 18.3244
7281.37 1043.63 1029.97 1253.88 1279.26 20.1255
7284.16 1063.87 1046.86 1313.73 1273.7 21.7418
7286.95 1033.09 1026.42 1253.49 1278.14 23.35
7289.75 982.296 1029.67 1267.21 1277.32 23.6689
7292.54 1073.61 1012.07 1311.27 1260.33 25.8843
7295.33 980.3 1051 1202.51 1257.22 24.3357
7298.12 1099.1 1044.25 1257.89 1211.4 26.1226
7300.91 1053.36 1052.59 1173.8 1217.23 25.0258
7303.7 1005.3 1007.2 1220 1183.07 24.1315
7306.49 962.935 1011.69 1155.41 1196.35 23.4966
7309.28 1066.83 1018.08 1213.64 1177.94 23.1214
7312.07 1024.47 1021.1 1164.78 1194.35 20.5365
7314.86 972.017 1027.15 1204.62 1219.1 18.8498
7317.65 1084.96 1034.2 1287.91 1276.26 21.9657
7320.44 1045.63 1084.03 1336.25 1330.5 22.7494
7323.23 1121.49 1080.32 1367.34 1339.67 24.5461
7326.02 1073.83 1076.25 1315.43 1307.09 23.8745
7328.81 1033.44 1060.65 1238.49 1294.07 23.0948
7331.6 1074.69 1095.21 1328.29 1309.47 24.0571
7334.39 1177.52 1083.91 1361.63 1285.91 23.6187
7337.18 999.532 1101.65 1167.8 1284.27 18.969
7339.97 1127.9 1063.95 1323.37 1255.95 20.3243
7342.76 1064.43 1085.98 1276.68 1318.17 20.4779
7345.54 1065.62 1070.41 1354.45 1321.1 23.1943
7348.33 1081.2 1078.2 1332.19 1315.82 25.4111
7351.12 1087.8 1061.12 1260.83 1258.9 26.0636
7353.91 1014.38 1065.59 1183.67 1245.92 23.9698
7356.69 1094.6 1066.92 1293.27 1254.22 24.5016
7359.48 1091.77 1070.53 1285.73 1246.02 24.4076
7362.27 1025.21 1066.69 1159.05 1238.03 22.2355
7365.05 1083.09 1080.57 1269.33 1218.74 21.9292
7367.84 1133.39 1126.38 1227.83 1270.07 22.2029
7370.63 1162.66 1129.29 1313.07 1291.14 23.4418
7373.41 1091.81 1088.17 1332.53 1290.19 24.3972
7376.2 1010.05 1077.88 1224.98 1286.43 24.9682
7378.99 1131.79 1070.13 1301.79 1263.36 29.0599
7381.77 1068.56 1071.27 1263.31 1268.15 28.315
7384.56 1013.47 1062.22 1239.35 1246.79 26.4255
7387.34 1104.64 1062.08 1237.71 1240.84 27.1172
7390.13 1068.15 1068.98 1245.46 1234.98 25.438
7392.91 1034.15 1068.7 1221.78 1227.03 24.0717
7395.7 1103.81 1055.99 1213.84 1231.86 24.3437
7398.48 1030.01 1045.7 1259.97 1222.63 22.0241
7401.26 1003.27 1043.12 1194.09 1266.16 21.583
7404.05 1096.1 1082.49 1344.4 1280.36 24.6289
7406.83 1148.1 1106.68 1302.58 1306.47 27.4785
7409.62 1075.86 1099.97 1272.42 1263.63 27.5074
7412.4 1075.96 1074.41 1215.89 1224.92 28.6115
7415.18 1071.4 1082.22 1186.46 1210.98 29.0671
7417.97 1099.3 1095.16 1230.61 1222.56 29.8854
7420.75 1114.78 1095.64 1250.61 1222.55 29.7185
7423.53 1072.83 1095.96 1186.42 1225.8 28.1051
7426.31 1100.28 1087.49 1240.37 1202.12 27.6442
7429.1 1089.35 1116.41 1179.58 1247.05 27.1784
7431.88 1159.61 1119.82 1321.21 1240.93 27.8068
7434.66 1110.49 1115.09 1222.01 1258.11 26.0791
7437.44 1075.17 1117.27 1231.1 1249.01 25.2931
7440.22 1166.16 1113.21 1293.92 1258.06 27.8495
7443 1098.29 1137.18 1249.15 1282.98 27.8881
7445.79 1147.08 1128.42 1305.88 1271.54 30.0412
7448.57 1139.9 1142.35 1259.59 1283.16 30.372
7451.35 1140.07 1124.79 1283.99 1254.43 30.5841
7454.13 1094.4 1119.85 1219.71 1252.85 29.7161
7456.91 1125.09 1116.51 1254.84 1233.9 29.4368
7459.69 1130.03 1125.74 1227.15 1234.09 28.7764
7462.47 1122.09 1132.23 1220.28 1243.06 27.8898
7465.25 1144.57 1145.21 1281.73 1265.68 27.172
7468.03 1168.96 1119.28 1295.01 1228.14 26.8577
7470.81 1044.32 1099.72 1107.68 1209.76 24.1689
7473.59 1085.88 1096.98 1226.58 1209.46 24.583
7476.36 1160.74 1106.45 1294.13 1246.77 25.474
7479.14 1072.73 1128.89 1219.59 1260.44 23.4756
7481.92 1153.21 1095.88 1267.61 1234.16 25.4503
7484.7 1061.71 1104.21 1215.27 1241.44 24.9892
7487.48 1097.72 1104.18 1241.45 1254.82 26.9707
7490.26 1153.12 1104.75 1307.76 1235.72 28.976
7493.03 1063.42 1083 1157.96 1221.06 27.5487
7495.81 1032.45 1041.44 1197.47 1173.68 27.516
7498.59 1028.45 1046.11 1165.6 1197.48 28.2172
7501.37 1077.41 1065.42 1229.36 1203.52 29.3017
7504.14 1090.39 1078.28 1215.59 1214.12 29.8318
7506.92 1067.02 1094.95 1197.41 1231.97 29.3001
7509.7 1127.44 1086.66 1282.92 1221.27 30.3474
7512.47 1065.53 1109.99 1183.47 1230.8 28.8486
7515.25 1136.99 1099.47 1225.99 1205.14 28.4008
7518.03 1095.88 1125.96 1205.96 1218.61 24.6224
7520.8 1145.01 1117.07 1223.88 1198.58 23.5174
7523.58 1110.32 1086.17 1165.91 1187.52 22.1905
7526.35 1003.17 1090.33 1172.77 1218.09 21.0818
7529.13 1157.49 1077.98 1315.59 1233.48 25.1551
7531.9 1073.27 1114.37 1212.09 1247.13 25.5795
7534.68 1112.35 1060.1 1213.71 1170.08 27.8876
7537.45 994.681 1044.69 1084.44 1156.22 26.3898
7540.23 1027.04 1021.28 1170.5 1135.74 27.5239
7543 1042.13 1018.98 1152.27 1161.09 28.0554
7545.77 987.783 1025.54 1160.5 1153.62 27.2482
7548.55 1046.71 1022.55 1148.08 1146.52 28.3817
7551.32 1033.16 1037.81 1130.99 1129.13 27.5934
7554.09 1033.55 1041.16 1108.33 1123.28 27.0322
7556.87 1056.78 1049.33 1130.53 1123.97 27.3162
7559.64 1057.66 1068 1133.05 1171.93 27.8308
7562.41 1089.57 1066.43 1252.21 1183.9 27.9799
7565.19 1052.04 1084.18 1166.43 1205.44 25.7375
7567.96 1110.93 1075.9 1197.69 1165.33 24.9766
7570.73 1064.73 1084.89 1131.88 1151.62 23.5471
7573.5 1079 1062.82 1125.3 1148.15 24.6289
7576.27 1044.73 1047.86 1187.28 1135.92 25.8404
7579.05 1019.84 1035.26 1095.18 1156.62 26.2564
7581.82 1041.22 1023.88 1187.4 1134.29 26.5342
7584.59 1010.58 1016.15 1120.29 1137.84 26.058
7587.36 996.661 955.3 1105.85 1079.77 26.2921
7590.13 858.658 863.33 1013.19 976.858 24.4856
7592.9 734.671 694.86 811.537 782.716 22.1566
7595.67 491.251 561.248 523.422 591.939 16.4243
7598.44 457.821 424.512 440.856 427.402 16.3967
7601.21 324.463 353.783 317.926 349.116 13.6725
7603.98 279.066 314.444 288.566 316.895 13.7904
7606.75 339.805 335.068 344.192 342.095 16.1281
7609.52 386.334 415.559 393.526 424.202 17.2357
7612.29 520.539 529.272 534.888 560.754 19.3331
7615.06 680.944 634.908 753.848 669.688 21.837
7617.83 703.241 674.278 720.329 729.164 21.8231
7620.59 638.649 663.692 713.314 709.888 19.9703
7623.36 649.185 612.443 696.02 668.194 20.2551
7626.13 549.493 593.882 595.249 622.673 17.7928
7628.9 582.966 576.997 576.749 597.209 19.0775
7631.67 598.532 584.87 619.63 595.85 20.4627
7634.43 573.113 601.27 591.17 622.23 20.9409
7637.2 632.164 623.678 655.888 660.74 22.6171
7639.97 665.758 644.493 735.16 694.957 23.2604
7642.74 635.556 666.55 693.823 727.18 22.8773
7645.5 698.337 684.795 752.557 728.127 24.0685
7648.27 720.491 726.479 738.002 768.678 23.5261
7651.03 760.608 762.956 815.475 813.968 23.9871
7653.8 807.77 803.549 888.427 867.957 24.3944
7656.57 842.269 840.703 899.969 909.049 24.2892
7659.33 872.071 875.445 938.752 934.027 24.1771
7662.1 911.996 887.915 963.361 937.951 25.2572
7664.86 879.677 906.54 911.739 952.752 24.8277
7667.63 927.947 929.193 983.155 975.155 26.8278
7670.39 979.956 953.853 1030.57 994.41 28.7792
7673.16 953.657 971.033 969.505 1004.64 28.3182
7675.92 979.485 957.759 1013.84 978.738 28.8205
7678.69 940.135 958.016 952.867 991.179 27.8018
7681.45 954.429 941.269 1006.83 985.876 27.646
7684.21 929.242 944.416 997.931 996.411 27.2989
7686.98 949.577 970.179 984.473 1013.2 26.781
7689.74 1031.72 976.513 1057.2 1005.68 28.362
7692.5 948.242 963.755 975.358 1001.16 26.5434
7695.27 911.303 952.293 970.927 988.89 25.6347
7698.03 997.334 954.748 1020.38 996.813 27.0143
7700.79 955.606 941.797 999.128 979.948 26.7556
7703.55 872.45 934.788 920.33 977.057 24.0978
7706.32 976.309 971.582 1011.71 986.092 22.7026
7709.08 1065.99 1008.61 1026.23 989.049 20.762
7711.84 983.526 1005.82 929.201 980.103 16.9128
7714.6 967.945 947.779 984.875 954.735 16.0925
7717.36 891.867 919.415 950.13 967.012 15.5423
7720.12 898.434 891.63 966.03 965.471 17.5657
7722.88 884.59 902.017 980.255 963.049 19.309
7725.64 923.027 924.672 942.863 972.715 21.7724
7728.41 966.399 946.896 995.027 964.894 24.4567
7731.17 951.263 951.212 956.792 979.496 25.5805
7733.93 935.975 958.318 986.67 972.69 25.6173
7736.69 987.716 952.28 974.609 971.46 27.2473
7739.44 933.148 929.038 953.102 965.652 26.0171
7742.2 866.249 926.467 969.245 949.947 22.9323
7744.96 980.004 926.052 927.494 929.603 20.6632
7747.72 931.904 949.799 892.071 914.931 17.5238
7750.48 937.49 937.19 925.228 947.882 17.0035
7753.24 942.177 940.003 1026.35 972.223 17.8817
7756 940.342 935.305 965.092 1001.52 19.2751
7758.76 923.395 912.346 1013.13 984.717 20.1252
7761.51 873.302 896.979 975.927 991.732 20.8876
7764.27 894.24 908.846 986.136 982.637 23.148
7767.03 958.994 944.252 985.849 994.341 25.4144
7769.79 979.521 945.802 1011.04 978.209 25.8842
7772.54 898.892 928.396 937.738 944.183 23.7257
7775.3 906.775 874.633 883.772 880.178 22.8835
7778.06 818.232 856.873 819.025 860.592 20.87
7780.81 845.612 839.772 878.979 864.655 21.6036
7783.57 855.471 855.565 895.962 893.041 22.7756
7786.33 865.613 894.827 904.183 901.484 22.0295
7789.08 963.398 915.145 904.306 888.265 20.9268
7791.84 916.424 937.746 856.307 911.765 18.76
7794.59 933.417 914.852 974.681 910.903 18.9498
7797.35 894.714 892.293 901.72 927.165 20.1432
7800.1 848.747 901.223 905.093 921.269 21.3913
7802.86 960.209 873.243 956.993 890.231 23.7896
7805.61 810.775 883.977 808.608 889.084 20.6185
7808.37 880.947 848.675 901.65 885.976 21.4652
7811.12 854.303 834.869 947.669 891.787 21.6067
7813.87 769.359 811.181 826.043 857.277 19.0679
7816.63 809.882 833.533 798.119 836.608 17.2094
7819.38 921.358 899.269 885.663 853.167 17.891
7822.13 966.567 926.628 875.72 895.237 18.8378
7824.89 891.96 893.713 924.329 878.611 19.3789
7827.64 822.613 864.792 835.784 884.534 20.84
7830.39 879.802 857.493 893.489 878.295 24.0922
7833.14 870.065 854.977 905.612 880.599 25.0084
7835.9 815.064 856.793 842.696 885.871 22.2091
7838.65 885.249 855.799 909.305 886.926 22.7091
7841.4 867.084 880.514 908.778 912.609 21.5154
7844.15 889.21 892.335 919.743 915.442 21.7466
7846.9 920.71 909.275 917.806 907.86 19.8142
7849.65 917.905 917.819 886.031 891.817 17.4267
7852.4 914.842 870.041 871.613 842.415 16.1118
7855.15 777.377 808.37 769.601 802.987 13.8078
7857.9 732.89 783.759 767.748 781.842 14.0834
7860.65 841.01 801.936 808.176 810.344 17.2334
7863.4 831.908 840.171 855.109 823.696 17.9556
7866.15 847.593 834.206 807.803 814.487 18.2066
7868.9 823.118 832.426 780.55 803.974 17.5932
7871.65 826.566 843.499 823.569 836.879 18.0726
7874.4 880.812 836.042 906.519 853.523 19.6532
7877.15 800.748 830.974 830.481 866.366 18.3826
7879.9 811.363 822.629 862.099 856.151 18.8345
7882.65 855.777 814.709 875.873 825.06 19.8625
7885.4 776.986 851.967 737.209 839.02 17.7919
7888.14 923.138 836.461 903.978 790.238 20.3197
7890.89 809.258 834.676 729.528 824.377 18.7408
7893.64 771.631 776.819 839.625 788.642 19.6583
7896.39 749.566 769.543 796.772 825.009 21.0474
7899.13 787.432 790.784 838.629 823.447 23.6778
7901.88 835.354 799.879 834.941 812.374 25.32
7904.63 776.85 784.921 763.552 771.434 22.9221
7907.37 742.558 800.626 715.809 776.171 17.2589
7910.12 882.47 778.854 849.152 764.811 16.5673
7912.87 711.533 814.027 729.471 795.599 12.4787
7915.61 848.077 811.079 808.174 813.737 14.3938
7918.36 873.628 841.468 903.566 829.224 16.0587
7921.1 802.699 849.498 775.933 873.25 16.2043
7923.85 872.165 834.472 940.25 854.975 19.1877
7926.59 828.552 829.125 848.743 857.177 19.2858
7929.34 786.659 812.007 782.537 831.9 18.6992
7932.08 820.81 835.999 864.42 836.331 19.9985
7934.83 900.529 846.507 862.035 843.392 23.2083
7937.57 818.183 846.277 803.721 823.122 23.3892
7940.31 820.121 810.06 803.609 786.452 24.4092
7943.06 791.875 826.224 752.026 789.281 22.6089
7945.8 866.676 816.508 812.208 775.484 22.6584
7948.54 790.973 788.45 762.22 768.969 20.724
7951.29 707.7 760.847 732.48 754.516 19.5708
7954.03 783.868 759.366 768.847 767.887 22.7643
7956.77 786.529 793.551 802.334 788.714 21.9448
7959.51 810.256 797.155 794.962 782.408 18.9523
7962.26 794.681 772.728 749.926 768.816 16.5759
7965 713.248 728.892 761.56 734.209 14.1387
7967.74 678.747 711.359 691.14 748.32 14.8526
7970.48 742.083 688.791 792.26 738.439 18.1029
7973.22 645.544 694.578 731.917 752.745 16.5426
7975.96 696.107 697.715 734.059 754.418 17.2998
7978.7 751.494 739.196 797.279 777.563 17.9438
7981.44 769.988 716.454 801.351 769.61 19.075
7984.18 627.88 696.543 710.2 767.003 17.0759
7986.92 691.761 706.243 789.459 742.535 16.729
7989.66 799.088 765.468 727.945 734.574 16.5526
7992.4 805.553 763.042 686.319 713.684 15.4292
7995.14 684.485 729.633 726.789 714.894 13.8125
7997.88 698.86 701.592 731.574 734.958 16.3588
8000.62 721.431 710.786 746.511 734.548 19.5827
8003.36 712.068 718.297 725.558 736.447 21.7085
8006.1 721.392 712.568 737.272 728.812 22.9216
8008.84 704.246 717.936 723.605 745.811 20.6889
8011.57 728.171 705.89 776.558 746.492 20.0049
8014.31 685.253 678.04 739.314 733.445 18.1596
8017.05 620.697 656.476 684.464 721.519 17.0832
8019.79 663.476 635.35 740.78 691.41 16.5259
8022.52 621.877 689.561 648.985 718.408 14.0757
8025.26 783.331 711.402 765.457 702.351 16.4607
8028 728.999 731.561 692.611 751.34 16.1045
8030.73 682.352 682.717 795.951 715.152 16.9513
8033.47 636.8 668.541 656.894 717.869 18.7297
8036.21 686.47 679.253 700.762 686.605 21.8904
8038.94 714.489 702.075 702.157 714.064 23.9012
8041.68 705.266 697.052 739.274 715.666 23.6662
8044.41 671.4 679.987 705.565 715.399 22.1808
8047.15 663.295 673.339 701.359 692.649 20.4638
8049.88 685.322 694.96 671.023 711.908 20.0239
8052.62 736.263 704.129 763.341 724.182 20.8013
8055.35 690.801 712.305 738.182 725.886 19.6635
8058.09 709.852 680.353 676.134 672.774 18.9756
8060.82 640.405 679.493 604.005 659.494 16.9027
8063.55 688.222 653.392 698.343 679.87 17.8776
8066.29 631.55 669.164 737.263 728.556 18.2059
8069.02 687.719 679.658 750.062 741.613 21.2646
8071.75 719.704 692.496 737.515 734.046 23.1539
8074.49 670.064 697.738 714.561 707.995 22.5798
8077.22 703.447 688.03 671.91 694.687 23.2871
8079.95 690.58 697.075 697.591 712.301 23.1252
8082.68 697.199 689.753 767.402 742.87 23.1476
8085.42 681.481 685.066 763.616 755.172 22.8358
8088.15 676.517 700.444 734.498 757.98 22.3288
8090.88 743.333 713.678 775.825 741.437 23.1749
8093.61 721.185 723.072 713.988 732.731 22.4906
8096.34 704.698 692.946 708.38 704.474 21.6544
8099.07 652.956 652.534 691.053 689.631 19.7939
8101.8 599.949 647.516 669.458 682.816 18.3245
8104.53 689.642 663.189 687.935 679.011 20.8769
8107.26 699.976 673.825 679.639 675.541 22.1773
8109.99 631.856 679.485 659.049 675.703 21.5825
8112.72 706.622 669.472 688.42 665.835 24.1353
8115.45 669.939 709.034 650.036 689.96 23.4926
8118.18 750.54 692.857 731.426 673.603 25.2944
8120.91 658.093 694.704 639.349 670.996 23.5412
8123.64 675.478 672.854 642.213 647.231 23.9374
8126.37 684.991 666.05 660.13 647.196 23.89
8129.09 637.682 667.752 639.244 657.366 22.7788
8131.82 680.583 647.406 672.724 645.758 23.7571
8134.55 623.952 653.429 625.305 643.097 21.7804
8137.28 655.753 620.448 631.262 616.262 22.2819
8140 581.639 619.467 592.218 612.949 20.1727
8142.73 621.009 601.057 615.367 596.771 21.4931
8145.46 600.523 621.216 582.729 614.486 20.8365
8148.18 642.117 611.685 645.362 617.336 21.9943
8150.91 592.415 611.008 623.916 619.662 21.2538
8153.64 598.492 587.547 589.708 592.708 22.3187
8156.36 571.733 601.706 564.5 582.643 21.3849
8159.09 634.892 599.164 593.72 585.099 23.5758
8161.81 590.865 604.454 597.076 584.975 22.8463
8164.54 587.604 596.178 564.129 582.551 22.4789
8167.26 610.066 601.225 586.449 570.517 22.7942
8169.99 606.004 606.17 560.973 578.184 22.7519
8172.71 602.439 584.498 587.129 574.228 22.796
8175.44 545.05 575.567 574.582 592.131 21.0273
8178.16 579.213 582.259 614.681 605.262 21.5166
8180.89 622.514 598.571 626.522 606.797 22.9031
8183.61 593.985 598.391 579.188 583.596 22.0222
8186.33 578.673 581.696 545.078 560.032 21.4824
8189.06 572.431 598.235 555.829 569.981 20.9083
8191.78 643.603 605.476 609.035 580.91 23.3029
8194.5 600.393 613.587 577.867 587.65 21.4574
8197.22 596.766 600.222 576.047 590.347 21.6583
8199.95 603.506 616.666 617.126 607.945 22.127
8202.67 649.724 628.349 630.663 608.716 23.4067
8205.39 631.815 632.511 578.359 593.606 23.0776
8208.11 615.994 624.785 571.798 587.687 22.6297
8210.83 626.545 615.963 612.905 583.681 22.7794
8213.55 605.351 616.369 566.339 597.113 22.4594
8216.27 617.212 606.968 612.096 574.784 22.8208
8218.99 598.341 598.671 545.916 554.678 22.7486
8221.71 580.459 574.566 506.022 525.556 22.5822
8224.43 544.897 529.718 524.731 483.03 21.5545
8227.15 463.798 517.598 418.336 480.385 19.886
8229.87 544.099 537.223 498.087 491.806 21.9786
8232.59 603.771 589.284 558.995 539.615 23.3547
8235.31 619.982 628.372 561.762 564.326 23.3283
8238.03 661.362 689.348 572.221 586.653 24.2014
8240.75 786.699 715.393 625.976 607.603 26.8297
8243.47 698.117 710.774 624.613 624.186 24.4422
8246.19 647.507 662.612 621.969 621.34 23.213
8248.9 642.213 629.343 617.439 609.17 22.8928
8251.62 598.311 599.689 588.101 584.809 21.8503
8254.34 558.544 593.059 548.887 572.685 20.9942
8257.06 622.323 598.301 581.066 567.868 23.1247
8259.77 614.037 633.106 573.65 578.507 23.0364
8262.49 662.958 624.297 580.806 577.382 24.2362
8265.21 595.895 624.048 577.691 584.508 22.4806
8267.92 613.29 616.377 595.028 599.972 22.7967
8270.64 639.947 629.189 627.199 603.24 22.9817
8273.35 634.33 634.918 587.493 604.968 20.9548
8276.07 630.478 628.246 600.211 574.767 17.4848
8278.78 619.93 595.84 536.596 530.73 15.1046
8281.5 537.112 592.419 455.381 513.573 12.1222
8284.21 620.214 575.63 548.741 507.787 12.7961
8286.93 569.564 581.797 519.24 557.68 11.8335
8289.64 555.613 553.827 605.059 581.334 11.8807
8292.36 536.303 554.482 619.703 584.393 11.6492
8295.07 571.529 572.486 528.418 590.017 12.0162
8297.78 609.626 628.99 621.929 599.66 12.3109
8300.5 705.815 627.647 648.633 621.24 14.6521
8303.21 567.499 631.823 593.159 635.796 13.7361
8305.92 622.156 614.985 665.596 615.146 16.6519
8308.64 655.301 643.639 586.685 620.687 18.28
8311.35 653.459 636.686 609.782 595.713 18.5908
8314.06 601.298 627.052 590.672 577.129 18.3097
8316.77 626.399 616.628 530.933 566.358 20.562
8319.48 622.186 618.78 577.47 569.835 21.6261
8322.2 607.755 625.659 601.103 590.222 22.0463
8324.91 647.037 625.085 592.092 599.22 23.7582
8327.62 620.464 627.39 604.464 593.293 23.0569
8330.33 614.669 605.108 583.323 570.448 22.8519
8333.04 580.19 583.17 523.559 550.699 21.9513
8335.75 554.652 564.494 545.217 538.524 19.7157
8338.46 558.641 564.942 546.798 504.648 14.8352
8341.17 581.533 541.987 421.931 484.968 11.0765
8343.88 485.786 588.623 486.174 516.193 8.05239
8346.59 698.551 561.998 640.474 578.429 10.8983
8349.3 501.656 622.73 608.637 641.578 8.72532
8352.01 667.983 582.267 675.623 573.1 13.0511
8354.71 577.161 628.516 435.038 589.202 12.7954
8357.42 640.404 593.8 656.943 544.992 16.2874
8360.13 563.835 606.417 542.995 577.728 15.9391
8362.84 615.012 622.427 533.245 550.857 17.7682
8365.55 688.435 648.15 576.332 586.428 19.8686
8368.25 641.002 653.331 649.709 611.605 19.2987
8370.96 630.556 645.684 608.773 627.461 20.7959
8373.67 665.493 632.702 623.9 605.247 22.8408
8376.37 602.056 650.931 583.068 601.301 19.5557
8379.08 685.246 659.319 596.935 565.509 19.0555
8381.79 690.655 690.479 516.523 546.467 17.9462
8384.49 695.537 671.682 525.943 529.84 17.886
8387.2 628.855 655.418 547.054 551.799 17.9302
8389.9 641.863 634.384 582.399 580.475 20.2636
8392.61 632.433 675.419 611.971 604.142 18.9331
8395.31 751.96 697.263 618.055 597.141 16.7975
8398.02 707.395 711.65 561.398 561.703 13.5673
8400.72 675.594 684.134 505.657 555.661 12.3499
8403.43 669.412 640.904 599.929 555.09 13.5898
8406.13 577.707 626.01 559.684 576.522 14.8727
8408.83 630.913 634.178 569.952 560.548 18.7086
8411.54 693.915 650.978 552.009 551.662 19.213
8414.24 628.107 640.748 533.025 531.593 16.0895
8416.94 600.22 598.999 509.745 530.56 14.784
8419.65 568.671 608.587 548.911 552.444 15.4639
8422.35 656.87 599.839 598.677 546.686 18.8753
8425.05 573.978 649.833 492.47 546.598 14.1894
8427.75 718.651 629.896 548.648 512.36 13.8333
8430.45 597.06 685.517 495.962 530.052 10.4369
8433.16 740.841 640.502 545.545 517.27 13.0291
8435.86 583.605 643.386 510.302 544.45 12.6453
8438.56 605.71 610.184 577.503 542.112 16.7158
8441.26 641.236 614.023 538.531 555.414 21.1153
8443.96 595.122 616.226 550.207 556.189 21.7291
8446.66 612.321 611.174 579.83 550.255 20.5901
8449.36 626.079 614.767 520.727 554.297 17.6654
8452.06 605.902 610.339 562.333 550.998 15.7351
8454.76 599.035 605.321 569.935 586.988 15.2549
8457.46 611.025 594.429 628.695 576.984 17.0234
8460.16 573.226 616.014 532.321 543.081 15.0175
8462.85 663.79 628.478 468.227 488.251 14.4418
8465.55 648.418 630.037 464.204 469.953 12.7017
8468.25 577.901 621.323 477.428 490.441 11.3843
8470.95 637.65 604.639 529.69 524.109 14.812
8473.65 598.365 609.371 565.209 543.1 17.026
8476.34 592.098 614.527 534.401 569.303 19.5588
8479.04 653.118 628.151 608.298 554.413 23.1317
8481.74 639.237 617.406 520.539 546.566 23.9099
8484.44 559.862 609.766 510.861 530.059 21.4541
8487.13 630.2 603.462 558.778 549.245 22.5745
8489.83 620.324 628.55 578.096 547.624 19.6108
8492.52 635.126 630.544 505.998 534.007 18.4647
8495.22 636.181 616.391 517.928 502.435 17.7726
8497.92 577.865 609.102 483.38 521.936 16.7692
8500.61 613.259 630.368 564.499 525.771 16.2729
8503.31 699.981 644.651 529.434 532.958 16.881
8506 620.712 662.388 504.94 523.861 14.4844
8508.69 666.471 632.286 537.21 495.741 16.2984
8511.39 609.675 637.708 445.072 501.604 17.6042
8514.08 636.98 624.477 522.53 523.839 21.2818
8516.78 626.776 618.955 603.916 546.526 22.5814
8519.47 593.109 609.162 513.132 554.626 22.5491
8522.16 607.602 616.57 546.829 536.177 22.6474
8524.86 648.999 611.712 548.569 540.484 23.8817
8527.55 578.536 615.591 526.054 536.867 22.707
8530.24 619.237 612.86 535.978 544.562 23.505
8532.93 640.808 646.024 571.655 562.641 23.5243
8535.63 678.028 649.841 580.291 567.422 22.8378
8538.32 630.687 639.967 550.319 550.399 20.7252
8541.01 611.185 624.77 520.586 532.083 19.7359
8543.7 632.439 632.048 525.344 540.716 19.753
8546.39 652.519 648.476 576.216 550.816 19.104
8549.08 660.472 659.834 550.888 566.402 18.7195
8551.77 666.512 640.095 572.101 548.906 18.7774
8554.46 593.301 632.264 523.727 536.173 18.7125
8557.15 636.981 622.953 512.689 520.75 21.8812
8559.84 638.576 638.151 525.832 531.371 23.165
8562.53 638.895 635.022 555.592 531.292 23.6642
8565.22 627.594 625.37 512.453 529.097 23.7057
8567.91 609.622 639.178 519.247 537.001 23.4342
8570.6 680.319 647.662 579.304 540.621 24.8305
8573.29 653.045 662.694 523.313 540.99 23.9684
8575.97 654.718 642.861 520.353 519.15 23.8562
8578.66 620.82 626.68 513.785 516.774 23.2702
8581.35 604.501 619.766 516.184 524.253 22.8589
8584.04 633.977 630.952 542.789 528.427 22.9849
8586.72 654.378 664.424 526.309 549.886 22.8208
8589.41 704.917 671.67 580.56 561.086 23.7714
8592.1 655.715 667.79 576.389 571.259 21.6807
8594.78 642.738 644.16 556.828 548.103 21.1172
8597.47 634.028 649.665 511.09 536.228 20.6704
8600.16 672.229 661.625 540.765 531.473 21.6939
8602.84 678.619 652.638 542.564 532.575 22.9691
8605.53 607.067 625.041 514.397 513.688 22.0157
8608.21 589.437 610.819 484.102 509.58 21.9213
8610.9 635.953 629.637 530.239 507.704 22.4852
8613.58 663.521 663.153 508.771 524.344 22.1271
8616.27 689.984 676.618 534.023 544.264 21.7526
8618.95 676.349 665.535 589.998 535.68 20.2265
8621.63 630.273 659.114 483.019 537.234 17.9217
8624.32 670.721 641.009 538.686 506.302 17.8365
8627 622.032 621.396 497.201 507.986 16.106
8629.68 571.434 595.149 488.071 492.751 14.5747
8632.37 591.981 592.806 492.981 495.523 14.9884
8635.05 615.003 640.716 505.517 534.776 15.7069
8637.73 715.165 669.839 605.829 560.926 18.3818
8640.41 679.351 671.781 571.432 569.607 18.9637
8643.09 620.826 636.835 531.559 539.02 18.6261
8645.78 610.326 608.017 514.071 503.313 18.663
8648.46 592.898 639.037 464.309 526.894 17.5558
8651.14 713.886 644.975 602.304 526.948 19.2019
8653.82 628.14 664.015 514.23 558.257 16.3162
8656.5 650.017 657.104 558.237 533.642 16.3113
8659.18 693.155 662.458 528.458 546.391 17.1845
8661.86 644.201 658.076 552.479 528.831 16.2042
8664.54 636.872 621.371 505.557 521.603 16.3096
8667.22 583.039 599.347 506.775 489.533 15.4704
8669.9 578.129 579.372 456.267 485.297 15.8376
8672.58 576.948 561.29 492.848 459.019 16.1917
8675.26 528.794 561.967 427.943 472.093 15.6839
8677.93 580.158 549.13 495.487 446.653 17.3774
8680.61 538.437 552.082 416.531 458.621 17.1271
8683.29 537.65 544.065 463.844 449.47 17.3931
8685.97 556.109 581.337 468.036 477.801 18.5504
8688.64 650.251 623.987 501.524 510.753 21.6065
8691.32 665.6 650.469 562.699 533.171 22.3689
8694 635.557 643.485 535.29 531.991 22.0263
8696.68 629.3 641.029 497.983 515.76 22.0731
8699.35 658.231 670.725 514.006 534.68 22.4727
8702.03 724.643 678.058 592.05 537.11 24.0342
8704.7 651.299 675.204 505.274 540.894 22.2092
8707.38 649.67 662.317 525.357 515.604 22.3119
8710.05 685.981 643.706 516.181 510.353 23.4812
8712.73 595.466 640.666 489.522 506.746 21.5161
8715.4 640.552 619.555 514.536 495.516 23.1786
8718.08 622.647 657.996 482.492 522.607 23.0542
8720.75 710.79 654.028 570.792 514.57 25.2793
8723.43 628.646 671.864 490.425 527.073 23.2712
8726.1 676.157 669.422 520.002 522.187 24.2054
8728.77 703.465 669.852 556.135 512.379 25.3169
8731.45 629.935 657.363 461.001 503.645 23.4581
8734.12 638.688 643.968 493.8 488.364 23.8305
8736.79 663.282 645.062 510.29 497.794 24.2139
8739.46 633.216 643.192 489.291 492.573 23.403
8742.14 633.08 662.034 478.139 510.257 23.2129
8744.81 719.807 676.702 563.341 523.357 25.1463
8747.48 677.22 679.125 528.592 540.005 24.0651
8750.15 640.35 656.622 528.083 521.715 23.077
8752.82 652.296 646.637 508.47 527.894 23.1641
8755.49 647.265 658.584 547.13 569.975 20.2307
8758.16 676.191 658.389 654.325 573.356 15.9839
8760.83 651.711 653.035 518.614 607.901 12.7575
8763.5 631.204 662.067 650.763 609.45 10.7552
8766.17 703.287 670.178 658.973 650.634 10.9636
8768.84 676.044 664.292 642.167 614.458 10.6237
8771.51 613.545 645.124 542.235 624.075 10.1947
8774.18 645.782 592.529 687.821 579.946 11.3032
8776.85 518.261 587.779 509.783 546.867 9.00727
8779.52 599.293 574.296 442.997 482.02 10.131
8782.19 605.334 567.577 493.282 504.487 10.7001
8784.85 498.105 549.645 577.181 546.53 10.4666
8787.52 545.496 546.55 569.126 541.981 13.7859
8790.19 596.049 575.401 479.635 508.842 15.5208
8792.86 584.658 573.111 477.765 464.156 15.0914
8795.52 538.625 539.393 435.069 431.111 14.4015
8798.19 494.897 512.017 380.497 427.436 15.1426
8800.86 502.528 520.452 466.742 441.172 17.0868
8803.52 563.931 545.654 476.277 482.427 20.6903
8806.19 570.502 570.4 504.262 494.914 21.0728
8808.85 576.767 572.938 504.203 505.346 21.0527
8811.52 571.544 586.513 507.571 505.375 20.5497
8814.18 611.23 591.067 504.349 497.333 21.5166
8816.85 590.427 574.318 480.078 510.338 21.3273
8819.51 521.296 551.765 546.585 574.453 18.6143
8822.18 543.572 561.818 696.697 672.159 15.1611
8824.84 620.584 632.825 773.195 732.804 11.1696
8827.5 734.318 711.53 728.519 652.249 10.3338
8830.17 779.689 691.012 455.034 512.834 10.0825
8832.83 559.028 619.087 354.949 465.65 7.59988
8835.49 518.544 567.898 586.966 444.119 8.09659
8838.16 626.121 575.032 390.442 453.074 11.0154
8840.82 580.432 590.622 381.812 412.506 11.2785
8843.48 565.315 556.368 465.264 445.756 12.9089
8846.14 523.359 573.094 490.191 497.895 14.4681
8848.8 630.608 570.668 538.229 512.16 17.448
8851.46 558.037 584.336 508.059 523.463 15.2483
8854.13 564.364 572.843 524.099 510.658 15.6543
8856.79 596.128 571.891 499.816 472.701 17.8769
8859.45 555.18 557.251 394.189 457.805 18.6382
8862.11 520.444 570.736 479.41 487.861 18.2172
8864.77 636.585 612.44 589.985 547.323 18.2707
8867.43 680.292 646.796 572.574 553.07 16.1836
8870.09 623.511 625.15 496.65 481.907 14.0244
8872.74 571.648 613.437 376.499 449.411 13.2318
8875.4 645.153 595.2 475.084 463.891 17.0072
8878.06 568.801 620.628 540.089 560.401 18.0898
8880.72 647.931 605.634 666.03 633.917 20.362
8883.38 600.172 648.992 695.634 646.886 13.7662
8886.04 698.874 662.416 578.993 601.252 12.1578
8888.69 688.202 660.389 529.128 489.888 10.8447
8891.35 594.09 590.546 361.544 407.718 9.64104
8894.01 489.346 553.348 332.481 386.791 10.021
8896.66 576.608 546.142 466.349 462.104 15.3954
8899.32 572.47 578.124 587.48 526.03 17.183
8901.98 585.294 599.64 524.26 538.59 14.7897
8904.63 641.154 616.391 504.03 475.715 14.0068
8907.29 622.724 609.797 398.854 437.859 13.0761
8909.94 565.513 589.137 410.693 467.655 13.332
8912.6 579.173 556.753 593.417 514.982 15.9637
8915.25 525.574 602.719 540.836 617.047 15.0254
8917.91 703.409 649.511 716.888 592.859 14.1478
8920.56 719.55 695.995 520.852 540.034 11.4249
8923.21 665.027 662.257 382.361 369.805 9.76076
8925.87 602.193 603.537 206.203 247.583 9.49804
8928.52 543.39 587.996 154.184 259.291 11.0316
8931.17 618.406 584.202 417.485 308.804 16.7396
8933.83 590.81 592.929 354.741 416.766 19.6177
8936.48 569.573 568.271 478.072 421.401 20.3755
8939.13 544.431 579.609 431.389 472.392 18.8949
8941.78 624.822 592.141 507.713 497.571 17.3722
8944.44 607.17 590.835 553.611 475.902 14.6829
8947.09 540.511 566.254 366.381 434.318 12.3602
8949.74 551.08 545.469 382.961 415.979 13.1762
8952.39 544.816 532.501 498.595 475.493 15.0824
8955.04 501.607 534.785 544.924 541.127 13.5095
8957.69 557.933 572.639 579.863 567.56 11.3451
8960.34 658.375 651.376 577.892 508.275 11.3218
8962.99 737.818 581.465 367.07 322.578 12.3552
8965.64 348.202 487.085 22.7701 156.59 7.10655
8968.29 375.236 418.241 79.9304 116.859 10.1551
8970.94 531.285 475.58 247.876 207.984 18.0261
8973.59 520.218 516.832 296.146 310.801 19.9239
8976.24 498.992 513.398 388.38 347.849 19.5304
8978.88 520.982 515.196 359.021 393.289 20.325
8981.53 525.613 524.037 432.465 403.129 20.0788
8984.18 525.516 520.294 417.901 406.113 19.3082
8986.83 509.754 506.833 367.973 425.203 16.8192
8989.47 485.23 477.172 489.735 411.483 13.9137
8992.12 436.532 450.05 376.742 387.406 12.1276
8994.77 428.389 462.511 295.741 364.783 12.371
8997.41 522.614 486.05 421.868 397.97 15.8522
9000.06 507.146 506.929 476.303 458.054 13.4424
9002.7 491.028 495.635 475.99 492.639 11.3474
9005.35 488.732 482.533 525.623 410.77 10.6374
9007.99 467.838 452.465 230.698 277.384 10.8288
9010.64 400.825 456.581 75.8316 180.933 11.6699
9013.28 501.079 463.711 236.27 186.521 17.6696
9015.93 489.228 504.317 247.461 251.493 20.4783
9018.57 522.645 497.239 270.75 284.86 21.88
9021.22 479.843 506.148 336.368 317.24 20.6308
9023.86 515.957 501.71 344.601 350.983 21.2345
9026.5 509.33 517.474 371.981 376.793 20.9854
9029.15 527.134 511.562 413.798 389.653 21.0523
9031.79 498.22 520.137 383.179 391.517 20.3673
9034.43 535.055 526.907 377.573 400.321 20.9266
9037.07 547.445 553.617 440.211 434.841 19.296
9039.71 578.353 556.997 486.739 436.552 18.3338
9042.36 545.193 560.547 382.706 408.252 16.7709
9045 558.094 558.467 355.313 377.401 17.1199
9047.64 572.113 554.197 394.186 394.247 17.4953
9050.28 532.383 554.749 433.242 418.154 14.9589
9052.92 559.752 553.598 427.033 422.477 14.8093
9055.56 568.657 546.312 407.154 376.298 15.1054
9058.2 510.525 527.938 294.708 309.194 15.4701
9060.84 504.632 504.306 225.722 273.081 17.8926
9063.48 497.76 505.755 298.813 290.249 19.8911
9066.12 514.875 497.95 346.212 343.556 20.5922
9068.75 481.214 471.113 385.644 336.289 19.9656
9071.39 417.25 388.712 277.012 277.962 18.4446
9074.03 267.672 228.307 171.23 149.414 15.1012
