wavelength spectrum_sum 3smoothed_sum spectrum_optimal 3smoothed_optimal spectrum_snr
3507.1 21.2607 13.5848 36.9578 20.4449 nan
3510.01 19.4936 23.2584 24.3769 34.488 nan
3512.93 29.0208 24.907 42.1293 34.2411 nan
3515.85 26.2067 27.8162 36.2172 35.9412 nan
3518.76 28.2211 31.886 29.4769 33.328 nan
3521.68 41.2303 29.8254 34.2897 27.3826 nan
3524.6 20.0248 26.9538 18.3811 26.3457 nan
3527.51 19.6061 25.4277 26.3662 24.5007 20.1547
3530.43 36.6522 28.5613 28.7548 25.6645 25.2235
3533.35 29.4255 34.9548 21.8726 29.3265 10.8482
3536.26 38.7867 33.4895 37.3522 22.6492 7.20096
3539.18 32.2562 34.2092 8.72278 28.1901 5.60561
3542.1 31.5848 25.9052 38.4954 27.7764 5.06074
3545.02 13.8745 18.2114 36.1111 33.5788 2.58505
3547.93 9.17492 21.3408 26.1298 33.4951 1.57108
3550.85 40.9729 36.0002 38.2444 40.9189 5.60901
3553.77 57.8528 40.1612 58.3825 46.6722 7.43162
3556.68 21.6578 41.5632 43.3896 46.81 3.63776
3559.6 45.1791 37.542 38.6579 42.3196 8.45085
3562.52 45.7891 42.8413 44.9115 40.5005 8.16004
3565.43 37.5557 43.429 37.9321 39.8659 12.6358
3568.35 46.9423 45.6922 36.754 44.9659 11.2369
3571.27 52.5785 46.6871 60.2116 40.4074 9.3761
3574.18 40.5404 46.1877 24.2566 40.5089 nan
3577.1 45.4442 42.2042 37.0584 34.609 11.4061
3580.02 40.628 39.5905 42.5119 38.7384 10.4389
3582.93 32.6994 40.0474 36.645 42.5726 23.9161
3585.85 46.8147 43.7 48.5609 43.8674 11.6193
3588.77 51.586 47.3852 46.3962 48.8563 17.0783
3591.68 43.755 43.9263 51.612 48.5476 14.9202
3594.6 36.4379 39.4841 47.6348 49.0957 9.51866
3597.52 38.2593 48.3978 48.0402 53.8895 9.5236
3600.44 70.4963 59.7409 65.9935 59.3882 10.7557
3603.35 70.4672 58.9017 64.1308 60.1155 12.6598
3606.27 35.7418 58.1124 50.2222 57.9291 8.75416
3609.19 68.1283 45.6204 59.4344 49.635 11.4779
3612.1 32.991 52.8985 39.2485 50.7303 7.01714
3615.02 57.5762 52.272 53.5081 53.114 8.76233
3617.94 66.2487 60.8307 66.5854 56.1916 8.9714
3620.85 58.6673 59.8492 48.4814 59.4267 9.54593
3623.77 54.6315 55.7429 63.2134 49.5395 7.84695
3626.69 53.9299 48.1362 36.9236 45.4976 6.97934
3629.6 35.8473 48.5781 36.3558 44.9655 5.25945
3632.52 55.9573 46.7209 61.6171 48.0221 6.89557
3635.44 48.3583 49.9053 46.0935 52.9997 6.76483
3638.35 45.4004 52.4571 51.2886 53.6184 6.02559
3641.27 63.6127 50.7395 63.4731 45.4118 7.34851
3644.18 43.2054 57.6825 21.4738 46.5353 6.61417
3647.1 66.2293 56.6421 54.6589 42.1328 8.35233
3650.02 60.4917 61.0883 50.2657 49.0198 7.86868
3652.93 56.5438 57.106 42.1347 46.1507 7.34511
3655.85 54.2825 52.8661 46.0516 40.5728 7.14021
3658.77 47.772 60.0808 33.5322 53.3053 6.1276
3661.68 78.188 66.8475 80.3321 61.2219 9.05779
3664.6 74.5825 72.9367 69.8014 70.9678 8.75317
3667.52 66.0394 65.9842 62.7699 65.5605 7.343
3670.43 57.3308 52.2709 64.1104 55.2861 8.07087
3673.35 33.4424 52.4409 38.9781 49.4998 5.01221
3676.27 66.5496 50.2432 45.4108 42.9546 9.69838
3679.18 50.7375 59.5284 44.475 47.5524 8.06796
3682.1 61.2981 63.6255 52.7716 54.953 8.29125
3685.02 78.8409 72.3123 67.6124 64.0778 9.43583
3687.93 76.798 74.3386 71.8494 64.3575 9.34003
3690.85 67.377 72.9438 53.6106 58.8955 7.76754
3693.76 74.6565 75.1205 51.2266 59.9058 8.30182
3696.68 83.3281 73.6983 74.8801 54.0665 8.75458
3699.6 63.1102 75.0017 36.0927 65.7557 7.05672
3702.51 78.5668 79.2301 86.2944 66.7586 7.39155
3705.43 96.0133 84.8704 77.8887 75.7751 9.23331
3708.35 80.0309 79.3391 63.142 61.7164 8.86218
3711.26 61.973 84.5776 44.1185 63.0834 6.82579
3714.18 111.729 80.8413 81.9895 55.2258 10.9815
3717.1 68.822 93.9307 39.5694 65.0883 7.52346
3720.01 101.241 89.3934 73.706 59.3797 10.7781
3722.93 98.1168 86.1852 64.8638 68.9988 9.46532
3725.84 59.1974 85.3434 68.4267 63.5136 5.86274
3728.76 98.7159 73.6058 57.2504 66.8466 9.13451
3731.68 62.9041 76.6805 74.8627 61.7189 5.85052
3734.59 68.4213 72.9422 53.0435 65.1513 6.68405
3737.51 87.5012 75.5681 67.5477 55.6857 7.98445
3740.42 70.7817 86.7452 46.466 67.6611 6.68773
3743.34 101.953 76.6923 88.9695 63.6125 8.91636
3746.26 57.3425 89.4955 55.4019 81.9762 5.89353
3749.17 109.191 88.0146 101.557 85.179 9.32299
3752.09 97.5098 101.737 98.5778 87.8725 8.68629
3755 98.511 99.2802 63.4823 89.5094 9.8092
3757.92 101.82 105.741 106.468 99.6848 9.01585
3760.84 116.893 117.762 129.104 108.346 9.8819
3763.75 134.573 109.224 89.465 97.4618 11.4491
3766.67 76.207 101.495 73.8161 83.8478 6.96656
3769.58 93.7041 91.3537 88.2622 93.1471 8.7209
3772.5 104.15 110.533 117.363 106.258 8.75913
3775.42 133.744 114.74 113.149 114.598 10.4524
3778.33 106.326 122.2 113.28 117.761 8.51269
3781.25 126.53 124.971 126.854 132.071 10.1327
3784.16 142.056 130.001 156.077 138.878 10.624
3787.08 121.417 126.508 133.702 134.359 9.32517
3790 116.051 115.956 113.297 124.131 9.18868
3792.91 110.4 109.424 125.394 116.686 9.21728
3795.83 101.821 100.836 111.366 110.172 8.52794
3798.74 90.2878 95.9411 93.7567 94.512 7.95909
3801.66 95.7147 97.5417 78.4133 94.3475 8.16865
3804.57 106.623 106.584 110.873 96.6204 8.7238
3807.49 117.416 103.443 100.576 99.7299 9.13768
3810.41 86.292 105.984 87.7417 92.0671 7.27031
3813.32 114.246 108.395 87.8842 100.899 8.91383
3816.24 124.648 121.293 127.07 115.773 9.18941
3819.15 124.986 129.919 132.366 131.71 9.39666
3822.07 140.123 130.104 135.696 129.273 10.3696
3824.98 125.203 132.552 119.758 120.364 9.51564
3827.9 132.332 132.465 105.64 123.237 9.87653
3830.82 139.86 140.266 144.313 124.54 9.99698
3833.73 148.607 148.718 123.668 134.015 10.7949
3836.65 157.687 166.899 134.065 145.533 10.981
3839.56 194.403 172.67 178.866 157.597 12.4
3842.48 165.919 169.163 159.859 167.372 11.3349
3845.39 147.166 145.879 163.392 147.89 10.4004
3848.31 124.553 150.194 120.419 143.801 9.15908
3851.22 178.863 149.187 147.594 129.946 12.08
3854.14 144.146 160.68 121.825 138.741 10.4999
3857.05 159.031 148.012 146.804 133.218 11.0901
3859.97 140.858 153.742 131.024 140.344 10.1317
3862.89 161.336 146.585 143.204 137.603 11.3111
3865.8 137.561 152.704 138.58 145.485 10.101
3868.72 159.214 147.406 154.671 142.471 11.2439
3871.63 145.443 149.198 134.163 145.406 10.6782
3874.55 142.936 149.985 147.385 134.597 10.2443
3877.46 161.576 145.813 122.242 133.26 11.8937
3880.38 132.926 151.08 130.153 130.457 10.5145
3883.29 158.739 162.465 138.976 146.571 11.6142
3886.21 195.731 159.974 170.584 141.176 13.46
3889.12 125.452 152.81 113.968 135.952 9.74235
3892.04 137.248 137.935 123.305 116.723 10.5463
3894.95 151.104 145.516 112.896 125.732 10.4812
3897.87 148.198 143.935 140.995 120.479 10.1543
3900.78 132.503 151.044 107.546 130.965 9.12569
3903.7 172.432 155.391 144.354 133.71 10.7048
3906.61 161.239 184.284 149.229 168.335 10.0044
3909.53 219.18 178.074 211.422 177.066 12.3355
3912.44 153.804 211.068 170.546 207.11 9.39249
3915.36 260.22 212.375 239.363 210.077 14.2904
3918.27 223.1 233.992 220.321 219.697 12.8104
3921.19 218.656 213.857 199.405 206.925 13.1237
3924.1 199.814 194.393 201.049 184.477 12.5982
3927.02 164.708 182.053 152.976 177.479 10.9686
3929.93 181.635 175.035 178.413 165.98 12.1137
3932.85 178.761 179.041 166.552 163.97 12.0043
3935.76 176.725 180.432 146.946 161.667 11.4607
3938.68 185.811 173.509 171.502 152.714 11.934
3941.59 157.99 171.647 139.694 153.552 10.7963
3944.51 171.141 170.68 149.46 157.443 10.6903
3947.42 182.909 184.295 183.174 179.772 11.2168
3950.33 198.836 202.376 206.683 204.82 11.8456
3953.25 225.383 197.529 224.604 198.748 12.9852
3956.16 168.369 191.969 164.957 190.835 10.7167
3959.08 182.154 183.691 182.943 183.423 11.6477
3961.99 200.551 194.324 202.369 184.653 12.7659
3964.91 200.266 196.331 168.647 184.714 12.5649
3967.82 188.175 209.834 183.125 188.783 12.515
3970.74 241.062 205.113 214.576 197.63 14.2655
3973.65 186.101 212.243 195.189 203.732 11.5189
3976.56 209.566 203.479 201.43 201.431 12.2848
3979.48 214.77 200.205 207.673 193.427 12.3626
3982.39 176.278 198.742 171.178 182.362 10.4852
3985.31 205.179 179.567 168.234 162.699 11.8198
3988.22 157.243 175.868 148.686 159.639 9.49485
3991.14 165.18 170.134 161.997 165.923 9.87484
3994.05 187.98 190.807 187.086 181.348 10.7987
3996.96 219.262 198.058 194.962 186.768 11.9396
3999.88 186.933 207.128 178.257 188.074 10.2382
4002.79 215.19 205.115 191.002 189.748 11.6928
4005.71 213.222 212.196 199.984 192.245 10.9719
4008.62 208.175 226.007 185.75 206.944 10.8987
4011.53 256.624 233.056 235.098 220.46 12.9689
4014.45 234.369 235.467 240.534 222.017 11.8513
4017.36 215.408 224.825 190.419 210.976 11.1402
4020.28 224.697 222.201 201.975 198.004 11.5437
4023.19 226.499 204.554 201.62 186.214 11.5794
4026.1 162.467 184.049 155.048 174.922 8.95873
4029.02 163.182 177.631 168.098 167.454 9.10071
4031.93 207.243 180.314 179.216 181.518 10.782
4034.85 170.516 208.945 197.239 209.676 9.167
4037.76 249.077 209.014 252.572 216.284 12.1915
4040.67 207.45 246.308 199.039 240.426 10.558
4043.59 282.396 248.645 269.667 233.51 13.4755
4046.5 256.09 265.482 231.825 252.589 12.4828
4049.41 257.96 258.262 256.275 254.773 12.2667
4052.33 260.737 292.228 276.218 281.247 12.383
4055.24 357.987 305.032 311.247 281.786 16.1759
4058.16 296.373 308.64 257.892 284.076 13.6933
4061.07 271.559 295.727 283.089 269.433 12.6285
4063.98 319.248 301.647 267.318 277.851 14.5153
4066.9 314.134 312.753 283.145 277.837 14.6531
4069.81 304.875 315.159 283.048 287.905 13.9506
4072.72 326.467 325.01 297.523 305.532 14.7595
4075.64 343.689 327.794 336.025 308.337 15.4961
4078.55 313.226 343.66 291.462 319.1 14.0387
4081.46 374.064 345.188 329.813 318.598 16.593
4084.38 348.275 350.074 334.519 339.661 15.3226
4087.29 327.883 336.116 354.652 332.665 14.5633
4090.2 332.19 326.544 308.825 325.861 14.6789
4093.12 319.559 335.775 314.106 317.246 14.3915
4096.03 355.575 347.236 328.807 325.89 15.7894
4098.94 366.574 340.807 334.758 313.981 16.5313
4101.86 300.273 345.477 278.378 323.666 14.1937
4104.77 369.583 332.086 357.863 313.855 16.2128
4107.68 326.402 364.448 305.326 333.463 14.6334
4110.59 397.36 354.333 337.202 332.281 17.3614
4113.51 339.238 359.721 354.317 335.344 14.7995
4116.42 342.565 358.757 314.514 331.863 15.0492
4119.33 394.468 346.462 326.757 304.225 16.992
4122.25 302.353 350.114 271.406 316.08 13.8984
4125.16 353.522 329.714 350.079 305.896 15.3932
4128.07 333.266 368.173 296.205 334.576 14.8012
4130.98 417.73 357.856 357.443 308.942 17.2416
4133.9 322.571 372.89 273.177 335.211 14.4268
4136.81 378.369 357.378 375.012 344.283 16.0615
4139.72 371.193 355.356 384.66 363.303 15.7505
4142.63 316.507 363.888 330.238 361.307 13.9955
4145.55 403.964 356.888 369.023 346.606 16.9535
4148.46 350.192 369.59 340.556 350.534 14.9009
4151.37 354.613 352.989 342.023 339.28 15.2177
4154.28 354.163 365.088 335.262 350.573 15.0768
4157.2 386.488 347.706 374.433 337.842 15.8038
4160.11 302.468 351.382 303.829 350.51 12.9388
4163.02 365.189 337.133 373.267 331.505 14.8555
4165.93 343.741 364.365 317.417 350.573 14.5725
4168.85 384.166 369.814 361.033 346.138 15.763
4171.76 381.536 372.927 359.964 361.381 15.7631
4174.67 353.079 381.504 363.146 362.583 14.7901
4177.58 409.898 388.749 364.639 368.54 16.6001
4180.5 403.271 403.487 377.836 374.2 16.4256
4183.41 397.292 394.372 380.126 372.231 16.1208
4186.32 382.554 387.96 358.732 367.562 15.7738
4189.23 384.035 403.422 363.827 370.162 15.8166
4192.14 443.678 413.652 387.928 381.71 17.9156
4195.06 413.243 406.359 393.373 375.888 17.3417
4197.97 362.155 396.522 346.362 371.567 15.2467
4200.88 414.167 399.702 374.965 373.011 16.9255
4203.79 422.784 414.856 397.705 399.113 17.2048
4206.7 407.617 409.589 424.67 398.119 16.5246
4209.61 398.368 401.229 371.981 395.745 16.1378
4212.53 397.703 418.465 390.585 399.991 16.1744
4215.44 459.325 421.091 437.408 401.831 18.1304
4218.35 406.246 424.37 377.501 410.642 16.472
4221.26 407.537 424.477 417.017 409.31 16.4724
4224.17 459.647 428.442 433.411 405.571 18.3459
4227.08 418.143 445.277 366.285 395.5 17.0814
4230 458.04 419.702 386.805 382.888 18.3206
4232.91 382.924 415.75 395.574 398.65 15.8604
4235.82 406.286 406.829 413.572 405.2 16.3841
4238.73 431.276 439.882 406.454 423.217 17.6356
4241.64 482.085 449.98 449.624 427.734 19.0714
4244.55 436.578 452.767 427.125 431.051 17.1715
4247.46 439.637 446.434 416.404 426.776 17.5453
4250.38 463.086 444.269 436.798 416.73 18.1555
4253.29 430.084 447.463 396.988 419.547 16.9682
4256.2 449.218 435.893 424.856 407.215 17.4483
4259.11 428.377 436.9 399.802 406.905 16.9188
4262.02 433.106 424.488 396.058 399.146 17.1069
4264.93 411.98 440.222 401.579 419.572 16.4408
4267.84 475.581 443.581 461.08 420.736 18.4292
4270.75 443.182 438.41 399.548 415.942 17.4328
4273.66 396.466 435.635 387.199 407.894 16.0582
4276.57 467.258 424.279 436.936 408.055 18.1282
4279.49 409.112 425.066 400.03 403.388 16.0977
4282.4 398.829 433.407 373.2 422.527 16.1622
4285.31 492.28 461.734 494.352 447.894 18.8455
4288.22 494.094 490.824 476.131 481.993 18.9135
4291.13 486.098 472.99 475.497 465.887 18.5366
4294.04 438.778 462.92 446.034 453.306 17.2725
4296.95 463.884 441.802 438.387 440.873 18.2249
4299.86 422.742 467.357 438.197 458.267 17.1726
4302.77 515.445 476.084 498.216 463.235 19.9672
4305.68 490.063 505.516 453.292 472.826 19.2041
4308.59 511.04 498.863 466.971 458.377 19.5606
4311.5 495.486 518.944 454.868 479.484 19.0876
4314.41 550.305 518.201 516.614 479.703 20.3477
4317.32 508.812 510.342 467.626 485.151 19.1592
4320.23 471.911 494.382 471.214 465.081 17.7601
4323.14 502.423 512.349 456.404 481.398 18.6806
4326.05 562.712 504.957 516.576 473.276 20.4334
4328.96 449.737 505.765 446.848 493.757 16.9414
4331.87 504.845 491.602 517.847 488.649 18.8009
4334.78 520.226 508.402 501.253 502.629 19.0313
4337.69 500.134 507.263 488.788 484.081 18.3199
4340.6 501.429 501.693 462.201 467.232 18.6803
4343.51 503.515 489.608 450.706 454.804 18.6131
4346.42 463.88 483.721 451.504 449.616 17.3374
4349.33 483.769 484.668 446.637 453.146 18.083
4352.24 506.354 491.016 461.296 469.324 18.7852
4355.15 482.927 495.601 500.039 495.056 17.7079
4358.06 497.524 481.856 523.834 489.744 18.0206
4360.97 465.118 479.707 445.359 476.315 17.3294
4363.88 476.481 465.219 459.753 448.871 17.7514
4366.79 454.057 470.648 441.501 459.275 17.0178
4369.7 481.407 466.692 476.57 451.352 17.7462
4372.61 464.611 467.547 435.986 453.364 17.4348
4375.52 456.622 465.33 447.536 446.57 17.0301
4378.43 474.757 495.087 456.188 481.955 17.665
4381.34 553.883 527.543 542.142 508.133 19.7052
4384.25 553.99 533.978 526.069 523.644 19.8518
4387.15 494.06 518.679 502.72 509.07 17.9845
4390.06 507.989 520.96 498.422 511.896 18.3155
4392.97 560.83 553.12 534.546 523.007 19.9368
4395.88 590.54 561.025 536.054 521.72 20.7723
4398.79 531.704 546.291 494.56 510.283 18.7975
4401.7 516.629 529.614 500.235 504.375 18.4318
4404.61 540.508 529.991 518.329 520.999 18.8482
4407.52 532.835 556.953 544.432 537.754 18.4748
4410.43 597.517 556.427 550.502 540.353 20.2341
4413.34 538.928 543.41 526.125 510.985 18.642
4416.24 493.786 539.693 456.329 512.655 17.3845
4419.15 586.364 543.096 555.509 523.768 19.9772
4422.06 549.139 576.377 559.465 575.472 18.5581
4424.97 593.628 577.063 611.442 573.704 19.771
4427.88 588.424 593.758 550.204 573.945 19.552
4430.79 599.222 581.197 560.19 571.4 19.8246
4433.7 555.946 576.304 603.805 568.624 18.5717
4436.6 573.743 584.035 541.877 586.202 19.5385
4439.51 622.416 606.304 612.924 579.979 20.5091
4442.42 622.753 612.909 585.135 590.484 20.5389
4445.33 593.559 574.993 573.394 554.63 19.8725
4448.24 508.667 537.159 505.361 529.671 17.5203
4451.14 509.251 527.998 510.257 525.863 17.7236
4454.05 566.075 549.075 561.97 559.857 19.3078
4456.96 571.898 575.422 607.342 581.845 19.24
4459.87 588.292 571.584 576.222 589.624 19.8171
4462.78 554.563 605.578 585.306 596.412 18.9071
4465.68 673.881 578.363 627.707 564.937 22.1083
4468.59 506.646 595.605 481.799 562.861 17.7861
4471.5 606.287 573.444 579.078 541.024 20.3077
4474.41 607.399 619.508 562.196 592.464 20.4005
4477.32 644.838 623.457 636.117 607.368 21.2186
4480.22 618.135 630.327 623.79 638.438 20.1996
4483.13 628.009 610.173 655.406 614.91 20.4356
4486.04 584.376 609.497 565.533 608.133 19.546
4488.95 616.105 598.304 603.459 585.676 20.4369
4491.85 594.431 625.47 588.035 600.055 19.6587
4494.76 665.874 622.146 608.671 583.602 21.4928
4497.67 606.134 652.159 554.099 607.553 19.9873
4500.58 684.468 624.915 659.89 596.244 21.8122
4503.48 584.144 654.862 574.743 643.104 19.3509
4506.39 695.973 628.377 694.68 623.49 21.9804
4509.3 605.016 646.451 601.046 648.836 19.7
4512.2 638.365 651.883 650.781 644.92 20.5454
4515.11 712.268 669.464 682.934 667.005 22.2448
4518.02 657.761 685.096 667.3 685.583 20.9829
4520.92 685.261 666.021 706.516 670.258 21.6118
4523.83 655.042 656.211 636.959 676.569 20.9428
4526.74 628.328 626.436 686.232 633.205 20.3569
4529.65 595.937 627.435 576.423 645.73 19.6117
4532.55 658.04 645.499 674.537 653.731 20.7522
4535.46 682.519 677.149 710.233 690.376 21.5052
4538.37 690.888 665.239 686.358 667.775 21.572
4541.27 622.311 660.002 606.734 649.657 19.8497
4544.18 666.808 644.768 655.878 628.372 20.9334
4547.08 645.185 669.836 622.505 646.376 20.5989
4549.99 697.516 693.851 660.745 659.529 21.6749
4552.9 738.852 710.031 695.337 675.187 22.6997
4555.8 693.724 719.385 669.478 690.05 21.9319
4558.71 725.58 730.909 705.334 694.444 22.4108
4561.62 773.423 755.797 708.519 709.667 23.2717
4564.52 768.389 738.961 715.148 681.09 23.3698
4567.43 675.07 724.002 619.603 668.284 21.2417
4570.33 728.547 728.562 670.101 669.361 22.3122
4573.24 782.068 772.455 718.379 699.991 23.7033
4576.15 806.749 794.406 711.494 725.187 24.1879
4579.05 794.4 809.738 745.688 745.027 24.0217
4581.96 828.064 750.662 777.901 712.27 24.5329
4584.86 629.523 742.669 613.22 708.706 19.9667
4587.77 770.42 716.629 734.998 666.475 23.2139
4590.67 749.944 743.471 651.208 682.169 22.7272
4593.58 710.049 716.985 660.301 650.447 21.9652
4596.49 690.961 726.852 639.833 665.1 21.3138
4599.39 779.547 751.16 695.164 676.945 23.4509
4602.3 782.972 773.517 695.838 661.497 23.3728
4605.2 758.033 782.659 593.49 664.343 23.0173
4608.11 806.971 760.546 703.703 646.963 24.1188
4611.01 716.635 765.893 643.695 677.534 22.0506
4613.92 774.072 750.115 685.203 669.214 23.232
4616.82 759.639 768.421 678.745 686.958 23.0001
4619.73 771.551 762.318 696.928 677.394 22.9835
4622.63 755.765 765.408 656.508 665.622 22.9719
4625.54 768.907 786.559 643.429 656.657 23.2332
4628.44 835.004 800.521 670.034 650.256 24.6848
4631.35 797.653 788.793 637.305 642.055 23.6732
4634.25 733.722 763.668 618.826 645.589 22.0624
4637.16 759.631 772.707 680.638 664.641 22.9746
4640.06 824.77 827.658 694.461 711.111 24.2213
4642.97 898.574 842.083 758.234 718.251 26.0465
4645.87 802.906 843.231 702.056 724.661 23.9531
4648.77 828.212 796.966 713.692 688.859 24.4968
4651.68 759.781 818.469 650.828 689.941 23.0482
4654.58 867.415 799.582 705.301 677.945 25.1855
4657.49 771.549 810.912 677.705 677.384 23.0672
4660.39 793.772 790.793 649.146 667.625 23.4384
4663.3 807.057 796.233 676.024 655.435 23.8712
4666.2 787.869 801.503 641.136 663.786 23.211
4669.1 809.581 793.912 674.197 644.688 23.8747
4672.01 784.286 833.294 618.73 673.932 23.2891
4674.91 906.017 831.313 728.868 678.085 25.7767
4677.82 803.636 840.741 686.657 694.807 23.3866
4680.72 812.571 843.419 668.896 718.362 23.5691
4683.62 914.051 848.888 799.533 740.119 25.9246
4686.53 820.041 882.91 751.929 759.107 24.0743
4689.43 914.638 867.361 725.86 721.755 25.9099
4692.33 867.403 857.252 687.476 710.788 24.965
4695.24 789.715 821.715 719.028 695.011 23.5396
4698.14 808.026 842.282 678.528 744.236 23.7797
4701.04 929.105 881.4 835.151 781.912 26.2883
4703.95 907.067 886.387 832.058 799.163 26.0576
4706.85 822.988 862.208 730.28 782.71 24.2146
4709.75 856.57 831.594 785.792 765.485 24.8354
4712.66 815.225 824.324 780.384 759.543 23.8029
4715.56 801.177 801.205 712.452 745.271 23.5949
4718.46 787.211 815.004 742.976 737.193 23.3714
4721.37 856.623 839.342 756.151 769.715 25.1444
4724.27 874.192 851.544 810.018 768.301 24.9163
4727.17 823.816 823.519 738.735 752.912 23.902
4730.08 772.55 772.124 709.982 705.087 22.9562
4732.98 720.007 761.447 666.543 693.807 21.7621
4735.88 791.784 763.015 704.895 694.249 23.2937
4738.78 777.253 813.939 711.309 741.427 23.418
4741.69 872.781 826.909 808.077 757.691 24.9546
4744.59 830.693 848.488 753.687 768.28 24.3522
4747.49 841.988 837.752 743.078 761.391 24.4491
4750.39 840.574 839.061 787.407 744.768 24.3834
4753.29 834.621 818.031 703.819 732.711 24.2282
4756.2 778.898 815.332 706.908 731.679 23.1491
4759.1 832.477 817.587 784.309 756.46 24.2878
4762 841.388 840.328 778.163 765.53 24.6433
4764.9 847.119 843.369 734.116 753.905 24.7894
4767.81 841.6 830.086 749.436 728.583 24.8813
4770.71 801.538 834.521 702.196 753.123 23.5447
4773.61 860.427 818.003 807.737 747.812 24.7055
4776.51 792.045 825.719 733.502 774.947 23.3382
4779.41 824.686 801.672 783.601 752.967 23.9619
4782.31 788.284 808.1 741.798 757.4 23.2545
4785.22 811.329 818.761 746.801 763.626 23.5402
4788.12 856.672 857.379 802.279 796.199 24.7729
4791.02 904.137 887.414 839.518 816.079 25.6888
4793.92 901.433 865.32 806.44 785.225 25.7729
4796.82 790.39 859.983 709.718 776.681 23.0944
4799.72 888.125 838.176 813.884 768.079 25.4287
4802.62 836.013 885.747 780.635 821.983 24.3611
4805.52 933.102 884.259 871.43 824.488 25.836
4808.43 883.662 901.9 821.398 836.896 24.8599
4811.33 888.935 872.711 817.86 809.975 25.0131
4814.23 845.535 860.578 790.667 812.488 24.0791
4817.13 847.265 866.313 828.937 815.213 24.0235
4820.03 906.138 861.566 826.035 817.754 25.1981
4822.93 831.295 878.638 798.29 811.154 23.5664
4825.83 898.482 879.37 809.137 831.392 25.1856
4828.73 908.333 895.936 886.749 845.256 25.5455
4831.63 880.993 903.647 839.881 847.201 24.9332
4834.53 921.616 887.922 814.971 811.1 25.9604
4837.43 861.157 910.109 778.448 819.213 24.3853
4840.33 947.556 902.504 864.219 826.25 25.9726
4843.23 898.8 892.466 836.084 854.564 25.2261
4846.13 831.042 870.617 863.389 839.015 23.6988
4849.03 882.009 864.658 817.573 842.496 24.9095
4851.93 880.923 876.365 846.525 831.062 25.0508
4854.83 866.164 902.404 829.087 859.656 24.9127
4857.73 960.125 890.955 903.356 844.924 27.027
4860.63 846.575 898.491 802.329 841.187 24.7051
4863.53 888.772 887.498 817.876 837.283 25.6821
4866.43 927.147 913.525 891.646 842.754 26.2218
4869.33 924.657 914.518 818.742 837.501 26.619
4872.23 891.75 885.256 802.115 812.483 25.8701
4875.13 839.36 879.308 816.592 825.517 24.3201
4878.03 906.815 865.096 857.843 831.233 25.7499
4880.93 849.112 873.79 819.263 845.986 24.5008
4883.83 865.443 879.846 860.852 852.765 24.7646
4886.73 924.984 903.561 878.18 882.571 26.0943
4889.63 920.255 949.381 908.679 908.533 25.9033
4892.53 1002.9 917.576 938.741 889.421 27.665
4895.42 829.569 937.201 820.844 912.418 23.7058
4898.32 979.129 905.99 977.67 902.82 26.9978
4901.22 909.273 940.625 909.946 955.106 25.6349
4904.12 933.473 899.99 977.703 915.168 26.0065
4907.02 857.226 899.32 857.856 908.496 24.1744
4909.92 907.262 893.902 889.93 880.989 25.5386
4912.82 917.219 916.26 895.181 892.569 25.9083
4915.72 924.299 946.941 892.597 927.079 25.985
4918.61 999.305 931.804 993.459 908.714 27.4302
4921.51 871.808 909.747 840.086 888.053 24.8605
4924.41 858.127 879.348 830.614 841.471 24.3885
4927.31 908.108 891.048 853.713 847.028 25.3961
4930.21 906.909 920.759 856.758 880.981 25.5603
4933.1 947.262 921.383 932.471 890.074 26.1234
4936 909.978 906.975 880.994 878.814 25.5987
4938.9 863.686 879.045 822.979 858.279 24.4267
4941.8 863.472 871.65 870.863 839.718 24.201
4944.7 887.791 876.798 825.311 852.209 25.1149
4947.59 879.132 897.062 860.452 853.799 24.7255
4950.49 924.262 903.324 875.634 868.593 25.6231
4953.39 906.577 919.366 869.693 875.229 25.4047
4956.29 927.258 883.172 880.361 847.969 25.833
4959.18 815.682 870.649 793.853 830.576 23.2989
4962.08 869.007 873.139 817.514 840.613 24.287
4964.98 934.728 927.243 910.473 886.514 25.7923
4967.88 977.994 982.701 931.555 942.732 26.5654
4970.77 1035.38 988.86 986.169 936.202 27.6353
4973.67 953.203 979.581 890.883 933.083 25.9956
4976.57 950.159 957.063 922.195 919.299 25.9756
4979.46 967.828 977.453 944.819 941.973 26.3102
4982.36 1014.37 997.23 958.906 965.458 27.5224
4985.26 1009.49 1019.85 992.65 985.154 27.2007
4988.15 1035.69 994.538 1003.91 955.47 27.7718
4991.05 938.436 982.566 869.853 923.932 25.925
4993.95 973.576 973.84 898.036 910.822 26.6448
4996.84 1009.51 986.44 964.576 936.752 27.277
4999.74 976.239 1004.94 947.643 977.541 26.457
5002.64 1029.06 999.129 1020.4 982.589 27.5245
5005.53 992.083 1018.97 979.719 991.797 27.2283
5008.43 1035.76 994.174 975.267 962.911 27.8362
5011.32 954.675 988.289 933.747 958.528 25.9534
5014.22 974.43 989.878 966.57 970.822 26.5341
5017.12 1040.53 1022.21 1012.15 1011.09 28.1461
5020.01 1051.67 1053.34 1054.55 1042.04 28.3177
5022.91 1067.82 1057.42 1059.42 1045.79 28.496
5025.8 1052.76 1039.74 1023.42 1010.68 28.3324
5028.7 998.638 1007.31 949.192 972.031 27.2746
5031.59 970.535 1009.08 943.482 984.359 26.7292
5034.49 1058.08 1030.42 1060.4 1021.85 28.3024
5037.39 1062.65 1048.19 1061.67 1031.72 28.3609
5040.28 1023.86 1042.97 973.08 1026.79 27.5939
5043.18 1042.39 1043.8 1045.63 1036.54 28.1588
5046.07 1065.14 1058.43 1090.92 1067.27 28.4941
5048.97 1067.75 1075.72 1065.27 1091.67 28.3245
5051.86 1094.26 1053.56 1118.83 1062.21 28.8079
5054.76 998.669 1038.19 1002.53 1055.15 26.8837
5057.65 1021.63 1010.5 1044.08 1026.32 27.4649
5060.55 1011.2 1025.14 1032.34 1044.77 27.1505
5063.44 1042.6 1038.11 1057.89 1072.72 27.7874
5066.34 1060.54 1053.07 1127.92 1083.39 28.2142
5069.23 1056.06 1070.48 1064.36 1090.1 28.2189
5072.12 1094.84 1057.03 1078.01 1064.57 29.0705
5075.02 1020.2 1070.07 1051.32 1078.76 27.2846
5077.91 1095.17 1068.98 1106.94 1072.93 28.9923
5080.81 1091.57 1094.73 1060.53 1094.42 28.9512
5083.7 1097.43 1091.28 1115.78 1088.6 29.1811
5086.6 1084.83 1085.97 1089.51 1102.91 28.6538
5089.49 1075.63 1067.2 1103.44 1098.47 28.2753
5092.38 1041.13 1071.72 1102.45 1104.78 27.8617
5095.28 1098.4 1075.78 1108.45 1115.91 29.04
5098.17 1087.8 1091.34 1136.83 1108.64 28.5827
5101.06 1087.83 1086.49 1080.65 1105.07 28.6396
5103.96 1083.83 1090.9 1097.72 1113.61 28.8182
5106.85 1101.04 1087.32 1162.45 1123.8 28.997
5109.74 1077.1 1079.09 1111.23 1132.93 28.3373
5112.64 1059.12 1088.41 1125.11 1127.72 28.2043
5115.53 1129 1056.7 1146.83 1103.33 29.2509
5118.42 981.978 1049.76 1038.05 1101.22 26.5806
5121.32 1038.29 1032.88 1118.77 1111.26 27.9469
5124.21 1078.35 1066.7 1176.98 1136.86 28.2893
5127.1 1083.45 1068.9 1114.83 1117.22 28.3966
5130 1044.89 1078.08 1059.84 1105.64 27.7538
5132.89 1105.9 1105.84 1142.26 1136.52 28.7858
5135.78 1166.72 1133.06 1207.45 1141.22 29.8835
5138.67 1126.56 1143.54 1073.95 1154.17 29.5865
5141.57 1137.34 1132.11 1181.11 1137.15 29.5012
5144.46 1132.45 1126.54 1156.39 1160.82 29.3422
5147.35 1109.82 1124.83 1144.96 1164.35 29.0079
5150.24 1132.23 1127.65 1191.71 1166.33 29.2146
5153.14 1140.9 1144.96 1162.31 1183.2 29.3543
5156.03 1161.75 1136.31 1195.58 1180.8 29.722
5158.92 1106.28 1111.8 1184.5 1158.75 28.5936
5161.81 1067.38 1083.85 1096.15 1133.15 28.147
5164.7 1077.88 1091.67 1118.79 1127.53 28.8428
5167.6 1129.76 1085.84 1167.64 1118.11 29.7158
5170.49 1049.88 1112.58 1067.89 1145.71 28.156
5173.38 1158.11 1107.34 1201.58 1151.21 30.2173
5176.27 1114.04 1108.99 1184.15 1179.09 29.3468
5179.16 1054.83 1092.19 1151.52 1176.59 28.2065
5182.05 1107.71 1096.17 1194.1 1191.79 29.1312
5184.94 1125.98 1135.54 1229.74 1221 29.2864
5187.84 1172.93 1149.27 1239.17 1227.34 30.245
5190.73 1148.92 1176.47 1213.11 1244.82 29.5314
5193.62 1207.56 1159.42 1282.17 1223.08 30.6522
5196.51 1121.79 1167.86 1173.96 1221.97 28.8557
5199.4 1174.22 1146.97 1209.78 1199.07 29.9493
5202.29 1144.89 1129.95 1213.46 1190.6 29.3562
5205.18 1070.74 1103.67 1148.56 1187.62 27.9173
5208.07 1095.37 1097.9 1200.83 1172.07 28.4865
5210.96 1127.59 1138.31 1166.82 1198.82 29.287
5213.85 1191.99 1142.7 1228.79 1204.09 30.4544
5216.74 1108.53 1165.49 1216.65 1220.53 28.6418
5219.63 1195.94 1109.48 1216.14 1174.86 30.3035
5222.52 1023.96 1106.37 1091.8 1147.76 26.8274
5225.41 1099.22 1082.72 1135.35 1143.29 28.5546
5228.3 1124.99 1105.36 1202.71 1164.07 28.7379
5231.19 1091.86 1101.96 1154.16 1165.05 28.7602
5234.08 1089.03 1089.85 1138.29 1158.86 28.3023
5236.97 1088.65 1104.87 1184.14 1175.38 28.1749
5239.86 1136.95 1113.59 1203.7 1193.35 28.9996
5242.75 1115.17 1114.94 1192.2 1195.64 28.7269
5245.64 1092.7 1091.38 1191.03 1174.75 28.2774
5248.53 1066.28 1080.79 1141.01 1149.24 27.8366
5251.42 1083.38 1073.06 1115.68 1115.47 28.2242
5254.31 1069.52 1069.86 1089.72 1112.02 27.7373
5257.2 1056.68 1069.3 1130.66 1140.23 27.5856
5260.09 1081.71 1100.25 1200.31 1180.32 28.1318
5262.98 1162.36 1116.47 1210 1200.44 30.0086
5265.86 1105.35 1109.01 1191.01 1178.74 29.1733
5268.75 1059.33 1095.31 1135.22 1159.13 28.549
5271.64 1121.27 1123.79 1151.16 1174.94 29.464
5274.53 1190.76 1134.52 1238.45 1178.46 30.2307
5277.42 1091.54 1157.78 1145.78 1206.2 28.2446
5280.31 1191.03 1140.49 1234.37 1192.48 30.4185
5283.2 1138.9 1160.49 1197.29 1217.12 29.5169
5286.08 1151.54 1154.74 1219.69 1206.43 29.4081
5288.97 1173.77 1155.75 1202.31 1203.8 30.0307
5291.86 1141.94 1146.75 1189.39 1197.76 29.4713
5294.75 1124.54 1157.46 1201.57 1234.42 28.6202
5297.64 1205.91 1180.53 1312.3 1281.08 30.0755
5300.52 1211.13 1190.96 1329.35 1297.21 30.2268
5303.41 1155.85 1167.31 1249.97 1277.54 29.4033
5306.3 1134.94 1141.01 1253.3 1261.84 28.88
5309.19 1132.25 1153 1282.25 1284.45 28.5754
5312.07 1191.81 1172.26 1317.81 1294.69 29.7091
5314.96 1192.72 1205.26 1284.02 1297.37 29.7256
5317.85 1231.24 1211.24 1290.28 1304.83 30.6425
5320.74 1209.74 1232.87 1340.18 1319.14 30.2436
5323.62 1257.63 1233.57 1326.97 1335.34 31.183
5326.51 1233.33 1251.72 1338.89 1339.6 30.6827
5329.4 1264.2 1192.74 1352.95 1289.55 31.3706
5332.28 1080.69 1213.5 1176.81 1310.49 27.9007
5335.17 1295.6 1199.27 1401.71 1293.09 31.7599
5338.06 1221.52 1227.43 1300.75 1311.22 30.7223
5340.94 1165.15 1192.12 1231.2 1269.8 29.4333
5343.83 1189.7 1180.08 1277.44 1261.67 29.8486
5346.72 1185.4 1191.74 1276.37 1275.13 29.7812
5349.6 1200.13 1180.53 1271.57 1277.23 30.1357
5352.49 1156.07 1155.76 1283.75 1261.69 29.0042
5355.38 1111.07 1173.85 1229.74 1286.21 28.2953
5358.26 1254.41 1213.87 1345.15 1326.58 31.1081
5361.15 1276.12 1282.59 1404.84 1381.04 31.4565
5364.03 1317.23 1292.66 1393.13 1385.48 32.1732
5366.92 1284.64 1295.13 1358.46 1391.95 31.7356
5369.8 1283.53 1308.38 1424.25 1424.57 31.2878
5372.69 1356.96 1297.35 1490.99 1440.77 32.7576
5375.58 1251.58 1271.52 1407.07 1395.45 30.7665
5378.46 1206.01 1239.35 1288.29 1346.51 30.0845
5381.35 1260.46 1232.7 1344.18 1332.08 31.2244
5384.23 1231.64 1267.53 1363.76 1374.92 30.7288
5387.12 1310.51 1294.78 1416.82 1426.54 31.964
5390 1342.2 1345.25 1499.06 1471.41 32.3887
5392.89 1383.03 1351.04 1498.35 1479.09 33.3484
5395.77 1327.9 1366.76 1439.87 1481.5 32.3426
5398.66 1389.36 1344.15 1506.27 1475 33.752
5401.54 1315.18 1331.05 1478.85 1455.56 32.1198
5404.42 1288.62 1287.98 1381.56 1407.27 32.0744
5407.31 1260.15 1278.32 1361.41 1380.75 31.4796
5410.19 1286.18 1250.19 1399.29 1356.64 31.7095
5413.08 1204.24 1269.88 1309.23 1386.45 30.1175
5415.96 1319.21 1252.21 1450.82 1362.29 32.1525
5418.85 1233.2 1274.87 1326.82 1392.22 30.7839
5421.73 1272.19 1275.26 1399.02 1387.27 31.4021
5424.61 1320.38 1297 1435.96 1413.05 32.1874
5427.5 1298.43 1313.54 1404.16 1432.14 32.0658
5430.38 1321.81 1313.16 1456.3 1443.09 31.9701
5433.26 1319.25 1340.73 1468.82 1486.36 32.1373
5436.15 1381.15 1350.97 1533.97 1509.5 32.982
5439.03 1352.5 1367.45 1525.73 1510.15 32.2635
5441.91 1368.7 1358.62 1470.74 1496.94 32.7578
5444.8 1354.65 1352.94 1494.35 1479.13 32.534
5447.68 1335.48 1362.51 1472.3 1495.99 32.1526
5450.56 1397.4 1349.57 1521.32 1479.23 33.3813
5453.45 1315.82 1348.7 1444.08 1486.06 31.9895
5456.33 1332.88 1313.83 1492.79 1468.71 31.9411
5459.21 1292.8 1329.46 1469.26 1486.22 31.1383
5462.09 1362.68 1340.42 1496.62 1493.55 32.5503
5464.98 1365.79 1362.4 1514.78 1505.7 32.4297
5467.86 1358.72 1355.14 1505.69 1491.92 32.6355
5470.74 1340.9 1361.44 1455.3 1488.44 32.1573
5473.62 1384.68 1353.25 1504.32 1482.89 32.9611
5476.51 1334.18 1333.88 1489.06 1468.95 32.0347
5479.39 1282.77 1317.83 1413.46 1463.33 31.1581
5482.27 1336.55 1318.89 1487.48 1451.88 32.2727
5485.15 1337.34 1320.13 1454.7 1447.04 32.2803
5488.03 1286.49 1355.53 1398.93 1459.49 31.4754
5490.91 1442.75 1352.45 1524.84 1470.39 34.134
5493.8 1328.12 1386.48 1487.39 1512.47 32.0307
5496.68 1388.57 1330.68 1525.18 1484.16 32.7804
5499.56 1275.36 1323.87 1439.9 1486.47 30.7321
5502.44 1307.69 1304.25 1494.32 1474.73 31.3292
5505.32 1329.7 1339.84 1489.96 1500.67 31.8653
5508.2 1382.13 1394.33 1517.74 1552.58 32.9962
5511.08 1471.15 1411.32 1650.05 1551.18 34.102
5513.96 1380.68 1382.94 1485.74 1532.94 32.7699
5516.84 1296.98 1355.8 1463.04 1514 30.9797
5519.73 1389.73 1366.98 1593.21 1534.9 32.7664
5522.61 1414.23 1431.73 1548.45 1582.93 32.9906
5525.49 1491.24 1425 1607.14 1553.92 34.6943
5528.37 1369.52 1392.94 1506.18 1524.64 32.54
5531.25 1318.07 1344.22 1460.61 1494.04 31.4486
5534.13 1345.07 1353.43 1515.34 1511.51 32.1097
5537.01 1397.15 1365.72 1558.58 1535.63 32.5825
5539.89 1354.93 1370.09 1532.97 1524.26 31.8515
5542.77 1358.19 1370.15 1481.24 1511.28 31.6673
5545.65 1397.34 1359.17 1519.62 1506.87 32.4837
5548.53 1321.98 1358.8 1519.74 1515.58 30.6569
5551.41 1357.07 1343.91 1507.38 1506.25 31.8438
5554.28 1352.69 1361.14 1491.62 1503.41 31.6655
5557.16 1373.65 1377.67 1511.22 1524.27 32.1647
5560.04 1406.66 1397 1569.98 1557.11 32.2402
5562.92 1410.68 1422.81 1590.13 1617.09 32.2374
5565.8 1451.11 1433.4 1691.16 1673.11 32.6842
5568.68 1438.4 1459.04 1738.05 1744.5 28.9394
5571.56 1487.61 1446.49 1804.29 1706.1 24.0669
5574.44 1413.47 1484.95 1575.96 1664.93 19.9216
5577.32 1553.76 1509.69 1614.53 1679.39 20.4938
5580.19 1561.86 1516.89 1847.69 1701.85 22.0276
5583.07 1435.04 1470.99 1643.32 1699.37 22.7884
5585.95 1416.07 1409.36 1607.1 1608.12 25.3387
5588.83 1376.97 1395.52 1573.94 1566.86 26.1741
5591.71 1393.52 1372.8 1519.56 1531.54 27.6358
5594.59 1347.92 1391.66 1501.12 1545.81 28.2254
5597.46 1433.56 1389.7 1616.76 1557.8 30.9393
5600.34 1387.61 1434.04 1555.51 1602.96 31.2288
5603.22 1480.95 1469.34 1636.62 1631.5 33.3493
5606.1 1539.45 1475.69 1702.35 1645.22 34.2711
5608.97 1406.67 1460.53 1596.68 1630.3 32.4277
5611.85 1435.48 1387.49 1591.86 1562.26 33.0042
5614.73 1320.32 1395.26 1498.24 1559.64 31.0142
5617.61 1429.98 1390.4 1588.82 1569.48 32.7169
5620.48 1420.91 1450.99 1621.39 1626.63 32.5252
5623.36 1502.08 1437.5 1669.68 1628.7 33.9044
5626.24 1389.51 1436.36 1595.02 1614.6 32.1897
5629.11 1417.49 1444.84 1579.11 1637.3 32.9312
5631.99 1527.53 1483.26 1737.77 1677.19 34.6423
5634.87 1504.77 1493.62 1714.69 1688.48 34.3871
5637.74 1448.55 1484.52 1612.96 1656.23 33.1878
5640.62 1500.25 1471.25 1641.03 1629.56 34.0674
5643.49 1464.95 1449.53 1634.7 1622.91 33.4729
5646.37 1383.4 1442.28 1593.01 1627.33 31.9797
5649.25 1478.5 1442.34 1654.28 1620.2 33.8505
5652.12 1465.14 1457.65 1613.3 1625.14 33.376
5655 1429.3 1441.69 1607.84 1612.62 32.9641
5657.87 1430.63 1443.04 1616.7 1610.97 33.2252
5660.75 1469.19 1450.5 1608.36 1628.04 33.7432
5663.63 1451.68 1426.02 1659.07 1605.33 33.4409
5666.5 1357.2 1396.97 1548.54 1594.95 31.5412
5669.38 1382.03 1373.91 1577.23 1558.74 32.1684
5672.25 1382.5 1414.91 1550.45 1599.6 31.8377
5675.13 1480.2 1407.22 1671.13 1590.26 33.5695
5678 1358.95 1420.49 1549.22 1609.12 31.5728
5680.88 1422.3 1406.31 1607.02 1576.98 32.7086
5683.75 1437.69 1429.43 1574.71 1578.89 32.9709
5686.62 1428.31 1444.91 1554.94 1601.41 32.6436
5689.5 1468.73 1477.66 1674.59 1637.51 33.0386
5692.37 1535.94 1476.82 1683.01 1650.34 34.3995
5695.25 1425.78 1474.95 1593.42 1654.82 32.5899
5698.12 1463.13 1456.56 1688.04 1657.11 33.14
5701 1480.78 1467.24 1689.86 1679.3 33.4995
5703.87 1457.82 1470.18 1660.02 1666.74 33.2973
5706.74 1471.95 1462.92 1650.33 1664.61 33.6157
5709.62 1458.98 1449.03 1683.47 1634.77 33.3429
5712.49 1416.15 1481.29 1570.52 1669.15 32.4472
5715.36 1568.72 1467.35 1753.47 1639.68 35.0331
5718.24 1417.18 1499.39 1595.04 1684.63 32.6788
5721.11 1512.27 1462.49 1705.39 1646.08 34.3138
5723.98 1458.03 1474.18 1637.82 1669.43 33.1585
5726.86 1452.24 1462.26 1665.08 1656.25 33.1081
5729.73 1476.5 1451.86 1665.83 1643.3 33.5582
5732.6 1426.84 1461.64 1598.97 1649.18 32.9307
5735.48 1481.59 1459.09 1682.73 1644.5 33.5282
5738.35 1468.86 1483.02 1651.79 1673.74 33.4805
5741.22 1498.62 1468.47 1686.68 1663.1 33.6665
5744.09 1437.92 1477.9 1650.82 1676.49 33.0531
5746.97 1497.17 1467.64 1691.95 1668.11 34.3128
5749.84 1467.82 1465.2 1661.56 1662.68 33.4832
5752.71 1430.6 1458.36 1634.53 1656.1 33.1372
5755.58 1476.65 1475.91 1672.23 1676.73 33.843
5758.45 1520.48 1518.4 1723.43 1717.41 34.5972
5761.33 1558.08 1501.79 1756.58 1701.95 35.0303
5764.2 1426.82 1483.96 1625.83 1664.61 32.8913
5767.07 1466.99 1482.58 1611.42 1679.45 33.602
5769.94 1553.93 1483.09 1801.11 1688.88 34.9785
5772.81 1428.34 1480.1 1654.1 1707.17 32.5546
5775.68 1458.04 1474.18 1666.3 1683.56 33.2967
5778.55 1536.17 1478.3 1730.28 1665.95 34.7121
5781.43 1440.7 1466.02 1601.25 1646.56 33.3663
5784.3 1421.19 1461.96 1608.15 1649.43 32.8966
5787.17 1523.98 1462.7 1738.89 1664.35 34.4792
5790.04 1442.92 1477.24 1646.02 1676.39 33.2572
5792.91 1464.81 1458.89 1644.27 1645.2 33.8426
5795.78 1468.95 1448.86 1645.3 1654.48 33.6392
5798.65 1412.82 1459.25 1673.86 1664.12 32.4448
5801.52 1495.98 1473.42 1673.2 1689.77 33.9256
5804.39 1511.48 1488.23 1722.24 1675.71 34.1901
5807.26 1457.23 1523.1 1631.67 1714.56 33.2797
5810.13 1600.6 1526.77 1789.76 1717.29 35.4999
5813 1522.49 1576.3 1730.45 1793.77 34.2857
5815.87 1605.81 1570 1861.1 1782.94 35.3186
5818.74 1581.71 1598.1 1757.26 1811.98 35.3261
5821.61 1606.8 1570.27 1817.57 1762.38 35.3914
5824.48 1522.29 1557.35 1712.3 1758.1 34.1304
5827.34 1542.96 1531.85 1744.43 1728.57 34.5527
5830.21 1530.28 1545.74 1728.99 1754.09 34.2775
5833.08 1563.97 1554.11 1788.85 1765.67 34.7729
5835.95 1568.07 1553.91 1779.19 1760.31 34.6016
5838.82 1529.69 1530.78 1712.88 1743.22 34.1812
5841.69 1494.57 1512.38 1737.6 1732.17 33.5249
5844.56 1512.88 1534.96 1746.02 1751.43 34.1395
5847.43 1597.43 1563.62 1770.66 1764.7 35.2538
5850.29 1580.54 1581.29 1777.41 1756.73 35.0413
5853.16 1565.9 1542.76 1722.13 1724.86 34.8031
5856.03 1481.84 1542.93 1675.05 1743.28 33.4422
5858.9 1581.04 1557.58 1832.65 1804.81 34.4281
5861.77 1609.86 1586.64 1906.74 1846.33 34.061
5864.63 1569.02 1546.49 1799.61 1796.69 33.0651
5867.5 1460.6 1517.28 1683.72 1739.99 30.987
5870.37 1522.22 1496.99 1736.65 1714.22 32.1937
5873.24 1508.15 1528.63 1722.28 1757.96 32.389
5876.1 1555.52 1505.81 1814.94 1733.61 33.1457
5878.97 1453.77 1536.86 1663.6 1760.69 31.8072
5881.84 1601.31 1541.71 1803.52 1738.16 32.5288
5884.7 1570.07 1623.49 1747.37 1821.38 29.6023
5887.57 1699.11 1616.95 1913.25 1820.31 29.5015
5890.44 1581.68 1594.33 1800.3 1801.82 26.819
5893.3 1502.21 1547.31 1691.9 1780.67 26.1104
5896.17 1558.03 1505 1849.8 1741.67 27.9023
5899.04 1454.75 1503.82 1683.3 1740.65 27.723
5901.9 1498.69 1504.01 1688.86 1690.63 29.6945
5904.77 1558.59 1521.58 1699.72 1705.48 31.697
5907.63 1507.45 1542.63 1727.85 1735.18 31.4636
5910.5 1561.83 1522.16 1777.96 1742.51 32.379
5913.37 1497.19 1535.34 1721.73 1764.38 31.3485
5916.23 1546.99 1542.06 1793.44 1779.92 32.4662
5919.1 1581.99 1590.24 1824.61 1830.49 33.2472
5921.96 1641.73 1634.75 1873.43 1868.96 34.3159
5924.83 1680.52 1659.14 1908.85 1874.86 34.9434
5927.69 1655.16 1664.55 1842.31 1875.26 34.2006
5930.56 1657.96 1602.15 1874.62 1831.87 33.9922
5933.42 1493.33 1563.06 1778.66 1793.12 31.5151
5936.29 1537.9 1531.76 1726.08 1764.4 32.7208
5939.15 1564.04 1531.45 1788.45 1756.23 33.5125
5942.02 1492.4 1515.56 1754.17 1754.99 32.4359
5944.88 1490.23 1507.55 1722.33 1758.7 32.078
5947.74 1540.04 1538.98 1799.58 1786.95 32.536
5950.61 1586.69 1550.92 1838.92 1788.25 33.4683
5953.47 1526.05 1552.16 1726.26 1776.46 32.2066
5956.34 1543.75 1548.16 1764.19 1761.82 32.9462
5959.2 1574.7 1563.69 1795 1803.62 33.5882
5962.06 1572.64 1591.72 1851.68 1836.03 33.8775
5964.93 1627.82 1593.36 1861.43 1839.79 34.7944
5967.79 1579.63 1577.71 1806.28 1815.41 34.1022
5970.65 1525.66 1555.45 1778.53 1772.23 32.6468
5973.52 1561.07 1481.14 1731.89 1694.97 33.7873
5976.38 1356.71 1400.8 1574.51 1598 30.2545
5979.24 1284.62 1327.02 1487.6 1526.53 29.2348
5982.11 1339.72 1338.51 1517.47 1549.02 30.4876
5984.97 1391.19 1378.28 1641.99 1581.21 31.4759
5987.83 1403.93 1406.96 1584.18 1631.24 31.9267
5990.69 1425.77 1408.97 1667.56 1623.32 31.9598
5993.56 1397.22 1435.62 1618.22 1666.72 31.467
5996.42 1483.89 1454.67 1714.4 1690.35 33.108
5999.28 1482.91 1510.95 1738.44 1769.01 32.7735
6002.14 1566.06 1514.34 1854.2 1793.15 34.0004
6005 1494.05 1507.84 1786.82 1802.58 33.2009
6007.86 1463.43 1472.27 1766.72 1742.71 32.7038
6010.73 1459.35 1482.39 1674.6 1741.74 32.9729
6013.59 1524.39 1508.56 1783.89 1763.62 33.9816
6016.45 1541.93 1540.06 1832.37 1810.63 34.5684
6019.31 1553.86 1553.56 1815.61 1840.49 34.8122
6022.17 1564.89 1533.57 1873.48 1818.26 34.8972
6025.03 1481.94 1539.57 1765.7 1833.22 33.4866
6027.89 1571.87 1519.26 1860.48 1805.94 34.7481
6030.75 1503.97 1529.03 1791.64 1810.71 33.6495
6033.61 1511.25 1503.36 1779.99 1786.69 33.7911
6036.47 1494.86 1504.05 1788.44 1786.31 33.7698
6039.33 1506.04 1509.2 1790.51 1790.4 33.8396
6042.2 1526.7 1501.17 1792.25 1777.24 34.3386
6045.06 1470.78 1524.55 1748.97 1788.92 33.4371
6047.92 1576.17 1523.8 1825.53 1799.26 35.57
6050.77 1524.46 1578.55 1823.28 1861.34 34.3542
6053.63 1635.02 1582.14 1935.21 1861.78 36.4553
6056.49 1586.93 1568.41 1826.85 1837.8 35.3973
6059.35 1483.27 1505.37 1751.34 1767.56 33.8716
6062.21 1445.91 1487.36 1724.5 1745.54 33.2621
6065.07 1532.89 1516.1 1760.78 1770.58 34.5462
6067.93 1569.5 1554.11 1826.47 1788.58 35.3479
6070.79 1559.94 1572.22 1778.5 1827.4 35.0443
6073.65 1587.22 1545.81 1877.24 1816.66 35.6284
6076.51 1490.27 1545.78 1794.24 1844.29 33.9894
6079.37 1559.84 1523.46 1861.4 1828.31 35.1293
6082.22 1520.27 1525.99 1829.29 1819.98 34.4983
6085.08 1497.85 1502.47 1769.27 1786.21 34.2044
6087.94 1489.3 1523.32 1760.09 1805.15 33.8083
6090.8 1582.81 1519.32 1886.09 1801.08 35.6945
6093.66 1485.87 1552.35 1757.05 1840.22 33.7371
6096.51 1588.38 1519.83 1877.52 1803.92 35.8437
6099.37 1485.23 1520.15 1777.18 1808.71 33.9725
6102.23 1486.85 1519.85 1771.43 1801.36 33.8429
6105.09 1587.45 1517.28 1855.47 1800.69 35.6635
6107.94 1477.54 1543.43 1775.17 1827.1 33.7185
6110.8 1565.31 1491.76 1850.65 1775.28 35.3825
6113.66 1432.44 1509.08 1700.03 1779.62 33.2474
6116.52 1529.5 1504.6 1788.17 1777.36 34.8204
6119.37 1551.85 1542.79 1843.87 1819.56 35.1754
6122.23 1547.03 1567.82 1826.64 1860.78 35.2333
6125.09 1604.57 1576.58 1911.83 1863.59 36.2346
6127.94 1578.12 1600.82 1852.28 1884.66 35.8885
6130.8 1619.77 1601.45 1889.87 1879.01 36.2952
6133.65 1606.45 1614.5 1894.88 1892.35 35.774
6136.51 1617.28 1598.75 1892.29 1869.65 35.5599
6139.37 1572.53 1588.9 1821.76 1855.65 34.8772
6142.22 1576.88 1561.51 1852.89 1838.74 34.8684
6145.08 1535.11 1562.73 1841.56 1866.81 34.2887
6147.93 1576.19 1568.73 1905.97 1873.99 35.2478
6150.79 1594.88 1577.56 1874.43 1884.03 35.5187
6153.64 1561.6 1578.89 1871.67 1861.41 35.2305
6156.5 1580.18 1586.84 1838.12 1866.3 35.6217
6159.35 1618.73 1570.06 1889.12 1837.42 36.285
6162.21 1511.25 1572.96 1785.03 1853.62 34.7267
6165.06 1588.91 1570.38 1886.71 1843.54 35.3556
6167.92 1610.97 1612.54 1858.88 1890.42 35.4803
6170.77 1637.73 1597.92 1925.68 1866.37 35.6651
6173.63 1545.07 1571.48 1814.56 1851.27 34.6827
6176.48 1531.65 1541.01 1813.57 1836.98 34.6425
6179.33 1546.3 1564.29 1882.81 1871.25 34.7804
6182.19 1614.91 1574.9 1917.38 1890.61 36.1053
6185.04 1563.51 1580.33 1871.63 1880.95 35.2321
6187.9 1562.56 1538.62 1853.84 1822.45 35.3286
6190.75 1489.8 1549.71 1741.87 1818.11 34.4926
6193.6 1596.75 1523.73 1858.63 1788.09 36.0445
6196.46 1484.64 1515.67 1763.77 1785.33 34.0081
6199.31 1465.6 1505.43 1733.58 1779.21 33.2687
6202.16 1566.04 1522.09 1840.29 1788.36 34.8964
6205.01 1534.61 1535.8 1791.21 1815.49 34.7008
6207.87 1506.74 1540.7 1814.96 1831.8 34.0714
6210.72 1580.74 1524.62 1889.23 1829.02 35.3087
6213.57 1486.38 1524.27 1782.88 1815.92 33.5234
6216.43 1505.7 1534.49 1775.66 1810.87 33.8747
6219.28 1611.38 1553.82 1874.07 1822.74 35.6963
6222.13 1544.39 1532.9 1818.48 1806.78 34.5668
6224.98 1442.93 1512.71 1727.8 1794.49 32.8676
6227.83 1550.81 1490.76 1837.18 1773.65 34.0069
6230.68 1478.52 1515.45 1755.97 1774.94 31.9088
6233.54 1517.02 1506.02 1731.66 1756.32 31.2689
6236.39 1522.5 1555.55 1781.32 1795.07 30.9784
6239.24 1627.11 1566.33 1872.23 1822.01 33.2366
6242.09 1549.36 1572.4 1812.49 1819.15 32.4932
6244.94 1540.71 1549.83 1772.74 1790.34 33.0812
6247.79 1559.42 1524.82 1785.8 1765.47 33.9486
6250.64 1474.31 1485.94 1737.87 1728 32.0972
6253.49 1424.07 1440.13 1660.33 1698.95 30.9628
6256.34 1421.99 1414.25 1698.65 1678.08 30.1879
6259.19 1396.67 1427.64 1675.27 1704.96 29.8378
6262.04 1464.26 1435.28 1740.98 1717.57 31.4472
6264.89 1444.9 1443.09 1736.45 1723.79 31.2489
6267.74 1420.1 1447.22 1693.95 1734.14 31.4857
6270.59 1476.67 1470.96 1772.02 1742.79 32.6222
6273.44 1516.11 1491.53 1762.39 1766.8 33.7177
6276.29 1481.81 1492.32 1766.01 1753.85 33.3906
6279.14 1479.05 1456.44 1733.14 1734.45 33.0901
6281.99 1408.44 1458.84 1704.19 1734.64 31.2139
6284.84 1489.02 1434.56 1766.58 1708 32.0929
6287.69 1406.2 1461.96 1653.22 1747.41 30.8959
6290.54 1490.65 1461.25 1822.41 1727.67 31.1967
6293.39 1486.9 1472.13 1707.38 1763.39 28.0114
6296.24 1438.82 1487.26 1760.39 1747.08 24.6936
6299.08 1536.05 1504.8 1773.48 1775.34 24.8887
6301.93 1539.52 1512.57 1792.15 1765.44 25.394
6304.78 1462.14 1465.33 1730.68 1714.86 25.9585
6307.63 1394.34 1425.71 1621.76 1679.79 26.9556
6310.48 1420.65 1421.98 1686.92 1678.42 29.0321
6313.32 1450.95 1407.16 1726.58 1685.66 30.7087
6316.17 1349.87 1439.61 1643.49 1705.49 29.9696
6319.02 1518.02 1449.52 1746.41 1709.79 33.2547
6321.87 1480.67 1494 1739.48 1737.48 32.4012
6324.71 1483.29 1504.24 1726.55 1755.72 32.2707
6327.56 1548.77 1455.63 1801.14 1709.01 33.0328
6330.41 1334.83 1444.06 1599.34 1700.95 29.4588
6333.25 1448.59 1430.51 1702.37 1690.07 32.2533
6336.1 1508.12 1476 1768.49 1747.9 33.8144
6338.95 1471.29 1439.58 1772.83 1709.41 33.5996
6341.79 1339.32 1438.61 1586.9 1687.75 31.2673
6344.64 1505.21 1448.85 1703.53 1691.03 34.0096
6347.49 1502.02 1480.01 1782.67 1720.82 33.7635
6350.33 1432.81 1472.14 1676.26 1731.68 32.2497
6353.18 1481.58 1472.74 1736.12 1704.12 32.3798
6356.02 1503.83 1509.42 1699.98 1755.03 31.9173
6358.87 1542.83 1532.05 1829 1790.8 31.1793
6361.71 1549.47 1531.51 1843.42 1813.7 30.9071
6364.56 1502.24 1507.02 1768.68 1782.06 30.6314
6367.4 1469.35 1478.54 1734.08 1734.82 31.0723
6370.25 1464.05 1479.85 1701.7 1755.74 32.3138
6373.09 1506.15 1471.49 1831.45 1734.41 33.4848
6375.94 1444.26 1467.56 1670.08 1714.01 32.8166
6378.78 1452.27 1494.74 1640.51 1709.58 33.2338
6381.63 1587.68 1521.87 1818.16 1739.78 35.4911
6384.47 1525.65 1539.13 1760.67 1773.42 34.4435
6387.32 1504.07 1492.69 1741.41 1725.42 34.0697
6390.16 1448.34 1481.01 1674.19 1719.39 33.7088
6393 1490.63 1470.32 1742.56 1723.6 34.5177
6395.85 1471.98 1476.22 1754.05 1738.86 34.4306
6398.69 1466.04 1498.51 1719.98 1758.2 34.3106
6401.53 1557.51 1514.74 1800.58 1768.88 36.1057
6404.38 1520.66 1521.73 1786.09 1792.19 35.66
6407.22 1487.03 1504.36 1789.89 1784.88 34.5654
6410.06 1505.38 1498.66 1778.64 1785.65 35.1752
6412.91 1503.58 1465.56 1788.41 1740.85 34.6857
6415.75 1387.72 1478.5 1655.49 1756.01 32.6772
6418.59 1544.2 1468.24 1824.13 1740.15 35.3144
6421.43 1472.8 1539.64 1740.84 1824.54 34.2153
6424.28 1601.91 1502.16 1908.65 1771.51 36.3108
6427.12 1431.78 1516.6 1665.03 1788.45 33.8279
6429.96 1516.1 1445.16 1791.67 1709.65 35.2141
6432.8 1387.59 1482.11 1672.25 1733.74 33.1882
6435.64 1542.64 1489.86 1737.3 1730.82 36.0359
6438.49 1539.36 1522.15 1782.91 1749.29 36.019
6441.33 1484.47 1507.9 1727.65 1747.49 34.9908
6444.17 1499.89 1475.22 1731.91 1712.83 35.3577
6447.01 1441.3 1481.35 1678.92 1718.6 34.1016
6449.85 1502.87 1480.69 1744.97 1737.27 35.1378
6452.69 1497.91 1476.43 1787.93 1746.32 34.8018
6455.53 1428.5 1476.78 1706.06 1752.06 33.253
6458.37 1503.92 1444.61 1762.19 1708.17 34.1217
6461.21 1401.42 1460.1 1656.28 1716.28 31.3337
6464.05 1474.97 1452.05 1730.39 1713.66 31.7139
6466.89 1479.76 1475.08 1754.31 1750.15 31.5484
6469.73 1470.5 1503.35 1765.74 1777.5 31.8026
6472.57 1559.8 1513.56 1812.45 1779.79 33.8375
6475.41 1510.38 1535.23 1761.18 1780.07 33.8819
6478.25 1535.5 1540.5 1766.58 1780.68 34.6522
6481.09 1575.63 1556.08 1814.27 1795.29 36.0697
6483.93 1557.1 1554.3 1805.02 1800.42 36.08
6486.77 1530.17 1497.4 1781.96 1746.58 35.6974
6489.61 1404.93 1453.76 1652.76 1705.29 33.2644
6492.45 1426.19 1423.16 1681.15 1673.17 32.2294
6495.29 1438.35 1467.94 1685.6 1722 31.3437
6498.12 1539.3 1487.61 1799.25 1754.04 32.3356
6500.96 1485.2 1514.35 1777.27 1783.97 31.5338
6503.8 1518.56 1494.52 1775.4 1757.15 33.063
6506.64 1479.81 1472.75 1718.77 1709.44 33.2782
6509.48 1419.89 1413.5 1634.14 1655.31 32.6597
6512.31 1340.81 1396.42 1613 1622.36 31.7222
6515.15 1428.56 1401.19 1619.93 1639.68 33.3492
6517.99 1434.2 1449.14 1686.11 1682.82 33.0887
6520.83 1484.68 1460.46 1742.43 1713.12 34.0916
6523.66 1462.5 1497.25 1710.82 1760.16 33.4167
6526.5 1544.56 1467.85 1827.23 1732.41 34.4399
6529.34 1396.47 1487.39 1659.17 1757.63 31.0959
6532.17 1521.13 1443.06 1786.49 1702.82 33.0029
6535.01 1411.58 1454.55 1662.79 1714.51 31.5784
6537.85 1430.93 1466.2 1694.24 1721.92 32.1031
6540.68 1556.09 1497.21 1808.72 1743.58 34.3448
6543.52 1504.6 1510.85 1727.77 1744.72 33.7078
6546.36 1471.86 1476.97 1697.67 1696.81 32.5634
6549.19 1454.43 1464.64 1665 1699.65 31.7342
6552.03 1467.63 1446.14 1736.27 1687.01 31.6349
6554.86 1416.36 1467.76 1659.77 1728.23 31.154
6557.7 1519.27 1464.65 1788.65 1719.3 32.9789
6560.53 1458.31 1484.63 1709.48 1740.28 32.2563
6563.37 1476.3 1484.75 1722.72 1726 32.7959
6566.2 1519.64 1489.49 1745.79 1714.56 34.0778
6569.04 1472.55 1489.37 1675.16 1691.28 33.1015
6571.87 1475.93 1486.95 1652.88 1702.21 32.7414
6574.71 1512.37 1513.17 1778.6 1742.76 32.9123
6577.54 1551.21 1494.3 1796.78 1739.14 33.3241
6580.38 1419.31 1484.79 1642.03 1714.35 32.2426
6583.21 1483.85 1487.05 1704.24 1706.51 34.0624
6586.04 1558 1487.8 1773.27 1710.88 35.8117
6588.88 1421.55 1457.55 1655.12 1679.58 33.3766
6591.71 1393.1 1413.8 1610.35 1642.06 33.0184
6594.54 1426.74 1445.19 1660.71 1670.6 33.4776
6597.38 1515.72 1469.12 1740.75 1684.67 34.3612
6600.21 1464.88 1486.46 1652.56 1700.05 33.5759
6603.04 1478.76 1487.77 1706.84 1705.9 33.441
6605.88 1519.65 1487.64 1758.31 1717.12 34.5576
6608.71 1464.5 1526.34 1686.21 1753.54 34.3535
6611.54 1594.87 1506.32 1816.11 1722.93 36.9217
6614.37 1459.59 1558.05 1666.47 1795.43 34.9583
6617.21 1619.69 1541.64 1903.7 1784.63 37.0844
6620.04 1545.65 1551.25 1783.73 1814.84 36.2124
6622.87 1488.42 1535.85 1757.09 1784.29 34.8566
6625.7 1573.47 1524.34 1812.04 1766.98 36.1074
6628.53 1511.14 1541.79 1731.81 1778.4 35.0208
6631.37 1540.76 1536.64 1791.36 1772.59 35.021
6634.2 1558.03 1530.94 1794.61 1768.16 35.8485
6637.03 1494.05 1554.43 1718.51 1805.15 34.9165
6639.86 1611.23 1561.89 1902.33 1820.29 37.193
6642.69 1580.4 1629.62 1840.02 1910.77 36.637
6645.52 1697.23 1657.83 1989.98 1925.68 38.7934
6648.35 1695.86 1676.41 1947.05 1946 38.5566
6651.18 1636.13 1690.68 1900.96 1946.43 37.7151
6654.01 1740.05 1847.12 1991.28 2135.96 39.102
6656.84 2165.18 2128.06 2515.65 2473.82 44.4527
6659.67 2478.94 2414.51 2914.52 2818.63 48.241
6662.5 2599.41 2531.62 3025.71 2924.03 49.5163
6665.33 2516.52 2417.34 2831.86 2755.87 48.5196
6668.16 2136.1 2187.31 2410.04 2477.38 43.9836
6670.99 1909.32 1933.11 2190.26 2201.09 41.2825
6673.82 1753.91 1808.25 2002.99 2067.54 39.3336
6676.65 1761.52 1801.5 2009.37 2068.13 39.4567
6679.48 1889.07 1838.24 2192.05 2125.71 41.2341
6682.31 1864.12 1889.96 2175.71 2191.57 40.8168
6685.13 1916.69 1866.86 2206.95 2161.74 41.6386
6687.96 1819.77 1798.44 2102.56 2071.35 40.2328
6690.79 1658.85 1704.83 1904.53 1955.01 37.7169
6693.62 1635.88 1631.04 1857.94 1872.73 37.9128
6696.45 1598.39 1607.44 1855.71 1843.83 37.1857
6699.27 1588.03 1575.5 1817.85 1813.48 36.9354
6702.1 1540.07 1599.4 1766.89 1840.09 36.1627
6704.93 1670.09 1581.05 1935.52 1818.64 38.2796
6707.76 1532.98 1584.14 1753.52 1823.58 36.2743
6710.58 1549.35 1548.86 1781.69 1779.59 36.1937
6713.41 1564.25 1562.82 1803.56 1801.05 36.5839
6716.24 1574.86 1590.89 1817.89 1823.38 36.4863
6719.06 1633.58 1601.41 1848.69 1850 37.9737
6721.89 1595.78 1607.41 1883.43 1865.62 37.1087
6724.72 1592.86 1583.41 1864.76 1853.75 36.8334
6727.54 1561.58 1586.67 1813.05 1836.46 36.5272
6730.37 1605.57 1551.91 1831.58 1790.47 37.0675
6733.19 1488.57 1532.89 1726.77 1752.3 35.6577
6736.02 1504.55 1499 1698.56 1725.97 35.7257
6738.85 1503.89 1529.2 1752.57 1754.46 35.3181
6741.67 1579.16 1536.24 1812.25 1775.44 36.8299
6744.5 1525.67 1533.73 1761.5 1766.3 35.8117
6747.32 1496.37 1511.31 1725.15 1747.95 35.5414
6750.15 1511.91 1503.42 1757.2 1728.23 35.8646
6752.97 1501.99 1548.9 1702.33 1776.54 35.7101
6755.8 1632.8 1565.18 1870.09 1781.55 37.6575
6758.62 1560.76 1565.84 1772.24 1773.4 36.7304
6761.44 1503.97 1565.27 1677.87 1768.46 36.1134
6764.27 1631.09 1532.9 1855.27 1744.7 37.6562
6767.09 1463.64 1569.07 1700.98 1796.7 35.3189
6769.92 1612.49 1529.99 1833.84 1765.92 37.8756
6772.74 1513.84 1554.92 1762.93 1785.82 36.077
6775.56 1538.42 1527.75 1760.7 1743.13 36.5941
6778.39 1530.99 1536.16 1705.75 1741.4 36.604
6781.21 1539.07 1564.38 1757.77 1762.21 36.364
6784.03 1623.09 1576.86 1823.12 1803.5 37.7852
6786.86 1568.42 1605.43 1829.6 1843.45 36.5031
6789.68 1624.77 1573.87 1877.62 1824.7 37.9166
6792.5 1528.42 1587.42 1766.89 1821.08 36.3484
6795.32 1609.06 1578.24 1818.73 1799.28 37.7405
6798.15 1597.23 1620.72 1812.23 1845.99 37.3826
6800.97 1655.88 1586.92 1907.02 1817.19 38.2373
6803.79 1507.67 1566.47 1732.33 1805.16 35.9579
6806.61 1535.86 1534.3 1776.14 1757.02 36.5961
6809.43 1559.36 1568.23 1762.6 1795.08 36.8667
6812.25 1609.46 1613.83 1846.48 1852.43 37.3071
6815.08 1672.67 1696.59 1948.21 1950.52 38.5084
6817.9 1807.63 1725.39 2056.87 1975.53 39.8613
6820.72 1695.89 1718.88 1921.53 1958.47 36.6
6823.54 1653.14 1665.19 1897.02 1907.08 33.478
6826.36 1646.54 1652.5 1902.69 1890.34 31.1583
6829.18 1657.83 1621.88 1871.3 1846.28 30.6144
6832 1561.27 1654.95 1764.84 1847.28 29.0951
6834.82 1745.75 1655.33 1905.7 1851.92 33.2576
6837.64 1658.98 1653.06 1885.21 1847.86 33.2154
6840.46 1554.44 1574.03 1752.66 1778.11 33.0875
6843.28 1508.66 1525.46 1696.47 1719.99 33.8263
6846.1 1513.28 1484.51 1710.84 1688.83 34.9491
6848.92 1431.59 1500.07 1659.18 1715.01 34.0262
6851.74 1555.34 1485.46 1775.02 1705.12 36.353
6854.56 1469.46 1508.48 1681.15 1717.55 33.711
6857.37 1500.65 1485.21 1696.48 1693.92 31.4762
6860.19 1485.51 1466.42 1704.14 1677.02 29.333
6863.01 1413.1 1370.84 1630.44 1582.16 27.5578
6865.83 1213.9 1280.18 1411.9 1486.11 25.8985
6868.65 1213.54 1209.68 1416 1400 27.4229
6871.47 1201.61 1206.06 1372.09 1380.37 28.8777
6874.28 1203.03 1195.66 1353.01 1355.13 29.6477
6877.1 1182.33 1238.45 1340.3 1406.39 29.493
6879.92 1329.98 1290.13 1525.84 1470.52 32.2479
6882.74 1358.08 1350.37 1545.42 1542.52 32.1729
6885.55 1363.05 1345.96 1556.3 1537.08 32.093
6888.37 1316.75 1341.23 1509.52 1538.54 31.385
6891.19 1343.88 1337.07 1549.78 1523.42 31.9599
6894 1350.59 1342.09 1510.96 1533.61 32.1294
6896.82 1331.8 1338.66 1540.1 1518.16 31.5464
6899.64 1333.6 1326.87 1503.43 1515.53 31.6678
6902.45 1315.22 1343.21 1503.06 1526.39 31.5856
6905.27 1380.8 1369.57 1572.69 1561.26 32.2858
6908.08 1412.68 1416.13 1608.04 1609.34 32.2099
6910.9 1454.92 1458.92 1647.29 1666.2 32.5659
6913.72 1509.16 1465.03 1743.27 1675.38 33.348
6916.53 1431 1467.56 1635.57 1675.88 31.3108
6919.35 1462.52 1433.64 1648.79 1610.6 31.0296
6922.16 1407.4 1455.89 1547.43 1634.02 29.9224
6924.98 1497.74 1438.08 1705.84 1617.55 32.536
6927.79 1409.11 1448.79 1599.37 1625.94 32.2889
6930.6 1439.52 1417.33 1572.62 1593.14 33.4912
6933.42 1403.34 1417.54 1607.43 1574.07 32.5213
6936.23 1409.76 1408.62 1542.17 1588.43 32.2577
6939.05 1412.74 1417.43 1615.68 1579.32 31.8642
6941.86 1429.77 1432.79 1580.09 1613.13 31.4519
6944.67 1455.85 1415.78 1643.62 1598.04 30.61
6947.49 1361.72 1378.26 1570.41 1575.64 28.5319
6950.3 1317.22 1371.12 1512.89 1560.82 28.7014
6953.11 1434.42 1389.92 1599.16 1569.93 32.0313
6955.93 1418.11 1424.38 1597.74 1609.65 33.042
6958.74 1420.62 1428.67 1632.03 1622.16 33.7665
6961.55 1447.3 1435.37 1636.7 1632.79 34.2198
6964.37 1438.2 1425.81 1629.64 1630.66 33.6905
6967.18 1391.93 1412.29 1625.66 1613.33 32.1912
6969.99 1406.75 1416.05 1584.7 1615.68 32.0223
6972.8 1449.49 1430.41 1636.68 1629.74 32.1032
6975.61 1435.01 1454.39 1667.84 1658.65 31.0198
6978.42 1478.68 1445.73 1671.43 1649.4 32.2163
6981.24 1423.49 1434.91 1608.92 1639.29 32.4791
6984.05 1402.56 1420.29 1637.53 1625.87 33.083
6986.86 1434.81 1408.94 1631.17 1618.26 34.3492
6989.67 1389.45 1433.32 1586.1 1625.47 34.0981
6992.48 1475.7 1431.62 1659.15 1617.63 35.862
6995.29 1429.71 1436.38 1607.66 1623.21 34.8786
6998.1 1403.73 1431.47 1602.82 1618.66 33.7703
7000.91 1460.97 1401.99 1645.5 1599.52 34.656
7003.72 1341.27 1386.27 1550.25 1579.46 32.1648
7006.53 1356.58 1381.96 1542.62 1558.23 32.0191
7009.34 1448.02 1400.21 1581.81 1580.89 33.6336
7012.15 1396.03 1445.01 1618.25 1623.5 32.8234
7014.96 1490.98 1423.19 1670.44 1625.64 35.6162
7017.77 1382.56 1438.82 1588.22 1632.35 34.082
7020.58 1442.91 1412.83 1638.38 1612.57 35.419
7023.39 1413.01 1409.91 1611.12 1598.05 35.0436
7026.2 1373.79 1404.66 1544.65 1589.78 34.7391
7029 1427.18 1378.83 1613.56 1546.83 35.4283
7031.81 1335.5 1379.08 1482.27 1549.96 34.002
7034.62 1374.55 1378.95 1554.05 1555.51 34.2703
7037.43 1426.8 1377.93 1630.22 1568.78 34.8525
7040.24 1332.44 1397.8 1522.08 1570.47 32.8213
7043.04 1434.15 1396.98 1559.11 1557.48 34.0525
7045.85 1424.35 1394.75 1591.24 1551.76 33.6129
7048.66 1325.74 1387.23 1504.94 1554.79 31.9705
7051.47 1411.6 1376.98 1568.18 1538.68 34.014
7054.27 1393.58 1378.93 1542.92 1552.29 34.0941
7057.08 1331.61 1369.44 1545.77 1555.7 33.1785
7059.89 1383.12 1343.96 1578.42 1543.66 34.313
7062.69 1317.15 1378.08 1506.8 1582.86 32.9867
7065.5 1433.96 1363.93 1663.35 1575.84 35.1252
7068.31 1340.69 1384.55 1557.36 1600.04 33.4426
7071.11 1378.98 1345.15 1579.41 1552.58 34.0586
7073.92 1315.77 1365.67 1520.97 1569.62 33.0657
7076.72 1402.26 1374.83 1608.48 1601.57 34.3132
7079.53 1406.46 1409.18 1675.25 1619.59 34.1399
7082.33 1418.8 1400.88 1575.03 1612.74 34.3934
7085.14 1377.37 1383.69 1587.95 1572.2 33.6464
7087.94 1354.9 1362.84 1553.62 1572.44 33.2702
7090.75 1356.23 1355.02 1575.74 1559.68 33.5914
7093.55 1353.92 1354.27 1549.69 1561.62 33.7967
7096.36 1352.65 1360.31 1559.43 1539.69 34.1695
7099.16 1374.36 1347.29 1509.94 1520.9 34.9283
7101.97 1314.86 1334.27 1493.33 1497.77 33.5247
7104.77 1313.58 1321.04 1490.05 1513.94 33.618
7107.57 1334.69 1347.49 1558.45 1549.97 33.5069
7110.38 1394.21 1324.01 1601.42 1521 34.7521
7113.18 1243.14 1325.95 1403.15 1507.78 32.0808
7115.98 1340.5 1306.36 1518.77 1482.01 34.3679
7118.79 1335.42 1347.31 1524.11 1532.77 34.123
7121.59 1366.02 1349.04 1555.43 1528.37 34.6501
7124.39 1345.68 1356.33 1505.57 1528.31 34.1512
7127.19 1357.29 1312.65 1523.94 1489.25 33.9768
7130 1234.96 1325.21 1438.23 1507.02 31.8518
7132.8 1383.39 1320.92 1558.9 1508.35 34.6381
7135.6 1344.42 1370.9 1527.91 1542.01 33.7832
7138.4 1384.9 1375.77 1539.22 1544.76 34.5327
7141.2 1397.99 1382.73 1567.16 1540.19 34.3478
7144 1365.29 1345.7 1514.21 1508.74 33.9869
7146.81 1273.82 1311.99 1444.85 1461.32 32.3455
7149.61 1296.86 1317.53 1424.9 1460.15 33.336
7152.41 1381.91 1364.08 1510.71 1531.07 34.7619
7155.21 1413.48 1353.75 1657.6 1556.5 35.2236
7158.01 1265.86 1360.4 1501.18 1566.99 32.5368
7160.81 1401.85 1315.01 1542.19 1493.77 35.1421
7163.61 1277.31 1308.12 1437.94 1452.42 33.0166
7166.41 1245.2 1237.83 1377.13 1384.47 32.8343
7169.21 1190.97 1214.12 1338.33 1363.75 31.7413
7172.01 1206.2 1181.91 1375.8 1315 32.1779
7174.81 1148.57 1176.58 1230.87 1300.25 31.1943
7177.61 1174.97 1152.55 1294.1 1271.59 31.8709
7180.41 1134.11 1157.23 1289.81 1297.54 31.1474
7183.2 1162.61 1137.89 1308.71 1260.5 32.0578
7186 1116.94 1138.63 1182.96 1258.61 31.2186
7188.8 1136.33 1112.06 1284.14 1221.5 31.4609
7191.6 1082.93 1111.93 1197.39 1228.04 31.2101
7194.4 1116.53 1107.47 1202.58 1211.33 31.5611
7197.2 1122.95 1115.07 1234.03 1224.68 31.3547
7199.99 1105.72 1168.78 1237.44 1294 31.5739
7202.79 1277.68 1181.67 1410.54 1315.64 34.0119
7205.59 1161.61 1189.79 1298.95 1323.37 31.9729
7208.39 1130.08 1194.27 1260.63 1341.83 31.5707
7211.18 1291.13 1214.07 1465.91 1368.28 34.1416
7213.98 1221.01 1260.87 1378.29 1420.73 32.7969
7216.78 1270.47 1254.18 1418 1398.45 33.4961
7219.57 1271.06 1248.24 1399.06 1366.73 33.3184
7222.37 1203.2 1219.01 1283.14 1348.88 32.0977
7225.17 1182.78 1182.32 1364.45 1315.65 31.3397
7227.96 1160.98 1149.39 1299.35 1301.74 31.074
7230.76 1104.4 1157.22 1241.43 1273.15 27.6505
7233.55 1206.28 1187.67 1278.67 1282.25 25.9157
7236.35 1252.32 1179.18 1326.66 1258.04 23.5044
7239.14 1078.93 1139.86 1168.8 1224.42 18.832
7241.94 1088.34 1090.79 1177.8 1179.26 18.7227
7244.73 1105.09 1087.38 1191.18 1224.51 20.1036
7247.53 1068.7 1061.86 1304.55 1214.37 21.3233
7250.32 1011.78 1082.63 1147.39 1250.24 22.3869
7253.12 1167.4 1097.34 1298.8 1221.09 27.1582
7255.91 1112.84 1111.34 1217.08 1224.05 27.8239
7258.71 1053.76 1097.81 1156.26 1208.12 28.1029
7261.5 1126.82 1093.29 1251.02 1207.31 29.8023
7264.29 1099.3 1081.01 1214.66 1194.93 29.5673
7267.09 1016.92 1090.03 1119.1 1186.27 25.4027
7269.88 1153.86 1066.26 1225.05 1165.53 24.0467
7272.67 1027.98 1084.04 1152.42 1202.78 19.5576
7275.47 1070.27 1068.73 1230.86 1217.82 19.3953
7278.26 1107.94 1122.56 1270.17 1251.64 20.6658
7281.05 1189.48 1148.02 1253.88 1279.26 22.9381
7283.84 1146.64 1149.64 1313.73 1273.7 23.4333
7286.63 1112.82 1122.01 1253.49 1278.14 25.1519
7289.43 1106.58 1139.9 1267.21 1277.32 26.6637
7292.22 1200.31 1129.51 1311.27 1260.33 28.939
7295.01 1081.63 1153.91 1202.51 1257.22 26.8511
7297.8 1179.81 1124.48 1257.89 1211.4 28.0407
7300.59 1112.02 1126.77 1173.8 1217.23 26.4194
7303.38 1088.5 1085.26 1220 1183.07 26.1285
7306.17 1055.28 1099.84 1155.41 1196.35 25.7499
7308.96 1155.75 1112.98 1213.64 1177.94 25.0485
7311.76 1127.92 1124.38 1164.78 1194.35 22.6102
7314.55 1089.46 1134.17 1204.62 1219.1 21.1273
7317.34 1185.14 1148.26 1287.91 1276.26 23.9939
7320.13 1170.18 1193.15 1336.25 1330.5 25.4592
7322.92 1224.13 1183.07 1367.34 1339.67 26.7926
7325.7 1154.89 1178.41 1315.43 1307.09 25.6768
7328.49 1156.21 1159.79 1238.49 1294.07 25.8384
7331.28 1168.28 1207.79 1328.29 1309.47 26.1521
7334.07 1298.87 1186.97 1361.63 1285.91 26.0528
7336.86 1093.76 1204.1 1167.8 1284.27 20.7573
7339.65 1219.67 1149.78 1323.37 1255.95 21.9781
7342.44 1135.89 1169.79 1276.68 1318.17 21.8527
7345.23 1153.8 1158.52 1354.45 1321.1 25.1138
7348.01 1185.87 1174.49 1332.19 1315.82 27.8712
7350.8 1183.8 1163.66 1260.83 1258.9 28.3639
7353.59 1121.31 1176.86 1183.67 1245.92 26.4966
7356.38 1225.48 1188.06 1293.27 1254.22 27.4313
7359.16 1217.4 1191.95 1285.73 1246.02 27.2161
7361.95 1132.98 1168.81 1159.05 1238.03 24.5729
7364.74 1156.04 1170.98 1269.33 1218.74 23.4062
7367.52 1223.91 1213.96 1227.83 1270.07 23.9761
7370.31 1261.93 1222.74 1313.07 1291.14 25.4432
7373.1 1182.39 1179.91 1332.53 1290.19 26.4212
7375.88 1095.43 1163.48 1224.98 1286.43 27.0787
7378.67 1212.63 1152.39 1301.79 1263.36 31.1356
7381.46 1149.13 1165.4 1263.31 1268.15 30.4501
7384.24 1134.44 1163.54 1239.35 1246.79 29.58
7387.03 1207.04 1179.38 1237.71 1240.84 29.631
7389.81 1196.65 1177.42 1245.46 1234.98 28.4981
7392.6 1128.56 1171.45 1221.78 1227.03 26.2693
7395.38 1189.14 1164.16 1213.84 1231.86 26.2255
7398.17 1174.78 1158.54 1259.97 1222.63 25.1196
7400.95 1111.71 1170.93 1194.09 1266.16 23.9159
7403.73 1226.3 1202.36 1344.4 1280.36 27.5545
7406.52 1269.07 1223.8 1302.58 1306.47 30.3738
7409.3 1176.03 1206.43 1272.42 1263.63 30.0684
7412.09 1174.2 1167.28 1215.89 1224.92 31.224
7414.87 1151.62 1167.01 1186.46 1210.98 31.2437
7417.65 1175.22 1178.41 1230.61 1222.56 31.9491
7420.44 1208.39 1181.87 1250.61 1222.55 32.214
7423.22 1162 1187.57 1186.42 1225.8 30.441
7426 1192.31 1177.45 1240.37 1202.12 29.9564
7428.78 1178.03 1211.19 1179.58 1247.05 29.391
7431.57 1263.24 1208.56 1321.21 1240.93 30.2917
7434.35 1184.4 1205.95 1222.01 1258.11 27.8148
7437.13 1170.2 1204.49 1231.1 1249.01 27.5287
7439.91 1258.89 1211.03 1293.92 1258.06 30.064
7442.69 1204.01 1225.05 1249.15 1282.98 30.5725
7445.48 1212.26 1215.71 1305.88 1271.54 31.7483
7448.26 1230.85 1225.24 1259.59 1283.16 32.7952
7451.04 1232.6 1212.74 1283.99 1254.43 33.0665
7453.82 1174.77 1211.5 1219.71 1252.85 31.8984
7456.6 1227.12 1204.69 1254.84 1233.9 32.1063
7459.38 1212.19 1209.14 1227.15 1234.09 30.8687
7462.16 1188.11 1212.41 1220.28 1243.06 29.5307
7464.94 1236.94 1232.64 1281.73 1265.68 29.3649
7467.72 1272.88 1211.72 1295.01 1228.14 29.2453
7470.5 1125.35 1193.28 1107.68 1209.76 26.0442
7473.28 1181.6 1185.51 1226.58 1209.46 26.7501
7476.06 1249.57 1198.38 1294.13 1246.77 27.4235
7478.84 1163.97 1225.23 1219.59 1260.44 25.4722
7481.62 1262.15 1195.58 1267.61 1234.16 27.8546
7484.39 1160.61 1201.5 1215.27 1241.44 27.317
7487.17 1181.74 1199.43 1241.45 1254.82 29.0351
7489.95 1255.95 1196.85 1307.76 1235.72 31.5598
7492.73 1152.87 1176.38 1157.96 1221.06 29.8659
7495.51 1120.31 1125.62 1197.47 1173.68 29.8574
7498.28 1103.67 1124.19 1165.6 1197.48 30.2809
7501.06 1148.59 1144.9 1229.36 1203.52 31.2375
7503.84 1182.43 1157.55 1215.59 1214.12 32.3501
7506.62 1141.63 1179.32 1197.41 1231.97 31.3488
7509.39 1213.89 1167.1 1282.92 1221.27 32.6743
7512.17 1145.77 1191.79 1183.47 1230.8 31.0211
7514.95 1215.71 1191.38 1225.99 1205.14 30.3671
7517.72 1212.66 1214.47 1205.96 1218.61 27.246
7520.5 1215.06 1199.44 1223.88 1198.58 24.9561
7523.27 1170.6 1150.51 1165.91 1187.52 23.3953
7526.05 1065.87 1164.94 1172.77 1218.09 22.3992
7528.83 1258.35 1150.89 1315.59 1233.48 27.347
7531.6 1128.45 1191.81 1212.09 1247.13 26.8947
7534.38 1188.62 1130.82 1213.71 1170.08 29.7998
7537.15 1075.4 1126.47 1084.44 1156.22 28.5314
7539.93 1115.4 1113.99 1170.5 1135.74 29.8919
7542.7 1151.18 1122.35 1152.27 1161.09 30.9913
7545.47 1100.46 1127.02 1160.5 1153.62 30.3564
7548.25 1129.43 1118.98 1148.08 1146.52 30.6248
7551.02 1127.06 1120.72 1130.99 1129.13 30.1012
7553.8 1105.67 1121 1108.33 1123.28 28.9184
7556.57 1130.28 1120.58 1130.53 1123.97 29.2162
7559.34 1125.79 1149.57 1133.05 1171.93 29.6236
7562.12 1192.63 1148.1 1252.21 1183.9 30.6265
7564.89 1125.88 1169.65 1166.43 1205.44 27.5438
7567.66 1190.43 1157.72 1197.69 1165.33 26.7639
7570.43 1156.86 1165.51 1131.88 1151.62 25.5847
7573.21 1149.24 1145.04 1125.3 1148.15 26.2322
7575.98 1129.01 1123.15 1187.28 1135.92 27.9251
7578.75 1091.2 1116.6 1095.18 1156.62 28.0935
7581.52 1129.59 1109.61 1187.4 1134.29 28.7862
7584.29 1108.05 1102.58 1120.29 1137.84 28.5713
7587.07 1070.11 1039.31 1105.85 1079.77 28.2296
7589.84 939.779 932.229 1013.19 976.858 26.7989
7592.61 786.801 753.174 811.537 782.716 23.7288
7595.38 532.943 601.826 523.422 591.939 17.8182
7598.15 485.735 455.34 440.856 427.402 17.3965
7600.92 347.341 377.686 317.926 349.116 14.6366
7603.69 299.981 338.751 288.566 316.895 14.8239
7606.46 368.931 362.048 344.192 342.095 17.5105
7609.23 417.233 445.714 393.526 424.202 18.6142
7612 550.977 565.922 534.888 560.754 20.4636
7614.77 729.556 669.696 753.848 669.688 23.3959
7617.54 728.557 718.14 720.329 729.164 22.6087
7620.31 696.309 707.944 713.314 709.888 21.7734
7623.08 698.967 662.914 696.02 668.194 21.8084
7625.84 593.466 641.197 595.249 622.673 19.2167
7628.61 631.157 617.942 576.749 597.209 20.6546
7631.38 629.203 625.642 619.63 595.85 21.5113
7634.15 616.564 638.438 591.17 622.23 22.5286
7636.92 669.547 673.737 655.888 660.74 23.9545
7639.68 735.101 693.824 735.16 694.957 25.6832
7642.45 676.826 716.478 693.823 727.18 24.3629
7645.22 737.507 729.2 752.557 728.127 25.4185
7647.99 773.267 774.173 738.002 768.678 25.2494
7650.75 811.745 815.932 815.475 813.968 25.5998
7653.52 862.784 860.521 888.427 867.957 26.0558
7656.28 907.033 905.978 899.969 909.049 26.1569
7659.05 948.116 940.546 938.752 934.027 26.2854
7661.82 966.489 955.974 963.361 937.951 26.7663
7664.58 953.317 967.616 911.739 952.752 26.906
7667.35 983.043 989.016 983.155 975.155 28.4207
7670.11 1030.69 1007.6 1030.57 994.41 30.2691
7672.88 1009.06 1025.15 969.505 1004.64 29.9633
7675.64 1035.7 1016.53 1013.84 978.738 30.4746
7678.41 1004.83 1027.92 952.867 991.179 29.715
7681.17 1043.22 1007.71 1006.83 985.876 30.2179
7683.94 975.085 1010.79 997.931 996.411 28.6457
7686.7 1014.06 1028.5 984.473 1013.2 28.5995
7689.47 1096.36 1043.72 1057.2 1005.68 30.139
7692.23 1020.75 1030.24 975.358 1001.16 28.5732
7694.99 973.62 1017.08 970.927 988.89 27.3876
7697.76 1056.86 1013.8 1020.38 996.813 28.6266
7700.52 1010.93 998.636 999.128 979.948 28.3045
7703.28 928.123 997.005 920.33 977.057 25.6356
7706.04 1051.97 1036.12 1011.71 986.092 24.4619
7708.81 1128.28 1068.9 1026.23 989.049 21.9752
7711.57 1026.47 1077.09 929.201 980.103 17.6513
7714.33 1076.53 1025.87 984.875 954.735 17.8977
7717.09 974.605 992.845 950.13 967.012 16.9842
7719.85 927.402 941.291 966.03 965.471 18.1321
7722.62 921.864 943.246 980.255 963.049 20.1226
7725.38 980.471 973.034 942.863 972.715 23.1274
7728.14 1016.77 992.315 995.027 964.894 25.7314
7730.9 979.706 997.821 956.792 979.496 26.3453
7733.66 996.989 1001.33 986.67 972.69 27.2872
7736.42 1027.29 1009.47 974.609 971.46 28.339
7739.18 1004.14 984.662 953.102 965.652 27.9965
7741.94 922.553 991.867 969.245 949.947 24.4229
7744.7 1048.91 983.08 927.494 929.603 22.116
7747.46 977.781 1015.66 892.071 914.931 18.3865
7750.22 1020.28 987.392 925.228 947.882 18.5052
7752.98 964.111 994.601 1026.35 972.223 18.298
7755.74 999.41 982.399 965.092 1001.52 20.4858
7758.5 983.675 970.708 1013.13 984.717 21.439
7761.25 929.037 955.493 975.927 991.732 22.2207
7764.01 953.765 963.068 986.136 982.637 24.6889
7766.77 1006.4 1002.25 985.849 994.341 26.6707
7769.53 1046.59 1002.24 1011.04 978.209 27.6566
7772.29 953.718 984.842 937.738 944.183 25.1728
7775.04 954.213 929.175 883.772 880.178 24.0807
7777.8 879.594 906.823 819.025 860.592 22.4351
7780.56 886.662 890.088 878.979 864.655 22.6524
7783.31 904.007 903.291 895.962 893.041 24.0678
7786.07 919.204 951.796 904.183 901.484 23.3934
7788.83 1032.18 977.747 904.306 888.265 22.4208
7791.58 981.861 1006.79 856.307 911.765 20.0995
7794.34 1006.32 973.604 974.681 910.903 20.4298
7797.1 932.63 948.567 901.72 927.165 20.9968
7799.85 906.749 951.049 905.093 921.269 22.8531
7802.61 1013.77 921.171 956.993 890.231 25.1165
7805.36 842.996 941.014 808.608 889.084 21.4379
7808.12 966.277 910.939 901.65 885.976 23.5444
7810.87 923.543 891.606 947.669 891.787 23.3579
7813.63 784.998 855.698 826.043 857.277 19.4555
7816.38 858.554 881.811 798.119 836.608 18.2437
7819.13 1001.88 950.525 885.663 853.167 19.4546
7821.89 991.14 968.266 875.72 895.237 19.3167
7824.64 911.778 930.254 924.329 878.611 19.8095
7827.4 887.843 912.03 835.784 884.534 22.4926
7830.15 936.468 914.385 893.489 878.295 25.6439
7832.9 918.843 905.219 905.612 880.599 26.4104
7835.65 860.345 899.227 842.696 885.871 23.443
7838.41 918.493 901.844 909.305 886.926 23.5619
7841.16 926.694 927.274 908.778 912.609 22.9945
7843.91 936.636 946.844 919.743 915.442 22.9064
7846.66 977.202 960.477 917.806 907.86 21.0299
7849.42 967.594 968.214 886.031 891.817 18.37
7852.17 959.847 909.864 871.613 842.415 16.9044
7854.92 802.151 849.446 769.601 802.987 14.2479
7857.67 786.341 820.022 767.748 781.842 15.1105
7860.42 871.574 841.053 808.176 810.344 17.8597
7863.17 865.245 872.696 855.109 823.696 18.6751
7865.92 881.269 883.883 807.803 814.487 18.93
7868.67 905.135 888.198 780.55 803.974 19.3462
7871.42 878.191 916.425 823.569 836.879 19.2013
7874.17 965.948 896.619 906.519 853.523 21.5529
7876.92 845.717 888.671 830.481 866.366 19.415
7879.67 854.347 860.703 862.099 856.151 19.8323
7882.42 882.046 849.624 875.873 825.06 20.4722
7885.17 812.479 885.031 737.209 839.02 18.6047
7887.92 960.568 872.921 903.978 790.238 21.1436
7890.67 845.715 872.586 729.528 824.377 19.5851
7893.42 811.474 813.481 839.625 788.642 20.6734
7896.16 783.253 810.298 796.772 825.009 21.9933
7898.91 836.166 829.894 838.629 823.447 25.1432
7901.66 870.263 833.9 834.941 812.374 26.3781
7904.41 795.27 814.724 763.552 771.434 23.4657
7907.15 778.638 834.806 715.809 776.171 18.0974
7909.9 930.511 827.022 849.152 764.811 17.4692
7912.65 771.918 868.745 729.471 795.599 13.5377
7915.39 903.806 858.751 808.174 813.737 15.3397
7918.14 900.528 879.684 903.566 829.224 16.5532
7920.89 834.719 888.025 775.933 873.25 16.8507
7923.63 928.828 889.382 940.25 854.975 20.4342
7926.38 904.599 895.312 848.743 857.177 21.0559
7929.12 852.51 876.154 782.537 831.9 20.2645
7931.87 871.353 883.829 864.42 836.331 21.2299
7934.62 927.625 882.472 862.035 843.392 23.9066
7937.36 848.437 880.708 803.721 823.122 24.2541
7940.1 866.061 852.679 803.609 786.452 25.7766
7942.85 843.541 877.834 752.026 789.281 24.084
7945.59 923.902 873.513 812.208 775.484 24.1545
7948.34 853.096 836.884 762.22 768.969 22.3517
7951.08 733.653 804.4 732.48 754.516 20.2885
7953.83 826.449 792.484 768.847 767.887 24.0009
7956.57 817.35 833.147 802.334 788.714 22.8047
7959.31 855.643 844.306 794.962 782.408 20.0139
7962.05 859.926 835.997 749.926 768.816 17.9368
7964.8 792.423 798.492 761.56 734.209 15.7082
7967.54 743.126 793.551 691.14 748.32 16.2614
7970.28 845.104 781.772 792.26 738.439 20.6161
7973.02 757.086 805.75 731.917 752.745 19.401
7975.77 815.06 807.392 734.059 754.418 20.2561
7978.51 850.028 839.524 797.279 777.563 20.2965
7981.25 853.483 801.763 801.351 769.61 21.1434
7983.99 701.778 786.282 710.2 767.003 19.0856
7986.73 803.583 800.937 789.459 742.535 19.4332
7989.47 897.451 870.844 727.945 734.574 18.5901
7992.21 911.497 858.231 686.319 713.684 17.4584
7994.95 765.746 818.976 726.789 714.894 15.4523
7997.69 779.683 787.01 731.574 734.958 18.2507
8000.43 815.6 798.747 746.511 734.548 22.1389
8003.17 800.957 802.104 725.558 736.447 24.4184
8005.91 789.757 792.767 737.272 728.812 25.0939
8008.65 787.586 792.134 723.605 745.811 23.1372
8011.39 799.059 785.874 776.558 746.492 21.9523
8014.13 770.977 747.075 739.314 733.445 20.4314
8016.87 671.19 729.174 684.464 721.519 18.4729
8019.61 745.355 702.522 740.78 691.41 18.5653
8022.34 691.02 770.313 648.985 718.408 15.6407
8025.08 874.563 789.545 765.457 702.351 18.3778
8027.82 803.052 823.663 692.611 751.34 17.7404
8030.56 793.373 759.829 795.951 715.152 19.7094
8033.29 683.062 743.274 656.894 717.869 20.0903
8036.03 753.388 738.949 700.762 686.605 24.0243
8038.77 780.396 771.432 702.157 714.064 26.1059
8041.51 780.513 768.803 739.274 715.666 26.1912
8044.24 745.501 754.492 705.565 715.399 24.6288
8046.98 737.461 746.876 701.359 692.649 22.752
8049.71 757.665 778.24 671.023 711.908 22.1376
8052.45 839.595 789.384 763.341 724.182 23.7207
8055.18 770.891 789.597 738.182 725.886 21.9432
8057.92 758.305 741.523 676.134 672.774 20.2709
8060.65 695.374 743.968 604.005 659.494 18.3536
8063.39 778.226 728.36 698.343 679.87 20.2156
8066.12 711.479 753.688 737.263 728.556 20.51
8068.86 771.36 756.552 750.062 741.613 23.8508
8071.59 786.818 773.694 737.515 734.046 25.3131
8074.33 762.904 780.575 714.561 707.995 25.7083
8077.06 792.003 763.491 671.91 694.687 26.2187
8079.79 735.565 771.323 697.591 712.301 24.6316
8082.53 786.4 753.212 767.402 742.87 26.1092
8085.26 737.671 768.205 763.616 755.172 24.7187
8087.99 780.544 784.197 734.498 757.98 25.7623
8090.73 834.376 798.791 775.825 741.437 26.0133
8093.46 781.453 801.776 713.988 732.731 24.3701
8096.19 789.5 767.904 708.38 704.474 24.2603
8098.92 732.76 728.345 691.053 689.631 22.2131
8101.65 662.775 717.581 669.458 682.816 20.2434
8104.38 757.209 731.607 687.935 679.011 22.9223
8107.12 774.839 744.083 679.639 675.541 24.5492
8109.85 700.202 752.359 659.049 675.703 23.917
8112.58 782.036 737.19 688.42 665.835 26.7111
8115.31 729.333 779.513 650.036 689.96 25.5753
8118.04 827.17 760.01 731.426 673.603 27.8769
8120.77 723.526 762.338 639.349 670.996 25.8818
8123.5 736.319 736.659 642.213 647.231 26.0935
8126.23 750.131 727.762 660.13 647.196 26.1619
8128.96 696.836 734.463 639.244 657.366 24.8918
8131.69 756.421 714.371 672.724 645.758 26.4043
8134.42 689.856 724.75 625.305 643.097 24.081
8137.14 727.972 686.007 631.262 616.262 24.7359
8139.87 640.192 683.461 592.218 612.949 22.2034
8142.6 682.22 659.214 615.367 596.771 23.6117
8145.33 655.229 681.301 582.729 614.486 22.7346
8148.06 706.453 676.461 645.362 617.336 24.198
8150.78 667.7 672.174 623.916 619.662 23.9548
8153.51 642.367 654.503 589.708 592.708 23.9549
8156.24 653.441 666.047 564.5 582.643 24.4411
8158.97 702.334 664.447 593.72 585.099 26.0802
8161.69 637.566 663.695 597.076 584.975 24.652
8164.42 651.185 654.289 564.129 582.551 24.9112
8167.15 674.117 664.462 586.449 570.517 25.1874
8169.87 668.083 669.324 560.973 578.184 25.0826
8172.6 665.771 651.161 587.129 574.228 25.1924
8175.32 619.63 644.149 574.582 592.131 23.9045
8178.05 647.046 658.295 614.681 605.262 24.0365
8180.77 708.209 666.137 626.522 606.797 26.0559
8183.5 643.157 660.024 579.188 583.596 23.8453
8186.22 628.707 636.034 545.078 560.032 23.3398
8188.95 636.238 645.658 555.829 569.981 23.2389
8191.67 672.029 655.915 609.035 580.91 24.3321
8194.4 659.48 658.808 577.867 587.65 23.5691
8197.12 644.915 654.285 576.047 590.347 23.4057
8199.84 658.46 671.567 617.126 607.945 24.1419
8202.57 711.327 686.28 630.663 608.716 25.6259
8205.29 689.052 689.336 578.359 593.606 25.1682
8208.01 667.628 682.718 571.798 587.687 24.5266
8210.73 691.475 672.109 612.905 583.681 25.1401
8213.46 657.224 682.619 566.339 597.113 24.384
8216.18 699.158 664.875 612.096 574.784 25.8507
8218.9 638.244 652.043 545.916 554.678 24.2657
8221.62 618.727 615.524 506.022 525.556 24.071
8224.34 589.601 566.509 524.731 483.03 23.3228
8227.06 491.199 556.874 418.336 480.385 21.0608
8229.79 589.821 579.852 498.087 491.806 23.8255
8232.51 658.537 640.025 558.995 539.615 25.4731
8235.23 671.718 678.212 561.762 564.326 25.275
8237.95 704.381 739.669 572.221 586.653 25.7756
8240.67 842.909 771.065 625.976 607.603 28.7467
8243.39 765.903 767.224 624.613 624.186 26.8155
8246.11 692.859 717.196 621.969 621.34 24.8389
8248.83 692.824 681.311 617.439 609.17 24.697
8251.54 658.248 656.455 588.101 584.809 24.0392
8254.26 618.294 650.511 548.887 572.685 23.2401
8256.98 674.99 653.823 581.066 567.868 25.0818
8259.7 668.186 685.038 573.65 578.507 25.0679
8262.42 711.939 677.69 580.806 577.382 26.0269
8265.14 652.945 678.933 577.691 584.508 24.6328
8267.85 671.916 676.076 595.028 599.972 24.9759
8270.57 703.366 683.846 627.199 603.24 25.2592
8273.29 676.255 694.091 587.493 604.968 22.3398
8276.01 702.652 683.499 600.211 574.767 19.4863
8278.72 671.59 652.108 536.596 530.73 16.3633
8281.44 582.082 645.535 455.381 513.573 13.1371
8284.16 682.932 635.85 548.741 507.787 14.09
8286.87 642.536 647.546 519.24 557.68 13.3496
8289.59 617.17 629.41 605.059 581.334 13.197
8292.3 628.525 619.766 619.703 584.393 13.6524
8295.02 613.605 644.483 528.418 590.017 12.9008
8297.73 691.32 695.512 621.929 599.66 13.9606
8300.45 781.611 700.597 648.633 621.24 16.2256
8303.16 628.859 700.487 593.159 635.796 15.2213
8305.88 690.99 674.586 665.596 615.146 18.4942
8308.59 703.91 704.8 586.685 620.687 19.636
8311.31 719.499 697.154 609.782 595.713 20.4696
8314.02 668.052 690.71 590.672 577.129 20.3424
8316.73 684.579 675.223 530.933 566.358 22.4718
8319.45 673.038 675.151 577.47 569.835 23.3936
8322.16 667.836 679.771 601.103 590.222 24.2257
8324.87 698.44 682.168 592.092 599.22 25.6457
8327.58 680.228 688.735 604.464 593.293 25.2778
8330.3 687.537 664.415 583.323 570.448 25.5609
8333.01 625.48 637.882 523.559 550.699 23.6648
8335.72 600.627 608.192 545.217 538.524 21.35
8338.43 598.468 604.654 546.798 504.648 15.8929
8341.14 614.868 585.202 421.931 484.968 11.7114
8343.85 542.271 648.175 486.174 516.193 8.98868
8346.56 787.386 626.078 640.474 578.429 12.2842
8349.28 548.576 678.531 608.637 641.578 9.54138
8351.99 699.631 620.951 675.623 573.1 13.6695
8354.7 614.646 652.159 435.038 589.202 13.6264
8357.41 642.198 622.052 656.943 544.992 16.333
8360.12 609.311 638.476 542.995 577.728 17.2247
8362.82 663.918 671.384 533.245 550.857 19.1812
8365.53 740.924 706.223 576.332 586.428 21.3835
8368.24 713.827 712.821 649.709 611.605 21.4912
8370.95 683.711 703.774 608.773 627.461 22.5489
8373.66 713.784 687.083 623.9 605.247 24.4983
8376.37 663.754 710.392 583.068 601.301 21.5597
8379.08 753.637 709.53 596.935 565.509 20.9574
8381.78 711.2 737.025 516.523 546.467 18.4801
8384.49 746.239 713.337 525.943 529.84 19.1898
8387.2 682.574 700.68 547.054 551.799 19.4619
8389.91 673.228 681.735 582.399 580.475 21.2538
8392.61 689.403 719.022 611.971 604.142 20.6386
8395.32 794.436 745.927 618.055 597.141 17.7463
8398.03 753.94 749.305 561.398 561.703 14.46
8400.73 699.537 722.115 505.657 555.661 12.7876
8403.44 712.867 676.61 599.929 555.09 14.472
8406.14 617.426 665.126 559.684 576.522 15.8952
8408.85 665.086 670.036 569.952 560.548 19.722
8411.55 727.597 687.615 552.009 551.662 20.1455
8414.26 670.162 686.602 533.025 531.593 17.1668
8416.96 662.046 648.841 509.745 530.56 16.3068
8419.67 614.316 658.145 548.911 552.444 16.7052
8422.37 698.074 644.165 598.677 546.686 20.0593
8425.08 620.105 690.8 492.47 546.598 15.3298
8427.78 754.219 675.812 548.648 512.36 14.5179
8430.48 653.11 728.684 495.962 530.052 11.4167
8433.19 778.723 684.089 545.545 517.27 13.6953
8435.89 620.433 682.775 510.302 544.45 13.4432
8438.59 649.167 648.823 577.503 542.112 17.9151
8441.29 676.867 650.433 538.531 555.414 22.2886
8444 625.264 650.937 550.207 556.189 22.8297
8446.7 650.681 641.22 579.83 550.255 21.88
8449.4 647.716 650.015 520.727 554.297 18.276
8452.1 651.648 645.595 562.333 550.998 16.9232
8454.8 637.419 648.616 569.935 586.988 16.2324
8457.5 656.781 638.395 628.695 576.984 18.2982
8460.2 620.984 669.514 532.321 543.081 16.2687
8462.91 730.778 672.451 468.227 488.251 15.8993
8465.61 665.59 681.315 464.204 469.953 13.0381
8468.31 647.577 669.128 477.428 490.441 12.7569
8471.01 694.217 663.317 529.69 524.109 16.1259
8473.7 648.157 658.816 565.209 543.1 18.4427
8476.4 634.073 660.954 534.401 569.303 20.9453
8479.1 700.633 665.736 608.298 554.413 24.8145
8481.8 662.502 660.559 520.539 546.566 24.7802
8484.5 618.542 650.676 510.861 530.059 23.7028
8487.2 670.983 656.397 558.778 549.245 24.0354
8489.9 679.665 671.32 578.096 547.624 21.4868
8492.59 663.312 670.638 505.998 534.007 19.2841
8495.29 668.938 647.312 517.928 502.435 18.6878
8497.99 609.687 653.465 483.38 521.936 17.6927
8500.69 681.771 675.949 564.499 525.771 18.0909
8503.38 736.389 688.678 529.434 532.958 17.7591
8506.08 647.874 690.812 504.94 523.861 15.1182
8508.78 688.173 659.194 537.21 495.741 16.8291
8511.47 641.534 668.669 445.072 501.604 18.5242
8514.17 676.299 664.009 522.53 523.839 22.5955
8516.86 674.193 652.232 603.916 546.526 24.2897
8519.56 606.203 646.437 513.132 554.626 23.047
8522.25 658.915 650.32 546.829 536.177 24.5601
8524.95 685.841 652.526 548.569 540.484 25.2374
8527.64 612.821 655.863 526.054 536.867 24.0527
8530.34 668.928 663.854 535.978 544.562 25.3912
8533.03 709.814 698.455 571.655 562.641 26.0576
8535.73 716.623 703.401 580.291 567.422 24.1378
8538.42 683.766 687.862 550.319 550.399 22.4694
8541.11 663.197 670.995 520.586 532.083 21.4154
8543.81 666.023 676.525 525.344 540.716 20.802
8546.5 700.355 685.93 576.216 550.816 20.5045
8549.19 691.413 702.874 550.888 566.402 19.5965
8551.89 716.855 670.462 572.101 548.906 20.1957
8554.58 603.119 666.042 523.727 536.173 19.0221
8557.27 678.153 653.858 512.689 520.75 23.2955
8559.96 680.302 682.755 525.832 531.371 24.6787
8562.65 689.811 676.742 555.592 531.292 25.5501
8565.34 660.112 668.02 512.453 529.097 24.934
8568.03 654.138 679.112 519.247 537.001 25.1454
8570.73 723.085 687.805 579.304 540.621 26.3914
8573.42 686.192 701.343 523.313 540.99 25.185
8576.11 694.752 679.392 520.353 519.15 25.3149
8578.8 657.231 664.68 513.785 516.774 24.635
8581.49 642.058 653.1 516.184 524.253 24.2791
8584.17 660.011 666.527 542.789 528.427 23.9287
8586.86 697.511 697.075 526.309 549.886 24.3251
8589.55 733.704 710.984 580.56 561.086 24.7422
8592.24 701.737 710.678 576.389 571.259 23.2023
8594.93 696.594 686.674 556.828 548.103 22.8867
8597.62 661.692 692.503 511.09 536.228 21.5723
8600.31 719.224 696.259 540.765 531.473 23.2105
8602.99 707.862 694.144 542.564 532.575 23.9588
8605.68 655.345 658.168 514.397 513.688 23.7666
8608.37 611.298 645.078 484.102 509.58 22.7343
8611.06 668.59 659.984 530.239 507.704 23.6392
8613.74 700.063 697.272 508.771 524.344 23.3457
8616.43 723.163 714.903 534.023 544.264 22.7986
8619.11 721.482 696.969 589.998 535.68 21.5762
8621.8 646.263 690.082 483.019 537.234 18.3764
8624.49 702.502 667.335 538.686 506.302 18.6816
8627.17 653.24 656.196 497.201 507.986 16.914
8629.86 612.847 638.847 488.071 492.751 15.631
8632.54 650.452 635.621 492.981 495.523 16.4688
8635.23 643.565 688.08 505.517 534.776 16.4363
8637.91 770.222 705.378 605.829 560.926 19.7969
8640.6 702.347 702.241 571.432 569.607 19.6056
8643.28 634.152 660.107 531.559 539.02 19.0259
8645.96 643.823 633.19 514.071 503.313 19.6873
8648.65 621.595 674.097 464.309 526.894 18.4056
8651.33 756.872 681.896 602.304 526.948 20.3582
8654.01 667.219 702.329 514.23 558.257 17.3313
8656.69 682.897 693.339 558.237 533.642 17.1363
8659.38 729.9 688.588 528.458 546.391 18.0955
8662.06 652.969 675.324 552.479 528.831 16.4248
8664.74 643.102 638.243 505.557 521.603 16.4692
8667.42 618.657 622.127 506.775 489.533 16.4155
8670.1 604.623 606.042 456.267 485.297 16.5633
8672.79 594.844 580.56 492.848 459.019 16.694
8675.47 542.214 585.54 427.943 472.093 16.0819
8678.15 619.561 575.404 495.487 446.653 18.5576
8680.83 564.436 584.185 416.531 458.621 17.9541
8683.51 568.559 573.743 463.844 449.47 18.393
8686.19 588.234 614.972 468.036 477.801 19.622
8688.87 688.124 662.085 501.524 510.753 22.8649
8691.55 709.898 686.585 562.699 533.171 23.8576
8694.23 661.731 674.717 535.29 531.991 22.9334
8696.9 652.522 669.271 497.983 515.76 22.8876
8699.58 693.559 703.377 514.006 534.68 23.6788
8702.26 764.049 713.442 592.05 537.11 25.3412
8704.94 682.718 715.668 505.274 540.894 23.2806
8707.62 700.238 702.079 525.357 515.604 24.0486
8710.29 723.279 688.317 516.181 510.353 24.7579
8712.97 641.433 681.824 489.522 506.746 23.177
8715.65 680.76 656.579 514.536 495.516 24.6335
8718.33 647.544 692.607 482.492 522.607 23.976
8721 749.516 687.821 570.792 514.57 26.6566
8723.68 666.402 710.49 490.425 527.073 24.6689
8726.35 715.552 702.462 520.002 522.187 25.6157
8729.03 725.431 696.131 556.135 512.379 26.1075
8731.71 647.41 680.871 461.001 503.645 24.1089
8734.38 669.773 672.546 493.8 488.364 24.9904
8737.06 700.456 670.671 510.29 497.794 25.571
8739.73 641.785 669.638 489.291 492.573 23.7197
8742.41 666.674 689.488 478.139 510.257 24.4447
8745.08 760.003 709.203 563.341 523.357 26.5505
8747.75 700.931 713.419 528.592 540.005 24.9077
8750.43 679.321 685.76 528.083 521.715 24.4815
8753.1 677.027 679.143 508.47 527.894 24.0424
8755.77 681.079 707.523 547.13 569.975 21.2876
8758.45 764.461 730.532 654.325 573.356 18.0705
8761.12 746.054 758.228 518.614 607.901 14.6043
8763.79 764.168 774.958 650.763 609.45 13.0208
8766.46 814.652 785.346 658.973 650.634 12.6997
8769.14 777.219 762.64 642.167 614.458 12.2137
8771.81 696.048 735.674 542.235 624.075 11.5655
8774.48 733.754 671.924 687.821 579.946 12.843
8777.15 585.97 661.63 509.783 546.867 10.184
8779.82 665.167 649.98 442.997 482.02 11.2446
8782.49 698.803 647.303 493.282 504.487 12.3523
8785.16 577.94 631.846 577.181 546.53 12.1442
8787.83 618.796 620.557 569.126 541.981 15.6384
8790.5 664.936 646.446 479.635 508.842 17.3145
8793.17 655.607 635.719 477.765 464.156 16.9228
8795.84 586.614 597.647 435.069 431.111 15.6846
8798.51 550.718 572.22 380.497 427.436 16.8506
8801.18 579.329 587.884 466.742 441.172 19.6981
8803.85 633.605 622.305 476.277 482.427 23.2466
8806.52 653.981 643.121 504.262 494.914 24.1563
8809.18 641.778 645.554 504.203 505.346 23.4257
8811.85 640.903 657.544 507.571 505.375 23.0435
8814.52 689.951 660.683 504.349 497.333 24.2877
8817.19 651.195 646.846 480.078 510.338 23.5223
8819.85 599.391 618.027 546.585 574.453 21.4029
8822.52 603.494 628.324 696.697 672.159 16.8325
8825.19 682.087 711.549 773.195 732.804 12.2766
8827.85 849.066 797.719 728.519 652.249 11.9487
8830.52 862.003 791.607 455.034 512.834 11.147
8833.18 663.753 718.032 354.949 465.65 9.02359
8835.85 628.34 648.315 586.966 444.119 9.81096
8838.51 652.853 636.668 390.442 453.074 11.4857
8841.18 628.811 639.05 381.812 412.506 12.2186
8843.84 635.487 614.846 465.264 445.756 14.5112
8846.51 580.241 634.752 490.191 497.895 16.0406
8849.17 688.528 631.498 538.229 512.16 19.0505
8851.84 625.726 646.492 508.059 523.463 17.0979
8854.5 625.221 634.285 524.099 510.658 17.3424
8857.16 651.908 626.268 499.816 472.701 19.5497
8859.83 601.676 605.644 394.189 457.805 20.1991
8862.49 563.35 625.843 479.41 487.861 19.7191
8865.15 712.503 680.231 589.985 547.323 20.4496
8867.81 764.84 720.889 572.574 553.07 18.195
8870.48 685.324 696.716 496.65 481.907 15.4147
8873.14 639.984 681.922 376.499 449.411 14.8135
8875.8 720.457 664.687 475.084 463.891 18.9924
8878.46 633.62 691.143 540.089 560.401 20.1512
8881.12 719.351 670.523 666.03 633.917 22.6065
8883.78 658.597 723.934 695.634 646.886 15.1063
8886.44 793.854 741.308 578.993 601.252 13.8101
8889.1 771.471 741.204 529.128 489.888 12.1568
8891.76 658.287 655.288 361.544 407.718 10.6828
8894.42 536.105 603.575 332.481 386.791 10.9785
8897.08 616.334 603.594 466.349 462.104 16.4561
8899.74 658.343 649.544 587.48 526.03 19.7605
8902.4 673.956 687.97 524.26 538.59 17.0301
8905.06 731.61 706.316 504.03 475.715 15.9829
8907.72 713.383 682.831 398.854 437.859 14.9798
8910.37 603.5 655.778 410.693 467.655 14.2275
8913.03 650.452 609.273 593.417 514.982 17.9284
8915.69 573.869 662.889 540.836 617.047 16.406
8918.35 764.346 704.729 716.888 592.859 15.3734
8921 775.974 754.093 520.852 540.034 12.3208
8923.66 721.96 725.531 382.361 369.805 10.5964
8926.32 678.66 641.068 206.203 247.583 10.7041
8928.97 522.584 626.175 154.184 259.291 10.6092
8931.63 677.283 614.73 417.485 308.804 18.3334
8934.28 644.324 648.495 354.741 416.766 21.3946
8936.94 623.879 618.66 478.072 421.401 22.3182
8939.59 587.776 636.76 431.389 472.392 20.3992
8942.25 698.623 650.601 507.713 497.571 19.4241
8944.9 665.402 642.178 553.611 475.902 16.0911
8947.56 562.507 613.785 366.381 434.318 12.8632
8950.21 613.446 592.664 382.961 415.979 14.6673
8952.87 602.039 596.396 498.595 475.493 16.6665
8955.52 573.703 601.431 544.924 541.127 15.4512
8958.17 628.551 658.381 579.863 567.56 12.781
8960.82 772.89 725.552 577.892 508.275 13.2911
8963.48 775.215 641.424 367.07 322.578 12.9815
8966.13 376.166 514.657 22.7701 156.59 7.67726
8968.78 392.591 448.094 79.9304 116.859 10.6248
8971.43 575.525 512.148 247.876 207.984 19.5271
8974.09 568.328 566.248 296.146 310.801 21.7665
8976.74 554.889 565.763 388.38 347.849 21.7182
8979.39 574.071 572.276 359.021 393.289 22.3962
8982.04 587.867 578.725 432.465 403.129 22.457
8984.69 574.235 573.516 417.901 406.113 21.0983
8987.34 558.444 556.935 367.973 425.203 18.4258
8989.99 538.126 528.715 489.735 411.483 15.4305
8992.64 489.576 501.066 376.742 387.406 13.6012
8995.29 475.496 506.459 295.741 364.783 13.7313
8997.94 554.305 535.184 421.868 397.97 16.8135
9000.59 575.75 564.011 476.303 458.054 15.2608
9003.23 561.978 560.171 475.99 492.639 12.987
9005.88 542.785 528.267 525.623 410.77 11.8139
9008.53 480.037 482.304 230.698 277.384 11.1112
9011.18 424.089 488.487 75.8316 180.933 12.3472
9013.83 561.335 506.61 236.27 186.521 19.7944
9016.47 534.405 553.296 247.461 251.493 22.3694
9019.12 564.147 540.671 270.75 284.86 23.6174
9021.77 523.461 547.543 336.368 317.24 22.5061
9024.41 555.021 535.815 344.601 350.983 22.8422
9027.06 528.962 550.643 371.981 376.793 21.7943
9029.71 567.946 554.353 413.798 389.653 22.6822
9032.35 566.15 572.459 383.179 391.517 23.1443
9035 583.281 581.303 377.573 400.321 22.8128
9037.64 594.479 597.938 440.211 434.841 20.9539
9040.29 616.054 599.948 486.739 436.552 19.529
9042.93 589.311 599.129 382.706 408.252 18.1281
9045.58 592.023 601.554 355.313 377.401 18.1607
9048.22 623.327 606.231 394.186 394.247 19.0614
9050.86 603.345 617.655 433.242 418.154 16.9528
9053.51 626.294 619.59 427.033 422.477 16.5698
9056.15 629.132 613.295 407.154 376.298 16.7118
9058.79 584.461 591.364 294.708 309.194 17.7105
9061.44 560.5 563.133 225.722 273.081 19.8735
9064.08 544.44 557.724 298.813 290.249 21.7564
9066.72 568.233 549.394 346.212 343.556 22.7263
9069.36 535.509 519.801 385.644 336.289 22.2183
9072 455.66 424.901 277.012 277.962 20.1425
9074.64 283.534 246.398 171.23 149.414 15.9961
