wavelength spec_sum spec_optimal
3527.51 20.7388 14.9482
3530.43 10.4336 16.0069
3533.35 17.6576 11.9703
3536.26 11.9099 20.1205
3539.18 19.3033 4.62917
3542.1 11.3985 20.1447
3545.02 6.64321 18.6478
3547.93 2.0337 13.3247
3550.85 16.3956 19.2682
3553.77 19.6253 29.074
3556.68 14.6459 21.3663
3559.6 13.3678 18.828
3562.52 16.0622 21.6386
3565.43 18.0659 18.0821
3568.35 19.6795 17.3346
3571.27 23.7077 28.0957
3574.18 21.2847 11.1972
3577.1 9.51655 16.9196
3580.02 15.0544 19.1926
3582.93 15.1545 16.3548
3585.85 17.1704 21.4171
3588.77 20.8607 20.2146
3591.68 13.1247 22.2096
3594.6 18.3689 20.2395
3597.52 18.4228 20.1501
3600.44 16.9257 27.3209
3603.35 30.8577 26.2023
3606.27 17.4241 20.2479
3609.19 32.4157 23.6426
3612.1 20.2718 15.4046
3615.02 30.2578 20.7196
3617.94 23.0008 25.4374
3620.85 30.8595 18.2737
3623.77 19.7539 23.508
3626.69 16.7117 13.5485
3629.6 9.12535 13.1641
3632.52 21.0782 22.0178
3635.44 19.0475 16.2561
3638.35 16.3243 17.8557
3641.27 20.8108 21.8158
3644.18 14.2055 7.28789
3647.1 21.0596 18.3199
3650.02 18.0975 16.6412
3652.93 12.5009 13.7819
3655.85 16.8563 14.8849
3658.77 11.573 10.7124
3661.68 23.8158 25.3715
3664.6 23.2161 21.7982
3667.52 19.5482 19.3859
3670.43 15.911 19.5854
3673.35 15.5529 11.78
3676.27 17.76 13.5789
3679.18 21.4902 13.1608
3682.1 21.6688 15.4548
3685.02 22.6186 19.5991
3687.93 26.3139 20.6178
3690.85 18.6733 15.2302
3693.76 24.953 14.4092
3696.68 22.5936 20.8555
3699.6 22.0237 9.95438
3702.51 25.2146 23.57
3705.43 29.9877 21.0691
3708.35 19.8326 16.9162
3711.26 20.4896 11.7072
3714.18 28.5198 21.5496
3717.1 20.6795 10.3015
3720.01 25.9392 19.0078
3722.93 17.5775 16.5695
3725.84 13.3522 17.3153
3728.76 13.3325 14.3505
3731.68 21.5851 18.5883
3734.59 18.0686 13.0469
3737.51 18.3001 16.4576
3740.42 16.579 11.2146
3743.34 23.3816 21.2699
3746.26 14.6549 13.1196
3749.17 23.9561 23.8222
3752.09 21.5769 22.9037
3755 22.6685 14.6097
3757.92 22.3928 24.2687
3760.84 31.0486 29.147
3763.75 34.2922 20.005
3766.67 14.8105 16.3472
3769.58 19.7416 19.3586
3772.5 29.1068 25.4925
3775.42 30.2284 24.3388
3778.33 20.6478 24.1307
3781.25 35.5333 26.7583
3784.16 28.6678 32.6011
3787.08 26.7322 27.6528
3790 17.9343 23.2012
3792.91 28.2793 25.4249
3795.83 20.6307 22.356
3798.74 26.0403 18.6337
3801.66 14.7938 15.428
3804.57 20.5507 21.5958
3807.49 25.0048 19.3925
3810.41 16.1695 16.7469
3813.32 21.9825 16.6051
3816.24 19.9959 23.7665
3819.15 21.4963 24.5084
3822.07 29.4891 24.8724
3824.98 27.5342 21.732
3827.9 26.3544 18.9791
3830.82 23.2231 25.6701
3833.73 26.9956 21.7821
3836.65 24.9185 23.3828
3839.56 34.0157 30.8956
3842.48 33.5862 27.3476
3845.39 29.9555 27.6875
3848.31 19.8706 20.2139
3851.22 27.3502 24.5465
3854.14 24.9055 20.0752
3857.05 28.4386 23.9735
3859.97 29.499 21.206
3862.89 29.1507 22.974
3865.8 16.5442 22.041
3868.72 28.7334 24.3916
3871.63 23.5333 20.9818
3874.55 24.9142 22.8612
3877.46 26.2483 18.8098
3880.38 18.1837 19.8697
3883.29 27.1505 21.0536
3886.21 29.5836 25.6462
3889.12 19.0608 17.0073
3892.04 19.1175 18.266
3894.95 23.6236 16.6041
3897.87 20.5838 20.5899
3900.78 20.4932 15.5961
3903.7 23.4503 20.7901
3906.61 25.2827 21.3471
3909.53 29.4445 30.0416
3912.44 25.9795 24.074
3915.36 31.6358 33.5679
3918.27 29.1345 30.6991
3921.19 31.1038 27.6076
3924.1 30.5352 27.6603
3927.02 25.5433 20.915
3929.93 22.8973 24.2423
3932.85 27.3216 22.4917
3935.76 20.9405 19.7237
3938.68 25.9106 22.8805
3941.59 19.1918 18.5254
3944.51 23.4632 19.7021
3947.42 26.1884 24.0034
3950.33 29.5535 26.9245
3953.25 30.8674 29.0869
3956.16 22.2388 21.2376
3959.08 26.5401 23.4156
3961.99 28.6278 25.7518
3964.91 21.7434 21.336
3967.82 24.1399 23.034
3970.74 35.0623 26.8342
3973.65 24.868 24.2695
3976.56 27.849 24.9019
3979.48 28.3259 25.5262
3982.39 17.9062 20.9201
3985.31 24.0259 20.4425
3988.22 17.4185 17.964
3991.14 22.8025 19.4601
3994.05 23.5643 22.3457
3996.96 30.281 23.1535
3999.88 22.7242 21.0483
4002.79 25.1413 22.4243
4005.71 26.0337 23.344
4008.62 25.5362 21.5582
4011.53 32.2305 27.1291
4014.45 28.8953 27.5963
4017.36 26.9641 21.7208
4020.28 26.2276 22.9056
4023.19 28.9665 22.7332
4026.1 20.7031 17.3809
4029.02 19.5629 18.7344
4031.93 21.4988 19.8579
4034.85 26.3793 21.7284
4037.76 30.1372 27.6639
4040.67 27.8137 21.6755
4043.59 34.4365 29.1987
4046.5 31.1497 24.9588
4049.41 27.9755 27.4356
4052.33 28.5531 29.4045
4055.24 36.9047 32.9496
4058.16 30.6833 27.1506
4061.07 30.0285 29.641
4063.98 34.518 27.839
4066.9 35.5382 29.3299
4069.81 34.5806 29.1659
4072.72 32.0308 30.4987
4075.64 36.7456 34.2692
4078.55 32.49 29.5752
4081.46 38.648 33.3016
4084.38 36.6244 33.6125
4087.29 30.8773 35.4661
4090.2 34.9498 30.7394
4093.12 32.6203 31.1221
4096.03 39.2171 32.4335
4098.94 39.2948 32.8762
4101.86 34.6285 27.2214
4104.77 39.9904 34.8458
4107.68 29.2467 29.6059
4110.59 44.2229 32.5613
4113.51 34.0705 34.0726
4116.42 35.9621 30.1209
4119.33 36.4168 31.1651
4122.25 29.0666 25.7792
4125.16 40.7684 33.1146
4128.07 31.7756 27.9021
4130.98 38.9892 33.5292
4133.9 32.8432 25.5154
4136.81 39.6116 34.8759
4139.72 37.0924 35.6162
4142.63 32.1498 30.4405
4145.55 35.2104 33.8598
4148.46 33.8456 31.1019
4151.37 36.5939 31.0866
4154.28 34.1304 30.3228
4157.2 36.9905 33.6947
4160.11 28.0074 27.1999
4163.02 38.5091 33.2386
4165.93 34.5639 28.1106
4168.85 39.7818 31.7928
4171.76 37.435 31.5159
4174.67 33.6474 31.6075
4177.58 38.4874 31.5477
4180.5 35.7871 32.4907
4183.41 39.2327 32.4878
4186.32 36.964 30.4706
4189.23 34.2876 30.7125
4192.14 36.8092 32.5446
4195.06 36.2326 32.7972
4197.97 36.744 28.7005
4200.88 33.3436 30.8815
4203.79 38.4933 32.557
4206.7 42.2122 34.5577
4209.61 36.4835 30.0931
4212.53 35.2803 31.4162
4215.44 40.5882 34.9848
4218.35 35.9486 30.028
4221.26 34.0086 32.9948
4224.17 40.2049 34.1152
4227.08 33.2257 28.6881
4230 38.1839 30.1501
4232.91 35.5004 30.6927
4235.82 35.6271 31.9497
4238.73 37.1897 31.2707
4241.64 41.3944 34.458
4244.55 33.7983 32.6141
4247.46 37.3351 31.6858
4250.38 39.922 33.1286
4253.29 35.9644 30.0157
4256.2 37.6965 32.0275
4259.11 38.7966 30.0531
4262.02 41.0943 29.6902
4264.93 36.7805 30.0242
4267.84 40.4838 34.3837
4270.75 37.0672 29.7196
4273.66 34.385 28.7289
4276.57 36.6248 32.3385
4279.49 31.7568 29.5329
4282.4 32.3344 27.4828
4285.31 34.4574 36.3115
4288.22 41.4214 34.8818
4291.13 36.2975 34.7419
4294.04 38.5263 32.4988
4296.95 37.1042 31.8496
4299.86 36.659 31.7403
4302.77 41.5376 35.9743
4305.68 39.083 32.6227
4308.59 40.5823 33.4908
4311.5 40.0586 32.5037
4314.41 43.0731 36.7742
4317.32 41.3869 33.1535
4320.23 35.9238 33.2687
4323.14 35.7766 32.0845
4326.05 43.717 36.154
4328.96 35.5591 31.1328
4331.87 41.9748 35.9138
4334.78 39.272 34.6013
4337.69 39.0236 33.5825
4340.6 39.7371 31.6061
4343.51 39.6263 30.6746
4346.42 36.1027 30.5842
4349.33 36.4101 30.1129
4352.24 37.5416 30.957
4355.15 38.8682 33.4035
4358.06 37.3098 34.8356
4360.97 34.6699 29.4865
4363.88 35.9515 30.3086
4366.79 30.9811 28.9839
4369.7 34.4454 31.1598
4372.61 32.9181 28.3955
4375.52 33.1949 29.0394
4378.43 33.0334 29.4961
4381.34 38.6218 34.9366
4384.25 43.4111 33.7947
4387.15 37.7333 32.2009
4390.06 35.9862 31.8391
4392.97 41.3202 34.0605
4395.88 38.1443 34.0762
4398.79 40.5599 31.3694
4401.7 38.4289 31.6641
4404.61 36.5826 32.746
4407.52 40.5797 34.3324
4410.43 40.8026 34.6552
4413.34 36.7546 33.0661
4416.24 34.7263 28.6343
4419.15 43.1252 34.8045
4422.06 37.089 34.9999
4424.97 40.0906 38.1953
4427.88 37.6156 34.3196
4430.79 40.1607 34.8911
4433.7 43.0842 37.5515
4436.6 40.4913 33.6488
4439.51 45.5588 38.0007
4442.42 42.3014 36.2184
4445.33 39.4978 35.4309
4448.24 34.0609 31.1707
4451.14 40.8626 31.4129
4454.05 41.7063 34.5265
4456.96 39.2656 37.2337
4459.87 40.9044 35.2449
4462.78 36.4389 35.7138
4465.68 43.0174 38.204
4468.59 36.5738 29.2458
4471.5 40.2937 35.0539
4474.41 43.2403 33.9349
4477.32 43.3539 38.2842
4480.22 42.0684 37.4298
4483.13 43.899 39.2059
4486.04 39.1507 33.7238
4488.95 41.7713 35.8709
4491.85 38.8252 34.8418
4494.76 45.2084 35.9472
4497.67 40.6913 32.617
4500.58 47.5997 38.7165
4503.48 39.2951 33.61
4506.39 44.174 40.4898
4509.3 39.0975 34.9171
4512.2 46.5672 37.6832
4515.11 45.9581 39.4167
4518.02 40.8543 38.3906
4520.92 44.7622 40.5183
4523.83 44.708 36.4151
4526.74 41.8189 39.1117
4529.65 36.4281 32.7544
4532.55 41.5136 38.2172
4535.46 40.7983 40.1238
4538.37 42.8301 38.6654
4541.27 40.9034 34.0851
4544.18 42.5944 36.7449
4547.08 41.5727 34.7811
4549.99 43.0334 36.8186
4552.9 47.3268 38.6429
4555.8 40.6335 37.1075
4558.71 46.8967 38.9914
4561.62 46.4629 39.0637
4564.52 47.1711 39.3249
4567.43 41.7033 33.9801
4570.33 43.7946 36.6509
4573.24 47.0175 39.1848
4576.15 50.3234 38.7026
4579.05 50.8956 40.4499
4581.96 47.8912 42.0778
4584.86 42.0694 33.0747
4587.77 49.2608 39.5264
4590.67 45.9868 34.9156
4593.58 44.6524 35.2945
4596.49 41.0151 34.0929
4599.39 46.4707 36.9222
4602.3 46.0132 36.8358
4605.2 48.0054 31.3115
4608.11 49.7696 36.9976
4611.01 43.3213 33.7238
4613.92 48.0537 35.7705
4616.82 44.9405 35.3064
4619.73 44.6106 36.1213
4622.63 44.8443 33.9038
4625.54 46.4682 33.1087
4628.44 53.358 34.3548
4631.35 46.0525 32.561
4634.25 45.1916 31.5069
4637.16 44.8408 34.5353
4640.06 52.4555 35.119
4642.97 54.6674 38.219
4645.87 49.019 35.2758
4648.77 50.5414 35.7515
4651.68 44.4021 32.5071
4654.58 53.8186 35.13
4657.49 47.5626 33.6664
4660.39 48.8661 32.168
4663.3 53.0744 33.4226
4666.2 50.4817 31.6306
4669.1 52.4171 33.1977
4672.01 50.6809 30.4141
4674.91 54.5175 35.7743
4677.82 51.9445 33.6593
4680.72 49.0386 32.7533
4683.62 59.664 39.1147
4686.53 51.2667 36.7582
4689.43 55.4445 35.4617
4692.33 58.9531 33.569
4695.24 51.2131 35.0942
4698.14 51.064 33.1049
4701.04 59.9308 40.7322
4703.95 57.5145 40.5676
4706.85 51.7283 35.5929
4709.75 52.0757 38.2836
4712.66 54.3001 38.003
4715.56 46.4068 34.6764
4718.46 48.9947 36.139
4721.37 54.6797 36.7515
4724.27 50.4799 39.3334
4727.17 44.4623 35.8327
4730.08 48.4313 34.3932
4732.98 44.5717 32.24
4735.88 51.6449 34.0351
4738.78 51.9552 34.2754
4741.69 53.7646 38.848
4744.59 50.6592 36.1385
4747.49 52.6885 35.525
4750.39 50.5179 37.521
4753.29 52.7875 33.4183
4756.2 46.1852 33.4363
4759.1 50.4263 36.9478
4762 46.8292 36.5044
4764.9 46.3673 34.2892
4767.81 51.9473 34.8497
4770.71 47.2009 32.5074
4773.61 48.0164 37.2262
4776.51 47.5219 33.6549
4779.41 46.5589 35.7965
4782.31 47.2113 33.7422
4785.22 49.5525 33.8292
4788.12 46.9761 36.1987
4791.02 51.9479 37.7374
4793.92 51.4312 36.124
4796.82 47.954 31.6893
4799.72 51.0725 36.2352
4802.62 47.4725 34.6665
4805.52 55.8735 38.6149
4808.43 47.8392 36.3343
4811.33 51.4915 36.1312
4814.23 47.1549 34.9019
4817.13 42.5655 36.5812
4820.03 47.1928 36.4636
4822.93 46.9735 35.2692
4825.83 49.9078 35.7983
4828.73 50.7405 39.306
4831.63 47.0869 37.315
4834.53 52.6311 36.3065
4837.43 47.3274 34.7854
4840.33 55.5849 38.7475
4843.23 53.5849 37.6208
4846.13 48.0126 38.9966
4849.03 54.4501 37.0726
4851.93 52.1278 38.5401
4854.83 46.6063 37.8999
4857.73 54.9249 41.4627
4860.63 54.5159 36.973
4863.53 54.2339 37.8357
4866.43 54.066 41.4014
4869.33 56.9448 38.1486
4872.23 51.345 37.4933
4875.13 47.8498 38.279
4878.03 54.3582 40.3114
4880.93 51.5079 38.5755
4883.83 47.5998 40.5941
4886.73 55.8745 41.4493
4889.63 56.0817 42.9015
4892.53 57.3072 44.3038
4895.42 53.2638 38.6977
4898.32 61.7019 46.0103
4901.22 53.149 42.7218
4904.12 56.52 45.7685
4907.02 46.0329 40.02
4909.92 51.4544 41.3543
4912.82 49.5431 41.4191
4915.72 55.6432 41.1069
4918.61 59.7603 45.5254
4921.51 51.8614 38.296
4924.41 53.1311 37.6587
4927.31 54.5449 38.4897
4930.21 50.2846 38.407
4933.1 54.4764 41.5613
4936 52.899 39.0401
4938.9 47.4336 36.2596
4941.8 48.7175 38.1515
4944.7 49.1391 35.9547
4947.59 47.0544 37.2834
4950.49 51.4993 37.7433
4953.39 44.6772 37.3005
4956.29 52.022 37.5803
4959.18 40.9966 33.739
4962.08 48.1615 34.6041
4964.98 50.1274 38.3981
4967.88 49.613 39.1597
4970.77 54.9557 41.3374
4973.67 49.4821 37.2499
4976.57 49.6251 38.4755
4979.46 52.1646 39.346
4982.36 54.0553 39.8692
4985.26 48.8128 41.2169
4988.15 54.5324 41.638
4991.05 50.2661 36.0447
4993.95 52.0375 37.1848
4996.84 53.7557 39.9161
4999.74 47.6835 39.1966
5002.64 56.4323 42.1898
5005.53 53.3597 40.4951
5008.43 58.4129 40.3003
5011.32 52.4126 38.5751
5014.22 52.7774 39.921
5017.12 54.9006 41.7917
5020.01 55.6452 43.5278
5022.91 54.2958 43.7105
5025.8 54.571 42.2032
5028.7 54.2512 39.1167
5031.59 53.6829 38.8501
5034.49 59.6009 43.6213
5037.39 58.3892 43.6216
5040.28 52.8429 39.9255
5043.18 57.4866 42.8331
5046.07 56.4751 44.6083
5048.97 54.1212 43.4738
5051.86 58.4259 45.5633
5054.76 51.3783 40.7353
5057.65 50.8086 42.3236
5060.55 56.2249 41.7447
5063.44 53.9241 42.6695
5066.34 48.1824 45.3757
5069.23 56.7972 42.7055
5072.12 54.4995 43.1376
5075.02 51.4913 41.9563
5077.91 55.2107 44.0575
5080.81 55.8556 42.0976
5083.7 55.2412 44.1744
5086.6 54.0708 43.0229
5089.49 53.9107 43.4637
5092.38 50.8216 43.3194
5095.28 56.0134 43.4535
5098.17 54.9502 44.4674
5101.06 50.5387 42.1818
5103.96 54.0228 42.7647
5106.85 53.629 45.2057
5109.74 53.6896 43.1443
5112.64 51.7939 43.6207
5115.53 55.2612 44.4071
5118.42 47.8097 40.1511
5121.32 51.0563 43.2325
5124.21 50.3934 45.4456
5127.1 52.9746 43.0171
5130 47.2559 40.8726
5132.89 55.5495 44.0317
5135.78 56.9432 46.5286
5138.67 58.404 41.3736
5141.57 54.2062 45.4937
5144.46 56.7819 44.5364
5147.35 53.1349 44.0936
5150.24 55.121 45.8933
5153.14 57.0898 44.7621
5156.03 58.8284 46.0454
5158.92 55.1962 45.6214
5161.81 53.5455 42.2211
5164.7 56.0298 43.0955
5167.6 55.139 44.9789
5170.49 52.0671 41.1368
5173.38 55.1015 46.2854
5176.27 55.5837 45.6104
5179.16 51.3002 44.3474
5182.05 52.8087 45.9777
5184.94 58.7825 47.3365
5187.84 56.8561 47.6824
5190.73 56.2222 46.6596
5193.62 60.747 49.2916
5196.51 55.3237 45.1066
5199.4 51.489 46.4546
5202.29 52.0775 46.5651
5205.18 49.2491 44.0434
5208.07 52.0874 46.0131
5210.96 56.3863 44.6746
5213.85 55.1209 47.0084
5216.74 51.6054 46.5042
5219.63 57.3578 46.4437
5222.52 52.373 41.6576
5225.41 53.9588 43.2794
5228.3 55.2554 45.8043
5231.19 55.9304 43.9139
5234.08 55.4973 43.2691
5236.97 52.3232 44.9693
5239.86 56.6328 45.669
5242.75 53.5855 45.1903
5245.64 54.9036 45.1043
5248.53 53.0144 43.1708
5251.42 52.7843 42.175
5254.31 55.0664 41.1582
5257.2 50.434 42.6688
5260.09 51.3189 45.2605
5262.98 55.3434 45.5899
5265.86 51.5309 44.8401
5268.75 52.999 42.7075
5271.64 53.1841 43.2753
5274.53 58.4321 46.5229
5277.42 54.1034 43.0109
5280.31 58.565 46.3035
5283.2 56.0039 44.8809
5286.08 54.1598 45.6884
5288.97 53.5743 45.0056
5291.86 50.8921 44.4903
5294.75 51.8636 44.9137
5297.64 56.6904 49.017
5300.52 57.4753 49.6174
5303.41 55.641 46.6195
5306.3 57.7768 46.7078
5309.19 56.2616 47.749
5312.07 52.2598 49.0336
5314.96 57.4948 47.7365
5317.85 57.1764 47.9279
5320.74 54.2046 49.7372
5323.62 57.7323 49.2017
5326.51 58.1334 49.5962
5329.4 59.6839 50.0673
5332.28 50.6109 43.5046
5335.17 55.4931 51.764
5338.06 58.1009 47.9835
5340.94 55.4228 45.3676
5343.83 57.8415 47.018
5346.72 56.6638 46.9243
5349.6 55.0481 46.693
5352.49 53.836 47.0841
5355.38 47.2147 45.0487
5358.26 59.314 49.2167
5361.15 55.9346 51.3375
5364.03 56.3687 50.8469
5366.92 61.1304 49.52
5369.8 56.2433 51.8539
5372.69 64.4083 54.2162
5375.58 52.1307 51.1011
5378.46 57.7137 46.7296
5381.35 58.7844 48.6968
5384.23 57.8873 49.346
5387.12 61.9969 51.2038
5390 60.3359 54.1112
5392.89 59.6828 54.0215
5395.77 62.2306 51.8528
5398.66 63.9645 54.1818
5401.54 62.2335 53.1358
5404.42 60.2443 49.5855
5407.31 58.5142 48.8093
5410.19 59.9643 50.114
5413.08 55.8234 46.8393
5415.96 58.208 51.8514
5418.85 57.5425 47.3714
5421.73 56.7024 49.8992
5424.61 61.2858 51.1662
5427.5 59.3499 49.9841
5430.38 58.8115 51.7901
5433.26 59.1605 52.1855
5436.15 59.1728 54.4485
5439.03 61.6899 54.1053
5441.91 59.4838 52.1068
5444.8 63.4602 52.8942
5447.68 62.0527 52.0658
5450.56 63.7722 53.7502
5453.45 57.6617 50.9746
5456.33 58.7677 52.6461
5459.21 52.4251 51.7693
5462.09 62.2545 52.6855
5464.98 61.0317 53.2763
5467.86 61.402 52.9085
5470.74 59.3186 51.0912
5473.62 61.637 52.7639
5476.51 58.0526 52.1807
5479.39 53.438 49.486
5482.27 56.9248 52.0297
5485.15 59.3596 50.8365
5488.03 54.8176 48.8428
5490.91 62.7976 53.1903
5493.8 54.5824 51.8366
5496.68 61.7886 53.1055
5499.56 57.5341 50.091
5502.44 57.5777 51.9377
5505.32 59.5526 51.7402
5508.2 62.7006 52.6586
5511.08 64.2403 57.1993
5513.96 62.4941 51.4592
5516.84 59.5628 50.6299
5519.73 61.9439 55.0882
5522.61 59.7984 53.4963
5525.49 66.2007 55.4787
5528.37 61.1923 51.952
5531.25 57.9781 50.3407
5534.13 56.1183 52.1869
5537.01 61.6341 53.6356
5539.89 59.4748 52.7156
5542.77 55.7194 50.9002
5545.65 57.691 52.1827
5548.53 59.2358 52.1513
5551.41 60.3355 51.6928
5554.28 59.1684 51.1192
5557.16 55.0142 51.758
5560.04 62.8655 53.7369
5562.92 62.112 54.3932
5565.8 56.2234 57.8141
5568.68 64.2098 59.3816
5571.56 69.2731 61.6083
5574.44 64.3812 53.7803
5577.32 73.542 55.0644
5580.19 70.5161 62.98
5583.07 55.4059 55.9814
5585.95 58.0287 54.7158
5588.83 60.8966 53.5556
5591.71 62.7316 51.6749
5594.59 52.1855 51.0177
5597.46 56.6419 54.9152
5600.34 53.7078 52.8029
5603.22 62.2089 55.5222
5606.1 60.0631 57.7161
5608.97 59.9357 54.0993
5611.85 63.0661 53.9011
5614.73 52.4827 50.6975
5617.61 65.0786 53.7262
5620.48 53.2005 54.79
5623.36 64.092 56.3826
5626.24 55.6504 53.8235
5629.11 60.8517 53.2491
5631.99 64.8227 58.5578
5634.87 63.3598 57.7392
5637.74 61.6657 54.2756
5640.62 65.2814 55.1818
5643.49 64.4756 54.9314
5646.37 61.1379 53.4945
5649.25 63.7807 55.5155
5652.12 62.192 54.1057
5655 53.2746 53.8892
5657.87 60.2998 54.154
5660.75 63.3349 53.8439
5663.63 57.4574 55.5115
5666.5 58.4294 51.7869
5669.38 61.444 52.7212
5672.25 58.7202 51.8033
5675.13 59.802 55.8131
5678 51.4755 51.723
5680.88 58.7276 53.6358
5683.75 61.6398 52.5434
5686.62 61.0827 51.8725
5689.5 64.0722 55.8546
5692.37 63.3189 56.1288
5695.25 62.4523 53.1371
5698.12 60.83 56.2907
5701 60.8874 56.3518
5703.87 63.3721 55.3592
5706.74 62.6529 55.0402
5709.62 62.0117 56.1514
5712.49 59.7893 52.3909
5715.36 67.4397 58.503
5718.24 61.0995 53.2265
5721.11 64.5187 56.9199
5723.98 63.4771 54.6759
5726.86 55.7543 55.5981
5729.73 57.9023 55.6357
5732.6 61.2774 53.415
5735.48 65.1494 56.2262
5738.35 65.5772 55.2052
5741.22 62.5943 56.384
5744.09 57.9899 55.1973
5746.97 63.7693 56.5844
5749.84 59.9839 55.5788
5752.71 63.0658 54.6843
5755.58 62.4152 55.9544
5758.45 67.8962 57.6753
5761.33 63.5818 58.7911
5764.2 60.899 54.4196
5767.07 64.5438 53.9405
5769.94 66.7481 60.2923
5772.81 62.6318 55.3719
5775.68 62.3584 55.7798
5778.55 63.7828 57.9199
5781.43 66.4019 53.598
5784.3 60.1585 53.8252
5787.17 66.0671 58.196
5790.04 65.4401 55.0821
5792.91 65.78 55.0167
5795.78 68.8925 55.0435
5798.65 63.6608 55.9903
5801.52 69.054 55.9587
5804.39 60.516 57.5882
5807.26 67.2476 54.5489
5810.13 69.5334 59.8215
5813 70.7345 57.8263
5815.87 71.9097 62.1777
5818.74 72.7214 58.6943
5821.61 73.1799 60.6934
5824.48 70.6443 57.1632
5827.34 66.7085 58.2202
5830.21 71.2972 57.689
5833.08 70.7942 59.6694
5835.95 72.914 59.3302
5838.82 70.495 57.1023
5841.69 68.031 57.9092
5844.56 64.6854 58.1725
5847.43 70.5346 58.9757
5850.29 70.5491 59.1827
5853.16 72.4805 57.3247
5856.03 64.823 55.7407
5858.9 69.7566 60.9669
5861.77 66.9557 63.4128
5864.63 70.6333 59.8324
5867.5 67.6179 55.9631
5870.37 70.1688 57.7059
5873.24 66.5826 57.2124
5876.1 70.9004 60.274
5878.97 64.7894 55.2334
5881.84 71.4246 59.8634
5884.7 58.9152 57.9853
5887.57 64.8376 63.4748
5890.44 73.1054 59.7139
5893.3 69.4702 56.1063
5896.17 70.2209 61.3301
5899.04 64.65 55.7991
5901.9 67.6307 55.9736
5904.77 67.9346 56.3245
5907.63 61.3262 57.2482
5910.5 72.4931 58.9007
5913.37 69.7705 57.0311
5916.23 62.0966 59.4002
5919.1 69.2446 60.427
5921.96 66.1386 62.0389
5924.83 73.8115 63.2076
5927.69 70.6709 61.001
5930.56 76.2483 62.0681
5933.42 68.0649 58.8891
5936.29 68.6287 57.1471
5939.15 73.7419 59.2115
5942.02 63.6382 58.0766
5944.88 65.8817 57.0231
5947.74 66.1273 59.582
5950.61 72.061 60.8864
5953.47 69.2234 57.1585
5956.34 70.76 58.4173
5959.2 64.1077 59.4409
5962.06 72.4642 61.3219
5964.93 73.6945 61.6493
5967.79 68.8638 59.8276
5970.65 65.6751 58.9137
5973.52 71.4465 57.3742
5976.38 60.9227 52.1658
5979.24 56.7034 49.2917
5982.11 63.256 50.2871
5984.97 54.4903 54.4199
5987.83 63.9299 52.5102
5990.69 67.0174 55.2807
5993.56 65.9235 53.6517
5996.42 67.8514 56.8477
5999.28 69.2765 57.652
6002.14 73.5535 61.4986
6005 69.2291 59.2711
6007.86 64.6469 58.6114
6010.73 67.9877 55.5619
6013.59 67.763 59.1948
6016.45 71.5747 60.8101
6019.31 69.5246 60.2601
6022.17 71.5379 62.1869
6025.03 60.6505 58.6146
6027.89 71.0491 61.766
6030.75 66.1875 59.485
6033.61 68.7393 59.102
6036.47 66.5414 59.3857
6039.33 66.7983 59.457
6042.2 69.3597 59.5166
6045.06 65.1618 58.0804
6047.92 69.157 60.6232
6050.77 66.7294 60.5481
6053.63 71.5979 64.264
6056.49 69.3906 60.664
6059.35 62.0104 58.1546
6062.21 64.7158 57.2612
6065.07 67.5108 58.4633
6067.93 68.2085 60.6416
6070.79 68.5034 59.046
6073.65 71.6427 62.3212
6076.51 67.4984 59.5629
6079.37 64.7766 61.7896
6082.22 65.965 60.7213
6085.08 65.5014 58.727
6087.94 66.2535 58.4206
6090.8 70.8294 62.6016
6093.66 69.7733 58.3181
6096.51 71.741 62.3167
6099.37 65.4476 58.9872
6102.23 62.6051 58.798
6105.09 69.4486 61.5903
6107.94 65.7615 58.9284
6110.8 69.4927 61.439
6113.66 61.9922 56.4443
6116.52 69.4504 59.3779
6119.37 66.9943 61.2363
6122.23 69.4534 60.6741
6125.09 66.7623 63.5157
6127.94 71.7363 61.5501
6130.8 69.0758 62.8135
6133.65 71.3615 62.9955
6136.51 70.1558 62.9261
6139.37 66.5331 60.5979
6142.22 68.6861 61.6518
6145.08 66.9982 61.2943
6147.93 66.4115 63.4591
6150.79 69.4683 62.4307
6153.64 68.4961 62.3614
6156.5 65.3471 61.2666
6159.35 72.9131 62.991
6162.21 65.3249 59.5441
6165.06 66.9552 62.9619
6167.92 70.4823 62.0596
6170.77 72.0857 64.3177
6173.63 67.0673 60.6333
6176.48 64.9744 60.6277
6179.33 68.9272 62.9715
6182.19 69.2247 64.158
6185.04 69.5092 62.657
6187.9 68.9399 62.0916
6190.75 66.01 58.3698
6193.6 72.4575 62.3132
6196.46 66.0067 59.1623
6199.31 64.7328 58.1785
6202.16 70.6244 61.7904
6205.01 66.0357 60.1722
6207.87 68.7011 61
6210.72 68.7586 63.527
6213.57 61.1438 59.9796
6216.43 69.8466 59.7649
6219.28 71.3338 63.1061
6222.13 69.5745 61.2617
6224.98 58.8452 58.2322
6227.83 65.5374 61.9447
6230.68 66.1999 59.2304
6233.54 63.6263 58.433
6236.39 69.155 60.1308
6239.24 69.8328 63.2214
6242.09 67.7604 61.2239
6244.94 67.7361 59.8991
6247.79 66.2128 60.3568
6250.64 60.3752 58.7513
6253.49 58.167 56.142
6256.34 62.4922 57.4484
6259.19 61.203 56.6664
6262.04 67.3448 58.8962
6264.89 66.9116 58.7483
6267.74 64.0815 57.3144
6270.59 65.8998 59.9589
6273.44 62.9577 59.6352
6276.29 64.0265 59.7592
6279.14 65.194 58.6481
6281.99 57.8127 57.6697
6284.84 69.484 59.7824
6287.69 56.4616 55.9481
6290.54 65.4848 61.6767
6293.39 66.7647 57.7875
6296.24 53.6171 59.5869
6299.08 71.0278 60.0369
6301.93 67.1539 60.6778
6304.78 62.067 58.6074
6307.63 57.8353 54.9314
6310.48 64.0294 57.154
6313.32 63.2004 58.5165
6316.17 56.025 55.7215
6319.02 61.3084 59.237
6321.87 64.5774 59.0316
6324.71 65.2285 58.6263
6327.56 67.4475 61.1987
6330.41 58.7171 54.3815
6333.25 63.6799 57.9314
6336.1 65.8001 60.2347
6338.95 65.0129 60.4402
6341.79 59.8925 54.1563
6344.64 64.7489 58.1991
6347.49 67.0425 60.9715
6350.33 64.3772 57.399
6353.18 66.3169 59.5208
6356.02 66.7646 58.354
6358.87 71.6139 62.8624
6361.71 68.6236 63.4394
6364.56 66.2693 60.9465
6367.4 60.504 59.8322
6370.25 64.625 58.7918
6373.09 63.3881 63.3566
6375.94 64.5374 57.8487
6378.78 62.2505 56.8963
6381.63 72.8385 63.136
6384.47 62.2257 61.2133
6387.32 66.8877 60.6146
6390.16 67.5568 58.3401
6393 66.4429 60.7874
6395.85 65.9117 61.2501
6398.69 66.9735 60.1169
6401.53 72.9605 62.9887
6404.38 69.5926 62.5314
6407.22 67.8652 62.7093
6410.06 70.3098 62.3554
6412.91 67.1676 62.7341
6415.75 63.156 58.1013
6418.59 68.5363 64.0488
6421.43 65.6464 61.1484
6424.28 72.5548 67.0657
6427.12 60.2208 58.5224
6429.96 68.4268 62.9888
6432.8 61.6582 58.8021
6435.64 70.2688 61.0993
6438.49 70.5132 62.7111
6441.33 66.8259 60.773
6444.17 67.1579 60.9266
6447.01 63.2188 59.0647
6449.85 68.7539 61.3893
6452.69 64.9696 62.9005
6455.53 64.5948 60.0193
6458.37 62.8795 61.9923
6461.21 57.2196 58.2644
6464.05 61.1905 60.8691
6466.89 68.8933 61.7082
6469.73 60.4696 62.1081
6472.57 63.6701 63.7494
6475.41 63.2793 61.945
6478.25 69.2606 62.1345
6481.09 71.244 63.812
6483.93 69.7768 63.4876
6486.77 67.0596 62.678
6489.61 63.8953 58.1355
6492.45 65.7973 59.1368
6495.29 62.5943 59.2966
6498.12 69.6606 63.2987
6500.96 68.1269 62.5301
6503.8 70.3842 62.4697
6506.64 64.8748 60.4829
6509.48 65.4502 57.5109
6512.31 58.3923 56.7735
6515.15 62.6521 57.0247
6517.99 61.5403 59.3625
6520.83 66.6501 61.3544
6523.66 64.4418 60.2508
6526.5 70.6682 64.3612
6529.34 62.5313 58.452
6532.17 69.1492 62.9493
6535.01 62.2662 58.6022
6537.85 63.0445 59.7231
6540.68 68.9498 63.7726
6543.52 66.3629 60.9324
6546.36 62.8878 59.8853
6549.19 61.0901 58.7475
6552.03 59.8676 61.2781
6554.86 58.1813 58.5941
6557.7 69.4104 63.1616
6560.53 60.8913 60.3835
6563.37 58.8819 60.8696
6566.2 63.7762 61.7039
6569.04 67.5566 59.2267
6571.87 68.019 58.4583
6574.71 67.3899 62.9264
6577.54 69.9425 63.592
6580.38 63.5401 58.1362
6583.21 63.1893 60.3613
6586.04 69.1089 62.8304
6588.88 63.2372 58.6673
6591.71 60.0866 57.1035
6594.54 63.2761 58.9137
6597.38 66.3208 61.7795
6600.21 63.5325 58.6752
6603.04 66.7331 60.6295
6605.88 66.8693 62.4864
6608.71 63.8487 59.9521
6611.54 71.6557 64.6015
6614.37 64.3971 59.3075
6617.21 71.1287 67.7842
6620.04 68.1343 63.5448
6622.87 66.3303 62.6283
6625.7 70.5199 64.6211
6628.53 65.414 61.7933
6631.37 67.4947 63.9535
6634.2 71.0034 64.1055
6637.03 68.0582 61.4222
6639.86 70.8136 68.0317
6642.69 69.8866 65.8422
6645.52 73.3 71.2511
6648.35 73.2507 69.7565
6651.18 70.0018 68.1473
6654.01 78.841 71.43
6656.84 97.4884 90.2973
6659.67 109.668 104.682
6662.5 111.798 108.747
6665.33 111.795 101.847
6668.16 92.9843 86.7341
6670.99 84.1484 78.8779
6673.82 75.6897 72.1832
6676.65 78.0717 72.4632
6679.48 78.8489 79.1065
6682.31 81.4974 78.5723
6685.13 86.7548 79.7572
6687.96 81.7073 76.0394
6690.79 71.3671 68.9277
6693.62 69.6558 67.2909
6696.45 71.1821 67.2598
6699.27 69.7492 65.9365
6702.1 70.8029 64.1359
6704.93 71.1686 70.3093
6707.76 66.361 63.745
6710.58 68.9298 64.816
6713.41 71.2493 65.6584
6716.24 70.0368 66.2261
6719.06 72.7502 67.3933
6721.89 70.9076 68.7041
6724.72 72.9046 68.065
6727.54 67.9094 66.2159
6730.37 72.8611 66.929
6733.19 68.222 63.1306
6736.02 65.1933 62.1275
6738.85 67.9762 64.129
6741.67 71.3181 66.3359
6744.5 71.1019 64.4971
6747.32 66.2383 63.1806
6750.15 64.4644 64.3649
6752.97 65.6082 62.3609
6755.8 74.2695 68.5077
6758.62 65.8562 64.9193
6761.44 69.5614 61.4537
6764.27 74.1645 67.9357
6767.09 67.5518 62.2663
6769.92 69.9348 67.1024
6772.74 63.5352 64.4761
6775.56 70.6236 64.3583
6778.39 69.5217 62.3104
6781.21 73.4789 64.1668
6784.03 73.9219 66.5038
6786.86 71.8591 66.6887
6789.68 73.405 68.3844
6792.5 70.4801 64.2988
6795.32 70.2328 66.1304
6798.15 72.1916 65.839
6800.97 73.8432 69.2254
6803.79 69.778 62.833
6806.61 69.8253 64.3711
6809.43 69.1957 63.832
6812.25 71.603 66.8217
6815.08 77.6862 70.4559
6817.9 83.8612 74.34
6820.72 78.2075 69.4107
6823.54 78.3426 68.4931
6826.36 76.9811 68.6712
6829.18 81.8006 67.5184
6832 74.8525 63.6648
6834.82 81.2519 68.7402
6837.64 80.7528 68.0033
6840.46 69.9406 63.2317
6843.28 72.2666 61.2214
6846.1 66.3995 61.7642
6848.92 64.9905 59.9295
6851.74 72.1699 64.1532
6854.56 69.8527 60.8045
6857.37 64.6159 61.4096
6860.19 72.6758 61.744
6863.01 69.0635 59.1343
6865.83 52.5284 51.2653
6868.65 57.013 51.4763
6871.47 60.2043 49.9446
6874.28 52.0564 49.3177
6877.1 49.7517 48.9257
6879.92 67.1557 55.7841
6882.74 62.4114 56.5909
6885.55 64.024 57.0847
6888.37 62.9464 55.4656
6891.19 59.7141 57.048
6894 67.2314 55.7227
6896.82 62.5902 56.9069
6899.64 64.6134 55.662
6902.45 64.1968 55.761
6905.27 65.7218 58.4654
6908.08 70.9973 59.906
6910.9 70.7011 61.5009
6913.72 71.0609 65.2274
6916.53 68.9792 61.3337
6919.35 68.9688 61.9692
6922.16 68.4504 58.2922
6924.98 70.3172 64.4079
6927.79 68.4458 60.5279
6930.6 67.8864 59.6545
6933.42 66.8935 61.1185
6936.23 72.429 58.7751
6939.05 69.681 61.7223
6941.86 69.9185 60.5049
6944.67 72.0349 63.0857
6947.49 72.0766 60.4176
6950.3 66.1624 58.3404
6953.11 69.742 61.8101
6955.93 67.5249 61.8976
6958.74 71.3411 63.3698
6961.55 69.5342 63.6939
6964.37 69.5585 63.5601
6967.18 67.4461 63.543
6969.99 71.1929 62.0745
6972.8 72.6157 64.2449
6975.61 71.33 65.602
6978.42 71.4823 65.8743
6981.24 71.5701 63.5339
6984.05 62.675 64.785
6986.86 71.4951 64.6503
6989.67 68.1976 62.9736
6992.48 73.568 65.9846
6995.29 70.6776 64.0404
6998.1 68.6043 63.9475
7000.91 71.7844 65.7497
7003.72 64.1298 62.0346
7006.53 70.1421 61.8172
7009.34 67.8911 63.4756
7012.15 68.4337 65.0257
7014.96 69.4028 67.2117
7017.77 63.8468 63.9865
7020.58 71.9154 66.0918
7023.39 68.7011 65.0743
7026.2 67.3416 62.4677
7029 74.3085 65.3356
7031.81 69.3534 60.0942
7034.62 71.9583 63.0829
7037.43 75.588 66.2579
7040.24 67.5351 61.9411
7043.04 73.4626 63.5292
7045.85 71.4173 64.9231
7048.66 62.8679 61.4839
7051.47 73.2473 64.1549
7054.27 71.4823 63.2095
7057.08 69.6348 63.4175
7059.89 73.005 64.853
7062.69 71.4586 62.0043
7065.5 76.3301 68.553
7068.31 70.5515 64.2868
7071.11 71.4843 65.3021
7073.92 66.7646 62.9889
7076.72 70.8561 66.723
7079.53 73.1167 69.6088
7082.33 72.1767 65.5541
7085.14 72.1598 66.2032
7087.94 67.9594 64.8807
7090.75 71.2551 65.915
7093.55 70.7084 64.9332
7096.36 65.4497 65.4497
7099.16 70.3018 63.4761
7101.97 66.8061 62.8793
7104.77 68.6053 62.8405
7107.57 70.4521 65.8271
7110.38 68.616 67.7449
7113.18 66.039 59.4449
7115.98 70.4097 64.4349
7118.79 67.9256 64.7507
7121.59 73.141 66.1684
7124.39 68.3017 64.1279
7127.19 67.9362 64.9877
7130 66.5666 61.4019
7132.8 69.163 66.6242
7135.6 68.911 65.3651
7138.4 74.0218 65.9112
7141.2 69.8944 67.1678
7144 68.8814 64.9537
7146.81 64.7243 62.0289
7149.61 66.9318 61.22
7152.41 69.0702 64.9552
7155.21 76.2351 71.3224
7158.01 66.3835 64.6373
7160.81 71.3245 66.4487
7163.61 66.5491 61.9987
7166.41 61.838 59.4166
7169.21 64.3925 57.7813
7172.01 61.201 59.4391
7174.81 60.504 53.214
7177.61 60.5063 55.9868
7180.41 61.2634 55.8413
7183.2 60.0394 56.7015
7186 60.7837 51.2929
7188.8 59.7406 55.7251
7191.6 55.5905 52.0047
7194.4 57.6771 52.2768
7197.2 61.7245 53.6947
7199.99 55.5318 53.8966
7202.79 66.5342 61.5007
7205.59 58.1221 56.6979
7208.39 60.5287 55.089
7211.18 68.3171 64.137
7213.98 63.3029 60.3795
7216.78 67.1543 62.2007
7219.57 66.6691 61.4532
7222.37 62.9722 56.4411
7225.17 62.27 60.1055
7227.96 60.8759 57.3239
7230.76 58.095 54.854
7233.55 68.7921 56.5899
7236.35 71.0354 58.8108
7239.14 42.4736 51.9005
7241.94 62.8296 52.3914
7244.73 59.0769 53.081
7247.53 58.9666 58.2396
7250.32 54.305 51.3192
7253.12 54.1124 58.2029
7255.91 59.5552 54.6475
7258.71 55.8166 52.0208
7261.5 58.5704 56.3989
7264.29 58.7784 54.8736
7267.09 54.2717 50.6642
7269.88 52.4719 55.5805
7272.67 39.4718 52.4
7275.47 42.2156 56.0915
7278.26 62.1706 58.0131
7281.05 52.0177 57.399
7283.84 59.6002 60.2763
7286.63 50.7676 57.6445
7289.43 58.7032 58.4103
7292.22 64.5578 60.5806
7295.01 60.2204 55.6839
7297.8 65.8747 58.3822
7300.59 61.8373 54.6038
7303.38 62.6718 56.8817
7306.17 57.1549 53.9912
7308.96 63.0112 56.8381
7311.76 50.8221 54.6695
7314.55 63.7651 56.661
7317.34 61.6989 60.7063
7320.13 63.3995 63.1146
7322.92 68.7251 64.7127
7325.7 68.3385 62.3769
7328.49 66.2424 58.8393
7331.28 63.9832 63.2204
7334.07 63.716 64.9204
7336.86 64.4296 55.7717
7339.65 51.7658 63.3016
7342.44 59.2542 61.1608
7345.23 53.3266 64.9805
7348.01 59.5395 64.0014
7350.8 59.7281 60.6549
7353.59 64.0369 57.0177
7356.38 67.6512 62.3771
7359.16 65.2131 62.0916
7361.95 65.1482 56.044
7364.74 64.0918 61.4534
7367.52 58.432 59.5189
7370.31 66.3287 63.7322
7373.1 65.3317 64.7611
7375.88 60.7497 59.6137
7378.67 66.6087 63.4394
7381.46 63.1596 61.6529
7384.24 62.7893 60.5742
7387.03 67.7376 60.5894
7389.81 72.2347 61.0696
7392.6 62.8282 60.0135
7395.38 68.1543 59.7337
7398.17 69.8168 62.1258
7400.95 64.7002 59
7403.73 73.2073 66.5738
7406.52 68.6074 64.6554
7409.3 68.6277 63.3163
7412.09 66.374 60.6631
7414.87 63.4228 59.3575
7417.65 64.9229 61.7416
7420.44 68.586 62.9297
7423.22 68.3922 59.8789
7426 68.9746 62.793
7428.78 69.6542 59.9
7431.57 65.4587 67.3014
7434.35 68.7699 62.442
7437.13 70.2869 63.1013
7439.91 75.2929 66.5246
7442.69 68.4837 64.4166
7445.48 72.4355 67.5416
7448.26 68.2231 65.3342
7451.04 71.8391 66.784
7453.82 67.3446 63.6085
7456.6 74.7975 65.6046
7459.38 70.271 64.3078
7462.16 71.1318 64.0869
7464.94 74.9743 67.4476
7467.72 70.7056 68.2671
7470.5 67.0706 58.4819
7473.28 71.4343 64.8431
7476.06 77.3013 68.4842
7478.84 73.5956 64.588
7481.62 74.3549 67.164
7484.39 66.47 64.4067
7487.17 60.9929 65.7958
7489.95 65.0046 69.2977
7492.73 67.8499 61.3372
7495.51 63.3605 63.3959
7498.28 63.8494 61.6662
7501.06 66.5897 64.986
7503.84 69.9251 64.1979
7506.62 66.2271 63.1725
7509.39 66.6557 67.6089
7512.17 66.1506 62.295
7514.95 69.3827 64.455
7517.72 60.8994 63.3239
7520.5 68.041 64.1851
7523.27 59.2766 61.0701
7526.05 57.2621 61.3558
7528.83 62.5385 68.7485
7531.6 61.9308 63.2714
7534.38 65.7566 63.2924
7537.15 61.5712 56.5004
7539.93 64.7641 60.9363
7542.7 64.9065 59.9484
7545.47 62.6305 60.3466
7548.25 61.5621 59.6807
7551.02 66.4326 58.7822
7553.8 61.4827 57.6036
7556.57 62.7798 58.7656
7559.34 62.4083 58.9137
7562.12 69.7725 65.1381
7564.89 65.3092 60.7114
7567.66 67.0755 62.3837
7570.43 59.1377 59.0068
7573.21 64.6677 58.7227
7575.98 61.1285 62.0273
7578.75 59.6471 57.288
7581.52 64.0747 62.1984
7584.29 58.9977 58.772
7587.07 61.22 58.1099
7589.84 55.3016 53.3345
7592.61 46.0768 42.7995
7595.38 26.4415 27.6596
7598.15 28.9467 23.3454
7600.92 20.6168 16.8729
7603.69 17.0575 15.3502
7606.46 22.4649 18.3535
7609.23 22.6492 21.037
7612 32.4251 28.6688
7614.77 42.2588 40.5142
7617.54 47.1066 38.8215
7620.31 43.4458 38.5548
7623.08 37.6624 37.7324
7625.84 37.0571 32.3682
7628.61 38.4329 31.4611
7631.38 37.165 33.9095
7634.15 37.3346 32.4592
7636.92 39.9415 36.1345
7639.68 45.4449 40.6414
7642.45 40.9147 38.4914
7645.22 44.8569 41.8998
7647.99 49.0276 41.2396
7650.75 46.3624 45.7376
7653.52 51.9942 50.0173
7656.28 51.6763 50.8604
7659.05 58.5368 53.258
7661.82 55.869 54.8688
7664.58 61.7396 52.1343
7667.35 59.3638 56.4437
7670.11 65.9879 59.405
7672.88 64.782 56.1137
7675.64 65.4821 58.9209
7678.41 65.2807 55.6074
7681.17 67.1391 59.0014
7683.94 62.6711 58.7257
7686.7 69.0694 58.1774
7689.47 78.6117 62.74
7692.23 67.5413 58.1282
7694.99 64.7572 58.1096
7697.76 65.2534 61.3297
7700.52 65.7967 60.3075
7703.28 62.759 55.7871
7706.04 70.4441 61.5861
7708.81 82.32 62.7351
7711.57 75.7154 57.0428
7714.33 52.8349 60.7141
7717.09 40.8954 58.8165
7719.85 40.7665 60.0486
7722.62 64.9266 61.1842
7725.38 58.6009 59.0902
7728.14 68.3153 62.6109
7730.9 67.8181 60.4453
7733.66 75.5497 62.5784
7736.42 69.9815 62.0537
7739.18 72.2111 60.9166
7741.94 62.6578 62.1816
7744.7 80.634 59.723
7747.46 73.1389 57.6501
7750.22 83.9003 60.0048
7752.98 46.8716 66.7934
7755.74 55.62 63.0188
7758.5 69.118 66.3729
7761.25 65.6608 64.1394
7764.01 66.2539 65.0123
7766.77 68.7438 65.1909
7769.53 76.3591 67.055
7772.29 73.0674 62.3736
7775.04 64.7944 58.95
7777.8 67.0207 54.7826
7780.56 65.4662 58.9526
7783.31 58.3285 60.2513
7786.07 68.194 60.9636
7788.83 60.667 61.1292
7791.58 74.7752 58.0313
7794.34 78.2029 66.2194
7797.1 54.4162 61.4148
7799.85 65.0964 61.7959
7802.61 73.4631 65.4994
7805.36 69.0618 55.4779
7808.12 78.0533 62.0119
7810.87 60.4116 65.3347
7813.63 51.8794 57.0882
7816.38 52.0937 55.2927
7819.13 78.4576 61.508
7821.89 74.0102 60.9683
7824.64 69.8736 64.5132
7827.4 62.4134 58.4812
7830.15 71.2983 62.6788
7832.9 69.2111 63.6938
7835.65 63.7351 59.4242
7838.41 68.0497 64.2923
7841.16 71.2698 64.4281
7843.91 73.8283 65.3834
7846.66 76.3571 65.4263
7849.42 79.4339 63.3391
7852.17 67.4913 62.4858
7854.92 56.5725 55.3319
7857.67 64.1964 55.3605
7860.42 66.7794 58.449
7863.17 62.8106 62.0301
7865.92 51.8351 58.7782
7868.67 58.4456 56.9721
7871.42 52.8664 60.3023
7874.17 76.614 66.5893
7876.92 53.3406 61.2031
7879.67 48.4882 63.7441
7882.42 46.3049 64.9811
7885.17 67.0876 54.8813
7887.92 74.1109 67.5311
7890.67 68.767 54.6923
7893.42 58.1931 63.1733
7896.16 59.8163 60.1681
7898.91 57.7565 63.5645
7901.66 67.3462 63.5233
7904.41 60.3344 58.3128
7907.15 59.6602 54.8755
7909.9 78.5622 65.3489
7912.65 31.6391 56.3558
7915.39 86.0819 62.6774
7918.14 76.2031 70.3472
7920.89 61.8881 60.6442
7923.63 55.6929 73.7687
7926.38 70.4092 66.8443
7929.12 76.344 61.8632
7931.87 67.1478 68.593
7934.62 76.6563 68.657
7937.36 61.9315 64.245
7940.1 70.5539 64.4649
7942.85 66.7962 60.538
7945.59 79.3216 65.605
7948.34 69.8227 61.7716
7951.08 60.6812 59.5515
7953.83 64.6863 62.7019
7956.57 53.1686 65.627
7959.31 66.2637 65.2083
7962.05 76.1615 61.6798
7964.8 71.451 62.797
7967.54 37.082 57.1279
7970.28 69.7034 65.6363
7973.02 65.9779 60.7691
7975.77 63.049 61.0737
7978.51 72.8024 66.465
7981.25 71.5943 66.9313
7983.99 56.7387 59.4264
7986.73 63.6235 66.175
7989.47 84.8116 61.1234
7992.21 85.0624 57.7247
7994.95 68.3889 61.2293
7997.69 63.8489 61.7329
8000.43 61.3351 63.0957
8003.17 61.1964 61.4247
8005.91 65.717 62.5191
8008.65 68.8956 61.463
8011.39 71.5007 66.0739
8014.13 61.647 63.016
8016.87 56.0411 58.4474
8019.61 68.2903 63.3767
8022.34 57.5778 55.6332
8025.08 64.6687 65.7545
8027.82 67.442 59.6276
8030.56 66.0146 68.6831
8033.29 49.7351 56.822
8036.03 55.0731 60.7721
8038.77 64.9527 61.0562
8041.51 62.4422 64.4628
8044.24 65.1215 61.7002
8046.98 58.6897 61.5149
8049.71 67.4623 59.0335
8052.45 71.104 67.3657
8055.18 65.0134 65.3534
8057.92 63.0026 60.0555
8060.65 65.0236 53.8262
8063.39 59.5667 62.4424
8066.12 66.4503 66.1458
8068.86 66.4802 67.5248
8071.59 66.9836 66.6235
8074.33 65.505 64.7735
8077.06 66.1456 61.1177
8079.79 67.4937 63.6727
8082.53 68.202 70.2864
8085.26 66.1166 70.1785
8087.99 69.9103 67.7311
8090.73 72.7659 71.7823
8093.46 72.459 66.2788
8096.19 65.7928 65.9713
8098.92 64.4725 64.5619
8101.65 59.8949 62.7386
8104.38 69.8899 64.666
8107.12 65.5452 64.0771
8109.85 59.2009 62.3174
8112.58 66.5898 65.2815
8115.31 62.4864 61.8157
8118.04 73.4191 69.7491
8120.77 62.4201 61.1362
8123.5 63.0549 61.577
8126.23 65.0907 63.4653
8128.96 59.8744 61.6217
8131.69 67.6569 65.0215
8134.42 60.2899 60.5985
8137.14 65.1011 61.3372
8139.87 58.8835 57.6959
8142.6 62.64 60.1106
8145.33 60.3701 57.0745
8148.06 64.6841 63.3792
8150.78 52.1257 61.439
8153.51 59.7388 58.2301
8156.24 56.0652 55.8964
8158.97 62.3032 58.9562
8161.69 54.8673 59.4596
8164.42 56.55 56.3436
8167.15 59.9442 58.7485
8169.87 62.6926 56.3678
8172.6 58.7751 59.1798
8175.32 57.1346 58.0974
8178.05 55.4988 62.3507
8180.77 65.3797 63.756
8183.5 56.4507 59.1304
8186.22 57.0914 55.8284
8188.95 59.1162 57.1149
8191.67 61.7518 62.7846
8194.4 58.9197 59.7639
8197.12 60.3833 59.7657
8199.84 61.2666 64.2296
8202.57 64.9905 65.8432
8205.29 67.6148 60.5667
8208.01 62.2354 60.0584
8210.73 59.6121 64.5633
8213.46 59.2547 59.8271
8216.18 66.1256 64.8372
8218.9 59.4832 57.9785
8221.62 59.9967 53.8762
8224.34 54.5426 56.001
8227.06 45.4298 44.7462
8229.79 55.2473 53.3884
8232.51 63.5735 60.0328
8235.23 62.5992 60.4365
8237.95 63.2503 61.6601
8240.67 76.6705 67.5498
8243.39 71.1584 67.4906
8246.11 63.552 67.284
8248.83 62.056 66.865
8251.54 61.3765 63.7491
8254.26 59.1414 59.5509
8256.98 62.5162 63.0934
8259.7 63.647 62.3353
8262.42 66.1266 63.1582
8265.14 62.4901 62.8629
8267.85 64.1015 64.7933
8270.57 67.0579 68.3431
8273.29 58.6734 64.0614
8276.01 68.516 65.4961
8278.72 62.9875 58.5999
8281.44 56.1964 49.7725
8284.16 66.3171 60.0318
8286.87 22.0658 56.8616
8289.59 58.8146 66.3336
8292.3 59.1474 68.0229
8295.02 63.6794 58.0827
8297.73 47.4453 68.4653
8300.45 76.2606 71.5261
8303.16 54.8418 65.5313
8305.88 62.5975 73.6857
8308.59 61.763 65.0943
8311.31 62.8353 67.8185
8314.02 65.6523 65.8586
8316.73 61.2293 59.3545
8319.45 57.7527 64.7355
8322.16 63.4957 67.577
8324.87 61.7596 66.7592
8327.58 59.7626 68.3585
8330.3 65.4807 66.1695
8333.01 56.8951 59.5733
8335.72 50.1064 62.2301
8338.43 58.734 62.6044
8341.14 72.2891 48.4574
8343.85 71.7422 56.0066
8346.56 82.837 74.0043
8349.28 5.86841 70.5343
8351.99 56.7979 78.5223
8354.7 59.783 50.7015
8357.41 63.8757 76.7675
8360.12 47.9667 63.6128
8362.82 64.9634 62.619
8365.53 72.6232 67.829
8368.24 74.1958 76.6205
8370.95 66.271 71.9247
8373.66 63.2311 73.8324
8376.37 59.0478 69.1002
8379.08 78.1464 70.8338
8381.78 71.8095 61.3601
8384.49 76.7372 62.5401
8387.2 64.861 65.1057
8389.91 54.4894 69.3633
8392.61 61.3513 72.9319
8395.32 89.5907 73.6984
8398.03 82.8867 66.9758
8400.73 83.9782 60.3528
8403.44 35.6933 71.6344
8406.14 36.6638 66.8555
8408.85 67.5986 68.1091
8411.55 74.0073 65.992
8414.26 69.8839 63.7506
8416.96 65.0051 60.9959
8419.67 57.8677 65.7185
8422.37 52.1977 71.7215
8425.08 60.0482 59.0404
8427.78 87.3382 65.8297
8430.48 72.9958 59.5648
8433.19 74.6311 65.5916
8435.89 34.3166 61.431
8438.59 60.3909 69.6198
8441.29 63.404 65.0253
8444 60.9316 66.5522
8446.7 56.2797 70.2688
8449.4 67.5577 63.2346
8452.1 61.7399 68.434
8454.8 62.129 69.5156
8457.5 55.6088 76.8625
8460.2 58.4603 65.2376
8462.91 79.1224 57.5256
8465.61 58.8116 57.1754
8468.31 56.9912 58.9547
8471.01 54.07 65.5766
8473.7 61.4539 70.1536
8476.4 53.511 66.4997
8479.1 64.2336 75.8872
8481.8 59.5405 65.1006
8484.5 60.3187 64.0455
8487.2 61.0392 70.2177
8489.9 65.0488 72.8096
8492.59 65.888 63.8659
8495.29 68.6568 65.5046
8497.99 63.0226 61.2508
8500.69 68.9228 71.6539
8503.38 71.7528 67.3077
8506.08 70.6755 64.2821
8508.78 65.6494 68.4717
8511.47 59.8386 56.7854
8514.17 57.8658 66.7249
8516.86 63.7167 77.1718
8519.56 60.2055 65.6084
8522.25 66.1276 69.9481
8524.95 65.4495 70.1945
8527.64 64.9896 67.3299
8530.34 66.0284 68.6112
8533.03 71.4474 73.185
8535.73 73.877 74.2935
8538.42 69.4302 70.456
8541.11 59.1635 66.6472
8543.81 73.1219 67.2531
8546.5 69.9006 73.762
8549.19 71.2521 70.5171
8551.89 67.801 73.2316
8554.58 60.8738 67.0412
8557.27 67.0737 65.6334
8559.96 65.9196 67.3255
8562.65 69.383 71.1516
8565.34 62.7069 65.6475
8568.03 61.6579 66.5457
8570.73 73.9994 74.2824
8573.42 70.5414 67.1477
8576.11 69.605 66.8214
8578.8 67.8447 66.0393
8581.49 61.3986 66.4174
8584.17 63.8157 69.9219
8586.86 68.7249 67.8856
8589.55 68.8236 74.9868
8592.24 68.5793 74.5586
8594.93 68.2562 72.142
8597.62 61.6174 66.3266
8600.31 68.0461 70.3006
8602.99 71.1354 70.663
8605.68 65.0535 67.122
8608.37 63.0231 63.2932
8611.06 68.6143 69.466
8613.74 65.8907 66.7919
8616.43 73.3349 70.2566
8619.11 69.6677 77.7892
8621.8 50.6817 63.8255
8624.49 70.3191 71.3413
8627.17 62.0645 65.9964
8629.86 56.1672 64.9332
8632.54 65.1236 65.7373
8635.23 44.7499 67.5651
8637.91 77.9896 81.1595
8640.6 57.0193 76.7288
8643.28 62.9408 71.5392
8645.96 70.9871 69.3445
8648.65 63.6889 62.776
8651.33 69.314 81.6197
8654.01 63.5214 69.8437
8656.69 54.7524 75.9938
8659.38 76.2308 72.1044
8662.06 63.8287 75.5534
8664.74 53.5395 69.2939
8667.42 59.6601 69.6187
8670.1 50.8914 62.8225
8672.79 57.9165 68.014
8675.47 54.3321 59.1912
8678.15 60.5602 68.6893
8680.83 60.4996 57.8749
8683.51 56.2191 64.5955
8686.19 61.1229 65.3277
8688.87 71.0416 70.1615
8691.55 70.4567 78.8995
8694.23 67.357 75.228
8696.9 64.5078 70.1448
8699.58 68.9525 72.5681
8702.26 76.558 83.7789
8704.94 66.9943 71.6646
8707.62 68.139 74.6855
8710.29 68.6141 73.5506
8712.97 62.5071 69.9139
8715.65 66.5005 73.6571
8718.33 61.9538 69.2301
8721 76.0119 82.0885
8723.68 71.1225 70.6931
8726.35 69.6904 75.1278
8729.03 71.5828 80.5315
8731.71 64.4215 66.9067
8734.38 61.7233 71.8272
8737.06 67.6648 74.3909
8739.73 68.2141 71.4859
8742.41 67.4634 70.0083
8745.08 74.544 82.6594
8747.75 67.735 77.7235
8750.43 65.3111 77.8096
8753.1 69.0201 75.0715
8755.77 65.5165 80.9397
8758.45 79.8152 96.986
8761.12 74.9017 77.016
8763.79 88.9936 96.8186
8766.46 92.3293 98.2154
8769.14 88.598 95.877
8771.81 66.839 81.0924
8774.48 63.1299 103.031
8777.15 65.9968 76.4813
8779.82 72.6298 66.5631
8782.49 71.4666 74.2304
8785.16 53.1221 86.9863
8787.83 52.4339 85.9023
8790.5 60.2897 72.5064
8793.17 64.4576 72.3382
8795.84 38.5573 65.9819
8798.51 38.2038 57.8048
8801.18 51.9882 71.0355
8803.85 58.5947 72.6257
8806.52 62.3737 77.0501
8809.18 61.4495 77.2087
8811.85 64.0877 77.9064
8814.52 67.4437 77.6067
8817.19 58.6388 74.072
8819.85 56.2878 84.5787
8822.52 51.6423 108.146
8825.19 98.5677 120.428
8827.85 100.142 113.883
8830.52 95.0845 71.4116
8833.18 43.88 55.9401
8835.85 62.0844 92.9286
8838.51 22.6002 62.1175
8841.18 53.1338 61.0648
8843.84 28.7145 74.8277
8846.51 42.5843 79.3031
8849.17 56.7642 87.6109
8851.84 60.5791 83.2301
8854.5 57.9491 86.4223
8857.16 67.821 82.9724
8859.83 60.1169 65.8866
8862.49 49.7163 80.684
8865.15 75.4924 99.9817
8867.81 60.3275 97.7017
8870.48 47.2691 85.3289
8873.14 45.9521 65.1218
8875.8 72.0831 82.7146
8878.46 57.2609 94.632
8881.12 64.5124 117.413
8883.78 83.5875 123.346
8886.44 91.3554 103.225
8889.1 96.9717 94.8116
8891.76 80.8295 65.0808
8894.42 50.8992 60.0937
8897.08 49.5374 84.586
8899.74 52.3116 106.866
8902.4 81.8813 95.5787
8905.06 78.0286 92.0295
8907.72 79.3733 72.8811
8910.37 63.8458 75.049
8913.03 59.9746 108.379
8915.69 47.4109 98.6675
8918.35 88.2015 130.582
8921 95.3872 94.6916
8923.66 71.8654 69.3591
8926.32 11.1068 37.3134
8928.97 43.1178 27.8289
8931.63 58.8122 75.1546
8934.28 54.2653 63.6941
8936.94 56.5857 85.6239
8939.59 52.5242 77.0843
8942.25 72.0278 90.5352
8944.9 63.8946 98.5493
8947.56 52.8179 65.1337
8950.21 44.4622 68.0241
8952.87 49.8388 88.5387
8955.52 56.7113 96.7996
8958.17 68.6831 103.116
8960.82 44.9839 102.956
8963.48 80.2704 65.5753
8966.13 39.5579 4.08278
8968.78 28.4278 14.3998
8971.43 49.7114 44.9187
8974.09 52.3238 54.0482
8976.74 52.4818 71.4643
8979.39 55.1254 66.6716
8982.04 57.0556 81.122
8984.69 57.5601 79.2411
8987.34 48.3494 70.5746
8989.99 58.5221 95.0505
8992.64 59.2252 74.0189
8995.29 37.4574 58.8294
8997.94 54.3553 84.9676
9000.59 64.5771 97.1165
9003.23 70.2946 98.2165
9005.88 58.2051 109.709
9008.53 18.0931 48.6737
9011.18 45.9453 16.1585
9013.83 52.5764 50.7915
9016.47 52.1844 53.5981
9019.12 61.5904 58.998
9021.77 56.4164 73.6162
9024.41 61.1523 75.6031
9027.06 56.0598 81.6409
9029.71 60.0521 90.6475
9032.35 60.6029 83.5804
9035 62.6321 81.7932
9037.64 59.8174 94.4582
9040.29 59.7471 103.207
9042.93 50.1958 80.1523
9045.58 59.1879 73.614
9048.22 53.4079 81.0778
9050.86 59.2065 88.9519
9053.51 64.8226 88.179
9056.15 57.7586 85.3744
9058.79 61.0027 63.5226
9061.44 57.1818 50.801
9064.08 62.4103 71.6199
9066.72 66.5447 90.73
