wavelength spectrum_sum 3smoothed_sum spectrum_optimal 3smoothed_optimal
3507.1 35.499 19.6633 36.964 20.4458
3510.01 23.491 32.5822 24.3734 34.4968
3512.93 38.7566 30.9333 42.1528 34.241
3515.85 30.5524 32.6136 36.1967 35.9266
3518.76 28.5319 31.9057 29.4302 33.2945
3521.68 36.633 29.352 34.2567 27.3639
3524.6 22.8913 28.5825 18.4047 26.3445
3527.51 26.2232 25.8394 26.3722 24.5046
3530.43 28.4037 24.742 28.737 25.6554
3533.35 19.5992 28.4753 21.857 29.3028
3536.26 37.4232 24.2642 37.3143 22.664
3539.18 15.7703 29.481 8.8207 28.2117
3542.1 35.2497 26.3106 38.5 27.8236
3545.02 27.9119 29.881 36.1502 33.5979
3547.93 26.4813 38.4008 26.1434 33.525
3550.85 60.8093 53.0744 38.2816 40.9449
3553.77 71.9326 60.5015 58.4097 46.6935
3556.68 48.7627 52.2703 43.3892 46.8101
3559.6 36.1156 46.4657 38.6314 42.3045
3562.52 54.5188 41.2404 44.8929 40.5067
3565.43 33.0868 41.6255 37.9957 39.8941
3568.35 37.2708 45.2049 36.7936 44.9898
3571.27 65.2572 42.6848 60.1801 40.4117
3574.18 25.5263 45.7045 24.2614 40.4983
3577.1 46.33 39.1155 37.0535 34.6088
3580.02 45.4903 43.4021 42.5116 38.7389
3582.93 38.386 44.8349 36.6516 42.5737
3585.85 50.6285 44.4852 48.5579 43.8575
3588.77 44.4411 47.5388 46.3629 48.8556
3591.68 47.547 46.7909 51.646 48.5461
3594.6 48.3847 47.9204 47.6293 49.095
3597.52 47.8295 55.2656 48.0096 53.8767
3600.44 69.5827 61.1317 65.9912 59.3754
3603.35 65.983 59.4584 64.1254 60.106
3606.27 42.8097 53.7741 50.2015 57.8997
3609.19 52.5296 42.8044 59.3723 49.6129
3612.1 33.0738 45.4584 39.2649 50.7121
3615.02 50.7718 49.5078 53.499 53.1198
3617.94 64.6777 51.9128 66.5955 56.1975
3620.85 40.289 55.6653 48.4979 59.4316
3623.77 62.0293 51.1574 63.2015 49.5544
3626.69 51.1538 50.7699 36.9638 45.5253
3629.6 39.1265 50.1788 36.4106 44.9947
3632.52 60.256 45.4195 61.6096 48.0429
3635.44 36.876 52.4275 46.1084 53.0044
3638.35 60.1505 55.3294 51.2952 53.6331
3641.27 68.9616 54.0456 63.4956 45.4389
3644.18 33.0247 53.3157 21.5258 46.5879
3647.1 57.9607 49.105 54.7424 42.18
3650.02 56.3295 54.1588 50.2719 49.0567
3652.93 48.1861 50.1328 42.1558 46.1752
3655.85 45.8827 47.9555 46.098 40.6036
3658.77 49.7978 58.9982 33.557 53.2952
3661.68 81.3142 66.3648 80.2307 61.1929
3664.6 67.9824 74.3089 69.7909 70.9503
3667.52 73.6301 66.5966 62.8293 65.5757
3670.43 58.1772 57.9699 64.1068 55.3047
3673.35 42.1024 51.608 38.9779 49.5017
3676.27 54.5444 45.9528 45.4204 42.9554
3679.18 41.2117 50.9813 44.4679 47.5566
3682.1 57.1878 56.3529 52.7815 54.9706
3685.02 70.6593 63.1836 67.6624 64.112
3687.93 61.7036 64.831 71.8919 64.386
3690.85 62.1302 59.4209 53.6036 58.9165
3693.76 54.4288 64.7217 51.2539 59.9015
3696.68 77.6063 59.8309 74.8472 54.0951
3699.6 47.4577 73.8914 36.1841 65.7869
3702.51 96.6103 78.08 86.3294 66.8071
3705.43 90.1722 84.6787 77.9076 75.8224
3708.35 67.2536 71.2783 63.2303 61.7529
3711.26 56.4092 72.7848 44.1208 63.1263
3714.18 94.6917 69.5649 82.0279 55.2458
3717.1 57.5937 77.0303 39.5886 65.1089
3720.01 78.8054 73.8932 73.7101 59.3771
3722.93 85.2805 75.5044 64.8325 68.9935
3725.84 62.4274 76.7762 68.4379 63.5164
3728.76 82.6208 73.0621 57.2788 66.8509
3731.68 74.1379 71.6449 74.8361 61.7169
3734.59 58.1759 69.0082 53.0357 65.1287
3737.51 74.7107 66.3975 67.5144 55.7002
3740.42 66.3059 80.2015 46.5505 67.6703
3743.34 99.5879 75.6208 88.9459 63.6233
3746.26 60.9687 87.9068 55.3735 81.979
3749.17 103.164 87.7326 101.618 85.1804
3752.09 99.0652 90.2338 98.5502 87.9159
3755 68.4724 90.9451 63.5798 89.5309
3757.92 105.298 97.1712 106.463 99.694
3760.84 117.743 107.367 129.04 108.319
3763.75 99.0584 101.382 89.4544 97.4355
3766.67 87.3439 89.9778 73.8127 83.8512
3769.58 83.5311 92.4216 88.2865 93.1731
3772.5 106.39 102.604 117.42 106.309
3775.42 117.892 112.842 113.221 114.618
3778.33 114.246 113.231 113.211 117.771
3781.25 107.557 125.657 126.881 132.054
3784.16 155.169 128.656 156.071 138.894
3787.08 123.244 131.046 133.731 134.371
3790 114.727 114.177 113.311 124.146
3792.91 104.561 108.765 125.396 116.68
3795.83 107.009 100.834 111.333 110.146
3798.74 90.9334 95.1946 93.7102 94.4928
3801.66 87.6415 95.6719 78.4353 94.3422
3804.57 108.441 103.652 110.881 96.62
3807.49 114.875 106.197 100.543 99.7479
3810.41 95.2756 104.761 87.8192 92.0994
3813.32 104.133 112.443 87.9357 100.968
3816.24 137.919 126.047 127.148 115.854
3819.15 136.089 140.187 132.479 131.807
3822.07 146.553 133.394 135.794 129.344
3824.98 117.54 123.685 119.757 120.405
3827.9 106.961 124.621 105.663 123.257
3830.82 149.362 128.745 144.351 124.577
3833.73 129.914 142.029 123.717 134.023
3836.65 146.81 158.12 134.002 145.515
3839.56 197.635 167.357 178.827 157.575
3842.48 157.624 167.225 159.896 167.358
3845.39 146.414 142.443 163.352 147.889
3848.31 123.292 144.742 120.42 143.81
3851.22 164.52 140.748 147.657 129.971
3854.14 134.433 150.792 121.836 138.755
3857.05 153.422 141.527 146.772 133.223
3859.97 136.727 146.315 131.06 140.36
3862.89 148.796 141.353 143.249 137.646
3865.8 138.535 148.881 138.63 145.526
3868.72 159.313 146.486 154.698 142.496
3871.63 141.611 153.531 134.159 145.451
3874.55 159.67 148.387 147.495 134.664
3877.46 143.881 145.638 122.339 133.325
3880.38 133.363 138.327 130.141 130.485
3883.29 137.737 152.179 138.975 146.577
3886.21 185.438 143.032 170.614 141.189
3889.12 105.921 135.348 113.977 135.979
3892.04 114.684 115.67 123.345 116.741
3894.95 126.405 129.699 112.899 125.785
3897.87 148.008 131.411 141.109 120.526
3900.78 119.819 142.024 107.571 131.039
3903.7 158.244 145.968 144.439 133.753
3906.61 159.842 180.648 149.251 168.37
3909.53 223.86 183.956 211.421 177.084
3912.44 168.166 214.37 170.582 207.124
3915.36 251.084 215.787 239.37 210.093
3918.27 228.111 230.613 220.328 219.717
3921.19 212.644 212.918 199.453 206.953
3924.1 198 190.877 201.077 184.51
3927.02 161.986 179.286 153 177.482
3929.93 177.871 169.53 178.368 165.967
3932.85 168.733 169.214 166.532 163.968
3935.76 161.038 167.217 147.005 161.666
3938.68 171.88 157.607 171.461 152.709
3941.59 139.902 160.913 139.663 153.552
3944.51 170.957 165.57 149.533 157.463
3947.42 185.849 188.363 183.192 179.804
3950.33 208.284 204.988 206.685 204.845
3953.25 220.832 201.013 224.659 198.785
3956.16 173.925 190.325 165.012 190.897
3959.08 176.219 183.562 183.019 183.477
3961.99 200.541 192.05 202.4 184.713
3964.91 199.389 190.033 168.719 184.758
3967.82 170.17 197.072 183.156 188.839
3970.74 221.657 190.1 214.64 197.69
3973.65 178.473 199.891 195.275 203.818
3976.56 199.542 192.383 201.538 201.513
3979.48 199.134 190.827 207.725 193.488
3982.39 173.804 184.127 171.2 182.389
3985.31 179.442 167.911 168.241 162.693
3988.22 150.487 166.914 148.639 159.624
3991.14 170.812 169.215 161.992 165.94
3994.05 186.346 185.496 187.189 181.37
3996.96 199.329 192.262 194.929 186.811
3999.88 191.112 194.129 178.315 188.098
4002.79 191.948 203.688 191.049 189.803
4005.71 228.004 204.461 200.046 192.283
4008.62 193.431 222.859 185.754 206.99
4011.53 247.141 222.881 235.169 220.496
4014.45 228.072 228.098 240.564 222.109
4017.36 209.082 215.385 190.593 211.065
4020.28 209.002 213.034 202.037 198.034
4023.19 221.019 195.022 201.472 186.196
4026.1 155.046 178.942 155.077 174.894
4029.02 160.761 176.43 168.132 167.504
4031.93 213.484 181.987 179.302 181.537
4034.85 171.718 208.918 197.176 209.677
4037.76 241.552 207.612 252.554 216.251
4040.67 209.567 243.92 199.025 240.422
4043.59 280.639 243.98 269.686 233.527
4046.5 241.734 260.858 231.87 252.607
4049.41 260.201 257.513 256.265 254.765
4052.33 270.604 283.182 276.16 281.215
4055.24 318.74 291.071 311.219 281.784
4058.16 283.869 291.398 257.972 284.116
4061.07 271.585 278.863 283.157 269.524
4063.98 281.134 276.825 267.442 277.94
4066.9 277.757 282.35 283.219 277.896
4069.81 288.158 293.165 283.027 287.921
4072.72 313.58 308.785 297.518 305.546
4075.64 324.618 312.181 336.093 308.344
4078.55 298.346 318.185 291.42 319.127
4081.46 331.591 320.679 329.868 318.569
4084.38 332.099 337.651 334.418 339.691
4087.29 349.263 339.638 354.786 332.672
4090.2 337.551 340.276 308.811 325.898
4093.12 334.016 335.733 314.097 317.262
4096.03 335.633 336.589 328.879 325.932
4098.94 340.117 320.281 334.819 314.017
4101.86 285.094 329.296 278.354 323.696
4104.77 362.678 324.29 357.916 313.888
4107.68 325.097 348.189 305.394 333.489
4110.59 356.792 348.289 337.158 332.303
4113.51 362.979 346.737 354.356 335.348
4116.42 320.44 346.573 314.53 331.883
4119.33 356.299 317.38 326.762 304.31
4122.25 275.402 324.265 271.639 316.184
4125.16 341.095 306.556 350.152 305.996
4128.07 303.173 344.645 296.197 334.621
4130.98 389.669 329.551 357.513 308.952
4133.9 295.813 348.177 273.145 335.236
4136.81 359.048 338.341 375.049 344.312
4139.72 360.16 348.816 384.742 363.341
4142.63 327.238 354.646 330.231 361.336
4145.55 376.541 354.124 369.036 346.64
4148.46 358.592 356.943 340.654 350.568
4151.37 335.697 346.324 342.015 339.327
4154.28 344.683 348.368 335.311 350.547
4157.2 364.723 343.578 374.315 337.83
4160.11 321.329 349.462 303.864 350.504
4163.02 362.335 332.536 373.333 331.559
4165.93 313.944 344.978 317.481 350.645
4168.85 358.656 342.451 361.121 346.229
4171.76 354.752 354.761 360.083 361.436
4174.67 350.875 364.282 363.104 362.635
4177.58 387.218 373.738 364.719 368.555
4180.5 383.121 384.017 377.843 374.242
4183.41 381.713 378.689 380.164 372.27
4186.32 371.233 377.053 358.803 367.637
4189.23 378.214 386.266 363.943 370.233
4192.14 409.35 388.468 387.951 381.755
4195.06 377.841 378.563 393.37 375.891
4197.97 348.499 372.42 346.35 371.57
4200.88 390.919 379.202 374.989 372.979
4203.79 398.19 396.286 397.597 399.065
4206.7 399.748 391.313 424.61 398.038
4209.61 376.001 388.025 371.908 395.656
4212.53 388.326 399.299 390.451 399.924
4215.44 433.57 406.505 437.413 401.802
4218.35 397.619 415.101 377.543 410.661
4221.26 414.115 414.678 417.028 409.351
4224.17 432.301 411.505 433.481 405.58
4227.08 388.099 406.394 366.231 395.526
4230 398.781 389.729 386.867 382.914
4232.91 382.308 401.003 395.646 398.683
4235.82 421.921 401.279 413.538 405.216
4238.73 399.607 420.295 406.464 423.215
4241.64 439.357 428.731 449.643 427.791
4244.55 447.23 434.135 427.267 431.108
4247.46 415.817 432.724 416.415 426.814
4250.38 435.125 419.08 436.759 416.769
4253.29 406.298 424.023 397.132 419.57
4256.2 430.648 413.364 424.817 407.265
4259.11 403.147 410.347 399.846 406.924
4262.02 397.248 394.682 396.108 399.168
4264.93 383.651 410.391 401.549 419.541
4267.84 450.275 412.243 460.965 420.697
4270.75 402.804 410.133 399.576 415.888
4273.66 377.321 403.104 387.124 407.876
4276.57 429.187 403.314 436.928 408.072
4279.49 403.433 404.64 400.164 403.429
4282.4 381.3 423.314 373.196 422.623
4285.31 485.21 446.345 494.508 447.945
4288.22 472.526 482.53 476.132 482.044
4291.13 489.855 462.487 475.491 465.889
4294.04 425.08 453.245 446.044 453.292
4296.95 444.801 429.272 438.339 440.822
4299.86 417.935 447.306 438.082 458.211
4302.77 479.181 448.219 498.213 463.199
4305.68 447.541 467.117 453.301 472.868
4308.59 474.631 456.12 467.089 458.466
4311.5 446.188 475.137 455.007 479.593
4314.41 504.59 473.823 516.683 479.755
4317.32 470.691 478.509 467.576 485.162
4320.23 460.247 470.707 471.226 465.114
4323.14 481.183 484.285 456.54 481.425
4326.05 511.426 480.053 516.511 473.322
4328.96 447.55 480.811 446.915 493.745
4331.87 483.456 484.643 517.807 488.695
4334.78 522.922 506.098 501.361 502.664
4337.69 511.916 499.071 488.824 484.118
4340.6 462.374 479.338 462.171 467.233
4343.51 463.724 457.686 450.704 454.78
4346.42 446.959 454.127 451.466 449.623
4349.33 451.698 456.849 446.7 453.168
4352.24 471.89 472.737 461.336 469.366
4355.15 494.622 491.376 500.062 495.096
4358.06 507.615 478.886 523.889 489.782
4360.97 434.421 462.761 445.395 476.351
4363.88 446.245 439.699 459.768 448.898
4366.79 438.431 448.852 441.53 459.323
4369.7 461.88 442.672 476.672 451.41
4372.61 427.705 448.356 436.028 453.408
4375.52 455.482 445.221 447.525 446.587
4378.43 452.475 483.145 456.208 481.97
4381.34 541.478 503.984 542.177 508.17
4384.25 517.998 515.506 526.127 523.665
4387.15 487.041 503.217 502.692 509.081
4390.06 504.612 500.933 498.425 511.918
4392.97 511.147 515.031 534.636 523.067
4395.88 529.333 518.049 536.14 521.812
4398.79 513.668 508.946 494.661 510.363
4401.7 483.837 501.325 500.289 504.447
4404.61 506.471 502.93 518.39 521.041
4407.52 518.482 528.653 544.444 537.763
4410.43 561.008 532.319 550.455 540.333
4413.34 517.469 510.264 526.099 510.953
4416.24 452.316 502.632 456.306 512.64
4419.15 538.111 511.291 555.516 523.771
4422.06 543.447 557.215 559.492 575.514
4424.97 590.087 564.454 611.535 573.778
4427.88 559.827 572.771 550.307 574.039
4430.79 568.399 566.017 560.276 571.478
4433.7 569.826 557.988 603.852 568.675
4436.6 535.738 571.075 541.898 586.184
4439.51 607.66 580.016 612.802 579.96
4442.42 596.649 592.683 585.181 590.513
4445.33 573.74 562.044 573.557 554.698
4448.24 515.742 528.253 505.356 529.694
4451.14 495.277 522.812 510.169 525.825
4454.05 557.418 548.507 561.95 559.795
4456.96 592.827 574.302 607.268 581.77
4459.87 572.66 577.334 576.093 589.592
4462.78 566.515 591.595 585.415 596.4
4465.68 635.61 563.205 627.692 564.927
4468.59 487.491 567.783 481.674 562.785
4471.5 580.249 543.038 578.99 540.986
4474.41 561.375 590.356 562.294 592.473
4477.32 629.444 596.739 636.134 607.382
4480.22 599.399 622.759 623.718 638.408
4483.13 639.434 599.746 655.371 614.847
4486.04 560.405 595.419 565.453 608.115
4488.95 586.418 571.134 603.521 585.68
4491.85 566.58 590.114 588.067 600.142
4494.76 617.343 581.982 608.836 583.7
4497.67 562.022 610.345 554.196 607.613
4500.58 651.671 592.931 659.806 596.279
4503.48 565.099 631.062 574.835 643.098
4506.39 676.415 603.872 694.653 623.495
4509.3 570.1 618.462 600.999 648.738
4512.2 608.872 616.461 650.563 644.836
4515.11 670.411 640.032 682.947 666.935
4518.02 640.814 664.331 667.295 685.563
4520.92 681.768 648.395 706.448 670.225
4523.83 622.604 650.973 636.932 676.537
4526.74 648.547 616.352 686.231 633.215
4529.65 577.906 634.391 576.481 645.755
4532.55 676.72 645.238 674.554 653.755
4535.46 681.089 677.811 710.231 690.402
4538.37 675.624 650.534 686.421 667.77
4541.27 594.889 636.38 606.657 649.68
4544.18 638.627 614.729 655.961 628.388
4547.08 610.672 630.964 622.546 646.396
4549.99 643.593 645.684 660.68 659.518
4552.9 682.789 660.803 695.327 675.16
4555.8 656.028 671.069 669.474 690.061
4558.71 674.391 682.053 705.383 694.472
4561.62 715.739 697.703 708.558 709.717
4564.52 702.977 672.23 715.212 681.076
4567.43 597.973 659.577 619.459 668.268
4570.33 677.779 660.792 670.134 669.353
4573.24 706.622 693.776 718.467 700.015
4576.15 696.927 703.71 711.442 725.152
4579.05 707.58 718.532 745.546 744.991
4581.96 751.09 670.611 777.984 712.209
4584.86 553.164 664.038 613.095 708.666
4587.77 687.861 626.824 734.919 666.383
4590.67 639.446 653.201 651.136 682.09
4593.58 632.295 634.965 660.214 650.389
4596.49 633.153 646.611 639.817 665.053
4599.39 674.386 663.995 695.128 676.893
4602.3 684.445 655.625 695.733 661.45
4605.2 608.045 660.646 593.488 664.297
4608.11 689.447 637.382 703.671 646.965
4611.01 614.653 655.893 643.737 677.502
4613.92 663.579 651.088 685.097 669.16
4616.82 675.031 670.073 678.645 686.886
4619.73 671.607 656.366 696.916 677.335
4622.63 622.459 639.556 656.443 665.592
4625.54 624.602 634.917 643.417 656.63
4628.44 657.69 650.295 670.029 650.26
4631.35 668.592 641.857 637.335 642.055
4634.25 599.29 640.957 618.8 645.546
4637.16 654.989 656.807 680.504 664.642
4640.06 716.143 700.658 694.621 711.129
4642.97 730.841 706.823 758.261 718.25
4645.87 673.485 704.354 701.869 724.607
4648.77 708.737 664.659 713.691 688.764
4651.68 611.755 672.169 650.73 689.855
4654.58 696.016 650.905 705.143 677.803
4657.49 644.944 662.42 677.537 677.256
4660.39 646.3 644.284 649.089 667.515
4663.3 641.609 647.904 675.918 655.37
4666.2 655.804 648.689 641.103 663.712
4669.1 648.653 640.076 674.116 644.615
4672.01 615.771 663.908 618.625 673.863
4674.91 727.3 671.76 728.848 678.015
4677.82 672.208 686.919 686.572 694.754
4680.72 661.251 701.09 668.84 718.281
4683.62 769.811 707.668 799.432 739.988
4686.53 691.943 729.87 751.691 759.014
4689.43 727.855 695.005 725.918 721.652
4692.33 665.217 703.263 687.348 710.734
4695.24 716.717 682.026 718.936 694.947
4698.14 664.143 724.718 678.556 744.209
4701.04 793.294 751.013 835.135 781.894
4703.95 795.601 762.469 831.99 799.06
4706.85 698.51 750.427 730.056 782.587
4709.75 757.169 739.191 785.714 765.369
4712.66 761.892 729.648 780.337 759.458
4715.56 669.883 704.819 712.323 745.153
4718.46 682.683 691.62 742.799 737.092
4721.37 722.295 721.15 756.153 769.629
4724.27 758.474 732.662 809.934 768.265
4727.17 717.218 715.412 738.708 752.859
4730.08 670.545 665.911 709.935 705.009
4732.98 609.969 648.674 666.383 693.715
4735.88 665.507 640.004 704.828 694.107
4738.78 644.536 686.555 711.11 741.299
4741.69 749.622 707.872 807.96 757.63
4744.59 729.457 727.002 753.821 768.278
4747.49 701.927 722.383 743.054 761.412
4750.39 735.764 702.475 787.362 744.76
4753.29 669.733 688.224 703.863 732.655
4756.2 659.176 683.796 706.74 731.584
4759.1 722.48 701.105 784.148 756.275
4762 721.659 718.299 777.939 765.41
4764.9 710.758 709.605 734.143 753.82
4767.81 696.397 697.608 749.377 728.603
4770.71 685.67 712.767 702.287 753.087
4773.61 756.235 712.828 807.598 747.744
4776.51 696.579 731.259 733.347 774.839
4779.41 740.965 705.426 783.573 752.862
4782.31 678.734 701.162 741.666 757.275
4785.22 683.789 706.862 746.587 763.42
4788.12 758.064 737.105 802.009 796.047
4791.02 769.463 759.103 839.545 815.963
4793.92 749.781 724.044 806.334 785.131
4796.82 652.889 717.759 709.515 776.493
4799.72 750.607 709.285 813.629 767.859
4802.62 724.36 757.495 780.434 821.771
4805.52 797.517 760.619 871.249 824.336
4808.43 759.98 775.479 821.324 836.794
4811.33 768.941 749.202 817.808 809.865
4814.23 718.685 749.341 790.461 812.344
4817.13 760.396 751.726 828.762 815.138
4820.03 776.098 756.105 826.192 817.705
4822.93 731.822 757.014 798.162 811.121
4825.83 763.124 770.958 809.009 831.274
4828.73 817.93 789.997 886.651 845.18
4831.63 788.937 788.173 839.88 847.118
4834.53 757.652 761.473 814.823 811.032
4837.43 737.831 774.24 778.392 819.15
4840.33 827.236 775.784 864.234 826.178
4843.23 762.285 792.405 835.907 854.447
4846.13 787.693 766.694 863.201 838.833
4849.03 750.105 775.37 817.393 842.325
4851.93 788.312 772.217 846.382 830.922
4854.83 778.232 803.367 828.99 859.569
4857.73 843.558 782.216 903.334 844.82
4860.63 724.857 774.657 802.136 841.094
4863.53 755.556 767.845 817.813 837.162
4866.43 823.121 777.333 891.538 842.659
4869.33 753.322 782.905 818.626 837.433
4872.23 772.271 754.363 802.134 812.342
4875.13 737.495 765.778 816.267 825.372
4878.03 787.57 752.495 857.715 830.956
4880.93 732.42 774.554 818.885 845.771
4883.83 803.673 783.466 860.712 852.569
4886.73 814.305 816.078 878.109 882.454
4889.63 830.255 836.269 908.541 908.413
4892.53 864.247 810.68 938.589 889.256
4895.42 737.538 829.93 820.638 912.218
4898.32 888.005 819.21 977.426 902.63
4901.22 832.087 868.056 909.826 954.926
4904.12 884.074 838.131 977.526 915.025
4907.02 798.232 837.863 857.722 908.349
4909.92 831.284 813.408 889.799 880.821
4912.82 810.708 819.551 894.942 892.378
4915.72 816.66 842.235 892.393 926.855
4918.61 899.337 830.363 993.229 908.514
4921.51 775.093 808.807 839.919 887.872
4924.41 751.991 774.326 830.467 841.343
4927.31 795.893 778.263 853.645 846.945
4930.21 786.903 806.382 856.724 880.886
4933.1 836.349 813.094 932.289 889.975
4936 816.029 810.162 880.911 878.761
4938.9 778.108 797.109 823.081 858.234
4941.8 797.19 775.833 870.709 839.663
4944.7 752.203 778.066 825.198 852.043
4947.59 784.807 778.901 860.221 853.65
4950.49 799.692 795.138 875.53 868.438
4953.39 800.915 803.823 869.562 875.096
4956.29 810.862 780.857 880.196 847.818
4959.18 730.792 769.952 793.696 830.432
4962.08 768.201 776.036 817.405 840.495
4964.98 829.115 821.262 910.383 886.436
4967.88 866.471 863.827 931.519 942.67
4970.77 895.894 855.173 986.109 936.108
4973.67 803.154 848.275 890.698 932.944
4976.57 845.777 836.853 922.025 919.127
4979.46 861.629 863.667 944.659 941.816
4982.36 883.596 877.578 958.766 965.299
4985.26 887.509 901.806 992.473 984.998
4988.15 934.313 879.485 1003.76 955.37
4991.05 816.635 858.798 869.88 923.81
4993.95 825.447 842.193 897.795 910.677
4996.84 884.496 856.092 964.357 936.509
4999.74 858.334 886.526 947.374 977.287
5002.64 916.75 884.695 1020.13 982.333
5005.53 879.003 898.051 979.495 991.602
5008.43 898.401 878.894 975.183 962.78
5011.32 859.278 876.452 933.661 958.359
5014.22 871.676 881.885 966.232 970.642
5017.12 914.7 904.483 1012.03 1010.82
5020.01 927.074 932.23 1054.21 1041.79
5022.91 954.915 941.617 1059.13 1045.53
5025.8 942.864 922.068 1023.27 1010.43
5028.7 868.425 890.135 948.894 971.804
5031.59 859.115 897.701 943.25 984.118
5034.49 965.563 926.854 1060.21 1021.61
5037.39 955.884 944.471 1061.36 1031.51
5040.28 911.965 942.517 972.96 1026.58
5043.18 959.701 954.614 1045.43 1036.34
5046.07 992.174 976.47 1090.65 1067.06
5048.97 977.535 991.567 1065.11 1091.43
5051.86 1004.99 963.261 1118.55 1061.97
5054.76 907.258 955.985 1002.25 1054.89
5057.65 955.706 932.325 1043.86 1026.07
5060.55 934.009 953.738 1032.08 1044.57
5063.44 971.497 968.9 1057.78 1072.49
5066.34 1001.19 978.558 1127.6 1083.15
5069.23 962.982 983.698 1064.07 1089.81
5072.12 986.917 964.353 1077.76 1064.31
5075.02 943.162 979.758 1051.11 1078.53
5077.91 1009.2 977.084 1106.72 1072.71
5080.81 978.894 1000.51 1060.29 1094.18
5083.7 1013.45 995.445 1115.53 1088.42
5086.6 993.988 1002.29 1089.43 1102.73
5089.49 999.422 995.758 1103.23 1098.31
5092.38 993.866 1007.76 1102.26 1104.61
5095.28 1029.99 1016.11 1108.35 1115.73
5098.17 1024.47 1008.97 1136.56 1108.46
5101.06 972.463 998.917 1080.48 1104.82
5103.96 999.814 1012.39 1097.43 1113.4
5106.85 1064.89 1026.3 1162.28 1123.61
5109.74 1014.2 1031.81 1111.11 1132.74
5112.64 1016.34 1028.55 1124.84 1127.55
5115.53 1055.1 1001.89 1146.71 1103.16
5118.42 934.223 992.695 1037.93 1101.01
5121.32 988.757 994.307 1118.38 1110.99
5124.21 1059.94 1026.67 1176.66 1136.62
5127.1 1031.3 1020.48 1114.84 1117.03
5130 970.202 1007.59 1059.58 1105.46
5132.89 1021.26 1029.34 1141.96 1136.26
5135.78 1096.55 1035.6 1207.25 1141.03
5138.67 988.997 1049.1 1073.89 1154.02
5141.57 1061.76 1027.3 1180.91 1136.99
5144.46 1031.15 1045.36 1156.18 1160.65
5147.35 1043.17 1045.39 1144.85 1164.16
5150.24 1061.84 1059.08 1191.45 1166.18
5153.14 1072.22 1073.05 1162.24 1183.02
5156.03 1085.08 1074.66 1195.36 1180.7
5158.92 1066.68 1049.36 1184.49 1158.61
5161.81 996.341 1025.48 1095.98 1133.01
5164.7 1013.43 1021.15 1118.55 1127.33
5167.6 1053.67 1015.91 1167.46 1117.92
5170.49 980.639 1045.89 1067.76 1145.53
5173.38 1103.36 1050.98 1201.39 1150.99
5176.27 1068.93 1066.72 1183.81 1178.81
5179.16 1027.86 1060.67 1151.24 1176.32
5182.05 1085.21 1067.85 1193.91 1191.52
5184.94 1090.49 1095.84 1229.4 1220.73
5187.84 1111.81 1097.1 1238.89 1227.04
5190.73 1089 1120.25 1212.82 1244.58
5193.62 1159.96 1102.19 1282.04 1222.84
5196.51 1057.63 1099.85 1173.65 1221.72
5199.4 1081.98 1079.68 1209.47 1198.8
5202.29 1099.44 1071 1213.29 1190.36
5205.18 1031.57 1064.56 1148.32 1187.31
5208.07 1062.67 1046.98 1200.34 1171.72
5210.96 1046.69 1074.48 1166.52 1198.48
5213.85 1114.07 1079.1 1228.6 1203.84
5216.74 1076.54 1102.06 1216.41 1220.36
5219.63 1115.58 1060.53 1216.08 1174.7
5222.52 989.466 1046.19 1091.6 1147.65
5225.41 1033.51 1040.02 1135.29 1143.13
5228.3 1097.09 1055.67 1202.51 1163.97
5231.19 1036.41 1053.91 1154.09 1164.86
5234.08 1028.24 1036.48 1137.98 1158.6
5236.97 1044.79 1049.8 1183.73 1175.07
5239.86 1076.39 1062.6 1203.49 1193.07
5242.75 1066.64 1063.75 1191.98 1195.38
5245.64 1048.24 1049.81 1190.68 1174.55
5248.53 1034.55 1032.6 1141 1149.1
5251.42 1015.01 1012.5 1115.63 1115.39
5254.31 987.93 1007.78 1089.53 1111.86
5257.2 1020.4 1030.35 1130.41 1139.99
5260.09 1082.72 1073.4 1200.01 1180.08
5262.98 1117.06 1087.06 1209.82 1200.16
5265.86 1061.38 1057.94 1190.65 1178.43
5268.75 995.377 1030 1134.82 1158.82
5271.64 1033.22 1049.61 1150.97 1174.65
5274.53 1120.23 1063.52 1238.15 1178.16
5277.42 1037.11 1090.75 1145.37 1205.84
5280.31 1114.9 1075.48 1233.99 1192.14
5283.2 1074.43 1097.94 1197.06 1216.86
5286.08 1104.5 1086.38 1219.55 1206.23
5288.97 1080.2 1081.34 1202.08 1203.54
5291.86 1059.32 1076.06 1189.01 1197.46
5294.75 1088.66 1105.01 1201.3 1234.04
5297.64 1167.05 1153.15 1311.82 1280.77
5300.52 1203.76 1162.48 1329.17 1296.91
5303.41 1116.62 1139.84 1249.73 1277.25
5306.3 1099.13 1115.34 1252.84 1261.49
5309.19 1130.27 1132.84 1281.9 1284.01
5312.07 1169.13 1147.74 1317.3 1294.33
5314.96 1143.81 1164.19 1283.8 1297.05
5317.85 1179.62 1169.79 1290.06 1304.58
5320.74 1185.94 1189.58 1339.88 1318.88
5323.62 1203.17 1197.22 1326.7 1335.06
5326.51 1202.55 1203.07 1338.58 1339.28
5329.4 1203.49 1150.23 1352.57 1289.19
5332.28 1044.64 1167.14 1176.42 1310.12
5335.17 1253.29 1148 1401.36 1292.71
5338.06 1146.08 1166.67 1300.35 1310.86
5340.94 1100.64 1127.01 1230.86 1269.42
5343.83 1134.31 1127.34 1277.04 1261.29
5346.72 1147.07 1139.49 1275.96 1274.75
5349.6 1137.09 1144.13 1271.25 1276.89
5352.49 1148.22 1128.75 1283.46 1261.37
5355.38 1100.95 1147.22 1229.4 1285.9
5358.26 1192.5 1183.63 1344.83 1326.26
5361.15 1257.44 1232.75 1404.53 1380.74
5364.03 1248.3 1242.41 1392.84 1385.16
5366.92 1221.5 1240.89 1358.12 1391.61
5369.8 1252.88 1265.7 1423.86 1424.17
5372.69 1322.74 1275.98 1490.52 1440.37
5375.58 1252.31 1239.94 1406.73 1395.03
5378.46 1144.77 1192.44 1287.85 1346.11
5381.35 1180.22 1172.67 1343.75 1331.66
5384.23 1193.03 1210.24 1363.36 1374.52
5387.12 1257.46 1256.48 1416.45 1426.1
5390 1318.95 1298.75 1498.49 1470.94
5392.89 1319.84 1308.65 1497.89 1478.61
5395.77 1287.16 1313.46 1439.46 1481.07
5398.66 1333.38 1306.62 1505.87 1474.57
5401.54 1299.32 1282.73 1478.37 1455.11
5404.42 1215.49 1233.04 1381.08 1406.77
5407.31 1184.32 1215.37 1360.86 1380.23
5410.19 1246.32 1201.2 1398.76 1356.19
5413.08 1172.97 1236.98 1308.94 1386.03
5415.96 1291.64 1208.14 1450.4 1361.91
5418.85 1159.81 1226.62 1326.39 1391.78
5421.73 1228.42 1215.7 1398.56 1386.8
5424.61 1258.88 1238.7 1435.47 1412.59
5427.5 1228.8 1263.38 1403.74 1431.69
5430.38 1302.47 1279.86 1455.85 1442.69
5433.26 1308.3 1320.07 1468.49 1485.92
5436.15 1349.44 1333.49 1533.41 1509.09
5439.03 1342.73 1343.18 1525.36 1509.76
5441.91 1337.36 1332.42 1470.51 1496.59
5444.8 1317.18 1321.11 1493.91 1478.78
5447.68 1308.79 1319.35 1471.92 1495.59
5450.56 1332.08 1298.24 1520.94 1478.8
5453.45 1253.84 1299.14 1443.55 1485.6
5456.33 1311.51 1284.4 1492.32 1468.19
5459.21 1287.85 1306.62 1468.69 1485.73
5462.09 1320.51 1312.02 1496.19 1492.99
5464.98 1327.7 1320.71 1514.09 1505.12
5467.86 1313.92 1312.73 1505.09 1491.37
5470.74 1296.57 1317.46 1454.93 1487.96
5473.62 1341.88 1317.19 1503.85 1482.46
5476.51 1313.11 1303.12 1488.6 1468.51
5479.39 1254.37 1287.84 1413.09 1462.83
5482.27 1296.04 1280.48 1486.82 1451.42
5485.15 1291.02 1278.73 1454.37 1446.57
5488.03 1249.12 1292.74 1398.52 1459.06
5490.91 1338.07 1300.24 1524.3 1469.87
5493.8 1313.54 1330.82 1486.78 1511.92
5496.68 1340.85 1309.62 1524.67 1483.63
5499.56 1274.49 1303.56 1439.44 1485.94
5502.44 1295.36 1290.29 1493.7 1474.18
5505.32 1301.02 1309.26 1489.41 1500.12
5508.2 1331.4 1362.96 1517.26 1552.05
5511.08 1456.45 1369.11 1649.47 1550.65
5513.96 1319.47 1346.14 1485.22 1532.4
5516.84 1262.51 1319.33 1462.5 1513.4
5519.73 1376.02 1341.54 1592.48 1534.34
5522.61 1386.1 1388.72 1548.05 1582.39
5525.49 1404.04 1372.56 1606.65 1553.52
5528.37 1327.54 1339.4 1505.85 1524.23
5531.25 1286.63 1312.16 1460.18 1493.63
5534.13 1322.31 1328.74 1514.85 1511.03
5537.01 1377.28 1341.37 1558.05 1535.06
5539.89 1324.52 1338.91 1532.28 1523.73
5542.77 1314.92 1328.52 1480.85 1510.74
5545.65 1346.11 1332.15 1519.11 1506.35
5548.53 1335.43 1337.25 1519.09 1515.04
5551.41 1330.22 1329.98 1506.93 1505.69
5554.28 1324.28 1323.1 1491.05 1502.86
5557.16 1314.81 1337.42 1510.61 1523.72
5560.04 1373.18 1358.89 1569.5 1556.54
5562.92 1388.69 1412.7 1589.53 1616.52
5565.8 1476.24 1454.76 1690.54 1672.51
5568.68 1499.34 1507.75 1737.46 1743.89
5571.56 1547.68 1468.09 1803.67 1705.41
5574.44 1357.25 1445.45 1575.08 1664.28
5577.32 1431.42 1457.16 1614.07 1678.59
5580.19 1582.81 1496.98 1846.61 1701.19
5583.07 1476.71 1482.27 1642.89 1698.7
5585.95 1387.28 1415.1 1606.61 1607.62
5588.83 1381.31 1369.58 1573.35 1566.37
5591.71 1340.17 1345.77 1519.16 1531.03
5594.59 1315.83 1353.85 1500.57 1545.28
5597.46 1405.57 1356.37 1616.1 1557.13
5600.34 1347.71 1392.9 1554.71 1602.31
5603.22 1425.41 1429.15 1636.11 1630.89
5606.1 1514.32 1439.88 1701.86 1644.65
5608.97 1379.9 1434.46 1595.99 1629.78
5611.85 1409.15 1367.15 1591.5 1561.7
5614.73 1312.4 1364.71 1497.6 1559.08
5617.61 1372.59 1363.43 1588.13 1568.79
5620.48 1405.3 1414.3 1620.64 1625.94
5623.36 1465.03 1419.1 1669.05 1628.03
5626.24 1386.98 1408.78 1594.41 1614.01
5629.11 1374.33 1416.07 1578.57 1636.62
5631.99 1486.89 1453.78 1736.9 1676.46
5634.87 1500.13 1471.31 1713.93 1687.73
5637.74 1426.91 1462 1612.36 1655.59
5640.62 1458.95 1427 1640.49 1628.9
5643.49 1395.14 1403.37 1633.86 1622.16
5646.37 1356.02 1396.88 1592.14 1626.51
5649.25 1439.48 1407.64 1653.53 1619.47
5652.12 1427.42 1425.84 1612.74 1624.52
5655 1410.64 1402.35 1607.28 1611.98
5657.87 1369 1397.2 1615.92 1610.34
5660.75 1411.96 1401.87 1607.82 1627.33
5663.63 1424.64 1391.35 1658.26 1604.61
5666.5 1337.46 1376.56 1547.76 1594.21
5669.38 1367.57 1351.93 1576.6 1558.07
5672.25 1350.75 1388.85 1549.84 1598.95
5675.13 1448.23 1384.9 1670.4 1589.64
5678 1355.73 1400.93 1548.68 1608.5
5680.88 1398.85 1376.31 1606.43 1576.39
5683.75 1374.34 1381.26 1574.05 1578.27
5686.62 1370.58 1396.78 1554.33 1600.78
5689.5 1445.42 1436.17 1673.96 1636.92
5692.37 1492.53 1434.28 1682.46 1649.74
5695.25 1364.9 1438.51 1592.8 1654.14
5698.12 1458.11 1428.5 1687.16 1656.34
5701 1462.5 1445.93 1689.06 1678.49
5703.87 1417.17 1434.01 1659.26 1665.94
5706.74 1422.36 1427.78 1649.49 1663.79
5709.62 1443.82 1407.53 1682.6 1633.92
5712.49 1356.4 1446.92 1569.66 1668.37
5715.36 1540.55 1427.28 1752.85 1638.98
5718.24 1384.9 1463.86 1594.43 1683.99
5721.11 1466.12 1419.98 1704.68 1645.4
5723.98 1408.91 1440.71 1637.09 1668.74
5726.86 1447.1 1438.32 1664.45 1655.56
5729.73 1458.94 1425.77 1665.14 1642.64
5732.6 1371.25 1434.19 1598.32 1648.48
5735.48 1472.38 1419.56 1681.97 1643.74
5738.35 1415.04 1448.3 1650.93 1672.97
5741.22 1457.49 1436.69 1686 1662.34
5744.09 1437.56 1451.74 1650.09 1675.78
5746.97 1460.18 1452.55 1691.24 1667.37
5749.84 1459.92 1442.57 1660.77 1661.92
5752.71 1407.6 1435.69 1633.75 1655.3
5755.58 1439.55 1446.29 1671.38 1675.92
5758.45 1491.73 1481.51 1722.63 1716.58
5761.33 1513.25 1464.62 1755.74 1701.13
5764.2 1388.87 1434.62 1625.02 1663.83
5767.07 1401.74 1438.72 1610.73 1678.61
5769.94 1525.55 1447.19 1800.09 1688.08
5772.81 1414.29 1461.91 1653.42 1706.34
5775.68 1445.88 1451.93 1665.51 1682.83
5778.55 1495.63 1436.96 1729.55 1665.17
5781.43 1369.38 1416.67 1600.43 1645.81
5784.3 1385 1420.63 1607.46 1648.66
5787.17 1507.53 1435.18 1738.1 1663.61
5790.04 1413.02 1444.58 1645.26 1675.59
5792.91 1413.21 1414.09 1643.42 1644.37
5795.78 1416.05 1414.92 1644.42 1653.64
5798.65 1415.51 1424.17 1673.08 1663.26
5801.52 1440.96 1443.67 1672.27 1688.93
5804.39 1474.55 1442.29 1721.45 1674.88
5807.26 1411.36 1480 1630.93 1713.83
5810.13 1554.09 1489.54 1789.13 1716.54
5813 1503.18 1552.15 1729.57 1792.98
5815.87 1599.18 1536.69 1860.24 1782.04
5818.74 1507.72 1562.53 1756.32 1811.1
5821.61 1580.7 1526.66 1816.75 1761.61
5824.48 1491.55 1516.25 1711.76 1757.36
5827.34 1476.51 1484.37 1743.58 1727.83
5830.21 1485.03 1501.48 1728.15 1753.26
5833.08 1542.9 1521.99 1788.06 1764.85
5835.95 1538.04 1526.26 1778.34 1759.57
5838.82 1497.83 1507.26 1712.32 1742.46
5841.69 1485.92 1491.57 1736.72 1731.38
5844.56 1490.97 1503.14 1745.09 1750.59
5847.43 1532.54 1524.74 1769.98 1763.92
5850.29 1550.72 1524.3 1776.7 1756.07
5853.16 1489.65 1492.08 1721.53 1724.17
5856.03 1435.88 1490.11 1674.27 1742.54
5858.9 1544.8 1538.22 1831.84 1803.98
5861.77 1634 1573.68 1905.84 1845.47
5864.63 1542.26 1531.96 1798.75 1795.84
5867.5 1419.61 1485.63 1682.93 1739.22
5870.37 1495.03 1469.27 1735.97 1713.44
5873.24 1493.16 1508.11 1721.42 1757.13
5876.1 1536.14 1490.88 1813.99 1732.8
5878.97 1443.34 1517.68 1663 1759.98
5881.84 1573.56 1516.06 1802.96 1737.6
5884.7 1531.27 1592.15 1746.83 1820.8
5887.57 1671.62 1590.26 1912.59 1819.68
5890.44 1567.87 1561.01 1799.62 1801.07
5893.3 1443.54 1531.25 1691 1779.79
5896.17 1582.33 1484.29 1848.75 1740.76
5899.04 1427.02 1479.81 1682.54 1739.73
5901.9 1430.09 1445.2 1687.9 1689.84
5904.77 1478.5 1462.21 1699.09 1704.65
5907.63 1478.03 1485.84 1726.95 1734.33
5910.5 1500.99 1483.59 1776.94 1741.61
5913.37 1471.75 1504.6 1720.94 1763.51
5916.23 1541.04 1526.85 1792.65 1779.12
5919.1 1567.74 1573.91 1823.78 1829.69
5921.96 1612.94 1605.39 1872.64 1868.09
5924.83 1635.47 1612.3 1907.85 1874.04
5927.69 1588.49 1599.24 1841.63 1874.35
5930.56 1573.76 1558.16 1873.56 1830.92
5933.42 1512.22 1519.64 1777.57 1792.09
5936.29 1472.95 1507.97 1725.14 1763.41
5939.15 1538.72 1502.11 1787.51 1755.29
5942.02 1494.66 1499.56 1753.23 1754.01
5944.88 1465.31 1499.31 1721.29 1757.78
5947.74 1537.98 1524.34 1798.82 1786.1
5950.61 1569.73 1530.36 1838.2 1787.53
5953.47 1483.38 1523.26 1725.56 1775.69
5956.34 1516.68 1517.03 1763.32 1761.02
5959.2 1551.04 1542.91 1794.19 1802.76
5962.06 1561.01 1565.03 1850.77 1835.14
5964.93 1583.05 1561.54 1860.45 1838.88
5967.79 1540.56 1539.41 1805.43 1814.43
5970.65 1494.62 1510.61 1777.41 1771.32
5973.52 1496.66 1448.75 1731.12 1694.12
5976.38 1354.96 1375.01 1573.83 1597.3
5979.24 1273.42 1306.4 1486.97 1525.83
5982.11 1290.83 1321.1 1516.71 1548.28
5984.97 1399.06 1354.19 1641.16 1580.5
5987.83 1372.67 1398.08 1583.63 1630.52
5990.69 1422.5 1392.24 1666.78 1622.6
5993.56 1381.56 1419.57 1617.39 1665.91
5996.42 1454.65 1445.78 1713.55 1689.48
5999.28 1501.12 1506.1 1737.51 1768.04
6002.14 1562.52 1531.31 1853.07 1792.21
6005 1530.29 1532.34 1786.05 1801.65
6007.86 1504.2 1476.43 1765.83 1741.85
6010.73 1394.79 1465.98 1673.67 1740.79
6013.59 1498.95 1472.02 1782.87 1762.69
6016.45 1522.33 1513.69 1831.54 1809.78
6019.31 1519.8 1528.52 1814.94 1839.63
6022.17 1543.42 1506.26 1872.43 1817.37
6025.03 1455.55 1515.41 1764.75 1832.22
6027.89 1547.26 1494.82 1859.47 1804.94
6030.75 1481.65 1508.87 1790.59 1809.69
6033.61 1497.71 1486.76 1779 1785.73
6036.47 1480.92 1493.3 1787.6 1785.43
6039.33 1501.28 1496.57 1789.69 1789.56
6042.2 1507.51 1486.31 1791.38 1776.4
6045.06 1450.14 1498.44 1748.12 1788.07
6047.92 1537.66 1501.7 1824.7 1798.4
6050.77 1517.3 1551.16 1822.39 1860.46
6053.63 1598.52 1551.71 1934.29 1860.82
6056.49 1539.3 1529.93 1825.78 1836.83
6059.35 1451.96 1472.74 1750.41 1766.56
6062.21 1426.96 1450.3 1723.49 1744.59
6065.07 1471.98 1483.46 1759.86 1769.68
6067.93 1551.45 1513.86 1825.68 1787.74
6070.79 1518.17 1542.6 1777.67 1826.58
6073.65 1558.2 1522.93 1876.39 1815.81
6076.51 1492.43 1532.22 1793.35 1843.34
6079.37 1546.02 1519.8 1860.29 1827.23
6082.22 1520.94 1513.88 1828.06 1818.9
6085.08 1474.69 1488.07 1768.34 1785.15
6087.94 1468.58 1502.98 1759.05 1804.11
6090.8 1565.67 1500.99 1884.94 1800.05
6093.66 1468.71 1535.31 1756.16 1839.22
6096.51 1571.54 1503.72 1876.57 1802.95
6099.37 1470.91 1511.7 1776.13 1807.7
6102.23 1492.64 1508.13 1770.42 1800.33
6105.09 1560.85 1512.88 1854.43 1799.72
6107.94 1485.14 1531.42 1774.3 1826.15
6110.8 1548.26 1491.35 1849.72 1774.4
6113.66 1440.63 1495.49 1699.19 1778.72
6116.52 1497.56 1489.3 1787.25 1776.43
6119.37 1529.69 1520.78 1842.86 1818.64
6122.23 1535.08 1548.65 1825.82 1859.83
6125.09 1581.19 1553.36 1910.81 1862.63
6127.94 1543.83 1571.61 1851.25 1883.63
6130.8 1589.83 1570.98 1888.83 1878.01
6133.65 1579.28 1583.02 1893.94 1891.3
6136.51 1579.96 1565.03 1891.12 1868.68
6139.37 1535.86 1557.49 1820.99 1854.72
6142.22 1556.66 1541.08 1852.04 1837.87
6145.08 1530.72 1553.23 1840.56 1865.83
6147.93 1572.3 1565.44 1904.87 1872.97
6150.79 1593.31 1575.63 1873.47 1882.97
6153.64 1561.26 1566.79 1870.58 1860.4
6156.5 1545.79 1562.31 1837.17 1865.34
6159.35 1579.89 1544 1888.28 1836.57
6162.21 1506.33 1554.26 1784.25 1852.78
6165.06 1576.57 1551.53 1885.82 1842.64
6167.92 1571.7 1586.62 1857.85 1889.42
6170.77 1611.59 1563.8 1924.58 1865.37
6173.63 1508.1 1544.69 1813.68 1850.24
6176.48 1514.38 1526.17 1812.46 1835.98
6179.33 1556.01 1555.2 1881.79 1870.18
6182.19 1595.19 1575.11 1916.3 1889.55
6185.04 1574.12 1578.08 1870.57 1879.96
6187.9 1564.93 1528.91 1853.02 1821.5
6190.75 1447.69 1521.05 1740.9 1817.17
6193.6 1550.54 1494.63 1857.58 1787.11
6196.46 1485.66 1490.08 1762.83 1784.3
6199.31 1434.03 1485.65 1732.5 1778.25
6202.16 1537.26 1496.03 1839.43 1787.44
6205.01 1516.8 1520.54 1790.39 1814.61
6207.87 1507.57 1538.3 1814.01 1830.93
6210.72 1590.53 1531.32 1888.39 1828.18
6213.57 1495.86 1523.58 1782.13 1815.09
6216.43 1484.36 1516.5 1774.75 1810.01
6219.28 1569.29 1531.62 1873.16 1821.89
6222.13 1541.2 1517.3 1817.76 1805.9
6224.98 1441.4 1507.46 1726.79 1793.57
6227.83 1539.77 1483.99 1836.17 1772.72
6230.68 1470.8 1494 1755.19 1774.08
6233.54 1471.44 1473.8 1730.89 1755.47
6236.39 1479.16 1523.25 1780.34 1794.25
6239.24 1619.16 1537.27 1871.52 1821.17
6242.09 1513.48 1546.84 1811.65 1818.33
6244.94 1507.88 1523.53 1771.81 1789.52
6247.79 1549.24 1509.04 1785.08 1764.64
6250.64 1470.01 1470.35 1737.01 1727.22
6253.49 1391.8 1424.95 1659.57 1698.04
6256.34 1413.04 1400.35 1697.55 1677.18
6259.19 1396.22 1419.08 1674.43 1704.1
6262.04 1447.99 1434.29 1740.31 1716.8
6264.89 1458.67 1446.53 1735.65 1723.02
6267.74 1432.93 1446.78 1693.1 1733.22
6270.59 1448.73 1457.31 1770.93 1741.85
6273.44 1490.27 1478.02 1761.52 1765.83
6276.29 1495.05 1482.94 1765.06 1752.96
6279.14 1463.49 1465.14 1732.3 1733.56
6281.99 1436.88 1458.18 1703.33 1733.76
6284.84 1474.17 1433.36 1765.65 1707.14
6287.69 1389.02 1459.91 1652.43 1746.49
6290.54 1516.54 1454.07 1821.38 1726.79
6293.39 1456.64 1477.26 1706.55 1762.5
6296.24 1458.59 1467.71 1759.56 1746.28
6299.08 1487.9 1474.55 1772.72 1774.51
6301.93 1477.15 1475.31 1791.24 1764.51
6304.78 1460.89 1439.28 1729.56 1713.95
6307.63 1379.8 1410.64 1621.06 1678.88
6310.48 1391.23 1405.74 1686.03 1677.58
6313.32 1446.18 1397.57 1725.66 1684.79
6316.17 1355.29 1429.85 1642.68 1704.64
6319.02 1488.08 1433.06 1745.58 1708.94
6321.87 1455.79 1463.59 1738.56 1736.63
6324.71 1446.89 1475.7 1725.75 1754.87
6327.56 1524.42 1435.7 1800.3 1708.19
6330.41 1335.8 1435.84 1598.52 1700.11
6333.25 1447.3 1427.95 1701.53 1689.24
6336.1 1500.76 1475.8 1767.67 1747.03
6338.95 1479.33 1436.64 1771.9 1708.53
6341.79 1329.84 1417.34 1586.03 1686.82
6344.64 1442.86 1423.02 1702.54 1690.05
6347.49 1496.36 1447.19 1781.59 1719.79
6350.33 1402.35 1461.25 1675.25 1730.67
6353.18 1485.05 1439.4 1735.19 1703.19
6356.02 1430.8 1485.26 1699.14 1754.14
6358.87 1539.92 1503.38 1828.1 1789.9
6361.71 1539.41 1519.13 1842.45 1812.74
6364.56 1478.07 1492.92 1767.67 1781.12
6367.4 1461.29 1465.29 1733.25 1733.93
6370.25 1456.51 1476.47 1700.88 1754.92
6373.09 1511.62 1465.85 1830.63 1733.61
6375.94 1429.41 1449.04 1669.33 1713.26
6378.78 1406.08 1454.61 1639.81 1708.75
6381.63 1528.33 1470.43 1817.12 1738.83
6384.47 1476.89 1495.26 1759.58 1772.37
6387.32 1480.55 1457.61 1740.41 1724.44
6390.16 1415.39 1453.59 1673.35 1718.48
6393 1464.82 1450.82 1741.68 1722.78
6395.85 1472.25 1465.26 1753.32 1738.08
6398.69 1458.71 1488.23 1719.25 1757.39
6401.53 1533.73 1493.14 1799.59 1767.94
6404.38 1486.98 1508.65 1784.98 1791.14
6407.22 1505.23 1499.09 1788.84 1783.91
6410.06 1505.06 1506.44 1777.9 1784.77
6412.91 1509.03 1470.57 1787.57 1740.03
6415.75 1397.61 1478.29 1654.62 1755.12
6418.59 1528.22 1468.03 1823.17 1739.24
6421.43 1478.26 1532.1 1739.94 1823.55
6424.28 1589.83 1493.48 1907.55 1770.5
6427.12 1412.36 1498.2 1664.02 1787.43
6429.96 1492.42 1433.19 1790.71 1708.71
6432.8 1394.81 1453.76 1671.39 1732.82
6435.64 1474.05 1459.91 1736.38 1729.93
6438.49 1510.89 1481.95 1782.02 1748.39
6441.33 1460.91 1484.63 1726.78 1746.66
6444.17 1482.09 1452.51 1731.17 1712.02
6447.01 1414.54 1460.59 1678.12 1717.81
6449.85 1485.13 1468.98 1744.15 1736.4
6452.69 1507.27 1478.17 1786.92 1745.47
6455.53 1442.11 1476.61 1705.34 1751.24
6458.37 1480.45 1443.12 1761.45 1707.4
6461.21 1406.81 1447.62 1655.42 1715.5
6464.05 1455.59 1446.16 1729.63 1712.79
6466.89 1476.08 1469.35 1753.33 1749.27
6469.73 1476.38 1497.88 1764.86 1776.59
6472.57 1541.18 1502.38 1811.56 1778.87
6475.41 1489.57 1506.8 1760.19 1779.11
6478.25 1489.64 1502.58 1765.57 1779.74
6481.09 1528.53 1512.14 1813.47 1794.37
6483.93 1518.26 1526.71 1804.07 1799.54
6486.77 1533.33 1486.93 1781.09 1745.7
6489.61 1409.21 1454.42 1651.93 1704.45
6492.45 1420.74 1424.01 1680.33 1672.33
6495.29 1442.1 1458.72 1684.73 1721.12
6498.12 1513.33 1485.96 1798.3 1753.1
6500.96 1502.44 1507.77 1776.27 1783.09
6503.8 1507.53 1489.87 1774.7 1756.24
6506.64 1459.64 1446.05 1717.76 1708.56
6509.48 1370.98 1398.79 1633.23 1654.35
6512.31 1365.76 1371.76 1612.06 1621.5
6515.15 1378.54 1387.83 1619.22 1638.85
6517.99 1419.18 1426.37 1685.27 1681.95
6520.83 1481.4 1452.93 1741.37 1712.22
6523.66 1458.22 1487.9 1710.01 1759.2
6526.5 1524.09 1462.14 1826.2 1731.57
6529.34 1404.11 1483.18 1658.48 1756.78
6532.17 1521.35 1443.74 1785.67 1701.99
6535.01 1405.78 1457.04 1661.83 1713.6
6537.85 1444.01 1468.64 1693.31 1721.02
6540.68 1556.13 1489.69 1807.92 1742.74
6543.52 1468.93 1490.19 1726.98 1743.88
6546.36 1445.51 1445.51 1696.76 1695.98
6549.19 1422.08 1438.6 1664.19 1698.81
6552.03 1448.22 1430.05 1735.5 1686.26
6554.86 1419.84 1462.11 1659.1 1727.49
6557.7 1518.26 1464.28 1787.87 1718.53
6560.53 1454.75 1477.77 1708.62 1739.4
6563.37 1460.31 1465.51 1721.69 1725.18
6566.2 1481.48 1457.67 1745.21 1713.82
6569.04 1431.22 1443.38 1674.55 1690.7
6571.87 1417.43 1447.47 1652.34 1701.56
6574.71 1493.75 1481.99 1777.77 1742
6577.54 1534.79 1474.44 1795.87 1738.35
6580.38 1394.78 1463.05 1641.4 1713.62
6583.21 1459.57 1454.89 1703.59 1705.84
6586.04 1510.33 1461.63 1772.53 1710.16
6588.88 1415 1430.61 1654.37 1678.81
6591.71 1366.49 1400.29 1609.52 1641.24
6594.54 1419.39 1425.5 1659.82 1669.71
6597.38 1490.62 1445.79 1739.78 1683.78
6600.21 1427.34 1461.95 1651.72 1699.21
6603.04 1467.89 1460.42 1706.12 1705.13
6605.88 1486.05 1466.08 1757.54 1716.43
6608.71 1444.29 1490.95 1685.62 1752.8
6611.54 1542.51 1468.18 1815.23 1722.09
6614.37 1417.74 1528.74 1665.43 1794.52
6617.21 1625.98 1523.29 1902.92 1783.77
6620.04 1526.14 1552.33 1782.95 1814.04
6622.87 1504.86 1526.88 1756.26 1783.56
6625.7 1549.64 1519.72 1811.46 1766.16
6628.53 1504.66 1534 1730.77 1777.59
6631.37 1547.7 1526.04 1790.54 1771.75
6634.2 1525.78 1513.22 1793.95 1767.43
6637.03 1466.19 1536.46 1717.8 1804.44
6639.86 1617.41 1553.46 1901.57 1819.56
6642.69 1576.76 1623.7 1839.31 1909.95
6645.52 1676.92 1638.03 1988.96 1924.83
6648.35 1660.4 1649.76 1946.24 1945.1
6651.18 1611.97 1664.74 1900.09 1945.61
6654.01 1721.84 1821.78 1990.49 2135.06
6656.84 2131.54 2094.75 2514.58 2472.68
6659.67 2430.86 2380.65 2912.96 2817.23
6662.5 2579.56 2496.36 3024.14 2922.68
6665.33 2478.65 2390.45 2830.93 2754.76
6668.16 2113.15 2164.56 2409.2 2476.49
6670.99 1901.89 1917.41 2189.33 2200.19
6673.82 1737.19 1790.85 2002.04 2066.61
6676.65 1733.47 1776.86 2008.47 2067.23
6679.48 1859.93 1811.87 2191.19 2124.79
6682.31 1842.21 1865.39 2174.72 2190.65
6685.13 1894.05 1846.78 2206.04 2160.83
6687.96 1804.09 1781.24 2101.73 2070.48
6690.79 1645.59 1689.32 1903.68 1954.16
6693.62 1618.27 1611.19 1857.06 1871.88
6696.45 1569.7 1586.16 1854.9 1843.01
6699.27 1570.5 1542.55 1817.06 1812.66
6702.1 1487.44 1572.6 1766.03 1839.22
6704.93 1659.86 1550.53 1934.59 1817.82
6707.76 1504.28 1565.95 1752.83 1822.8
6710.58 1533.71 1523.3 1780.97 1778.84
6713.41 1531.9 1542.14 1802.73 1800.25
6716.24 1560.82 1563.69 1817.06 1822.61
6719.06 1598.33 1586.71 1848.05 1849.21
6721.89 1600.98 1603.61 1882.52 1864.83
6724.72 1611.53 1593.02 1863.91 1852.9
6727.54 1566.55 1583.29 1812.26 1835.69
6730.37 1571.8 1533.44 1830.88 1789.67
6733.19 1461.96 1502.82 1725.86 1751.55
6736.02 1474.69 1473.79 1697.91 1725.1
6738.85 1484.71 1508.29 1751.54 1753.67
6741.67 1565.48 1523.05 1811.56 1774.64
6744.5 1518.96 1519.93 1760.82 1765.56
6747.32 1475.35 1500.84 1724.31 1747.18
6750.15 1508.2 1487.47 1756.4 1727.49
6752.97 1478.85 1532.63 1701.77 1775.79
6755.8 1610.83 1543.96 1869.21 1780.79
6758.62 1542.21 1527.99 1771.38 1772.56
6761.44 1430.94 1526.75 1677.11 1767.69
6764.27 1607.1 1497.89 1854.58 1743.93
6767.09 1455.64 1550.38 1700.1 1795.95
6769.92 1588.41 1519.03 1833.16 1765.18
6772.74 1513.04 1535.74 1762.28 1785.14
6775.56 1505.77 1499.29 1759.99 1742.47
6778.39 1479.06 1497.87 1705.15 1740.72
6781.21 1508.78 1523.43 1757.01 1761.5
6784.03 1582.46 1558.16 1822.35 1802.72
6786.86 1583.23 1590.06 1828.8 1842.68
6789.68 1604.51 1564.73 1876.88 1823.93
6792.5 1506.46 1563.14 1766.12 1820.35
6795.32 1578.47 1553.08 1818.07 1798.54
6798.15 1574.33 1602.43 1811.44 1845.29
6800.97 1654.51 1570.67 1906.37 1816.52
6803.79 1483.18 1555.93 1731.74 1804.54
6806.61 1530.11 1512.9 1775.5 1756.4
6809.43 1525.39 1550.76 1761.96 1794.44
6812.25 1596.78 1595.39 1845.86 1851.74
6815.08 1663.99 1680.09 1947.4 1949.82
6817.9 1779.5 1701.97 2056.2 1974.79
6820.72 1662.43 1700.64 1920.77 1957.75
6823.54 1659.99 1655.62 1896.26 1906.34
6826.36 1644.43 1634.74 1901.99 1889.65
6829.18 1599.79 1598.51 1870.69 1845.55
6832 1551.3 1599.28 1763.98 1846.61
6834.82 1646.76 1610.56 1905.16 1851.14
6837.64 1633.63 1603.9 1884.29 1847.16
6840.46 1531.31 1541.96 1752.03 1777.37
6843.28 1460.94 1485.88 1695.78 1719.34
6846.1 1465.39 1442.91 1710.2 1688.18
6848.92 1402.41 1467.16 1658.56 1714.39
6851.74 1533.69 1462.15 1774.4 1704.46
6854.56 1450.36 1478.33 1680.42 1716.87
6857.37 1450.94 1457.08 1695.81 1693.26
6860.19 1469.94 1450.19 1703.56 1676.38
6863.01 1429.69 1368.86 1629.76 1581.56
6865.83 1206.94 1288.85 1411.35 1485.57
6868.65 1229.93 1208.31 1415.6 1399.47
6871.47 1188.06 1198.08 1371.48 1379.92
6874.28 1176.25 1180.47 1352.69 1354.64
6877.1 1177.1 1220.01 1339.76 1405.94
6879.92 1306.68 1279.63 1525.37 1470.03
6882.74 1355.1 1339.93 1544.96 1542.03
6885.55 1358.01 1338.99 1555.76 1536.56
6888.37 1303.87 1338.01 1508.97 1537.98
6891.19 1352.16 1322.28 1549.2 1522.89
6894 1310.8 1328.27 1510.5 1533.11
6896.82 1321.84 1308.57 1539.64 1517.72
6899.64 1293.08 1304.23 1503.02 1515.07
6902.45 1297.79 1322.69 1502.55 1525.9
6905.27 1377.2 1358.89 1572.12 1560.75
6908.08 1401.68 1401.71 1607.57 1608.76
6910.9 1426.25 1456.97 1646.59 1665.57
6913.72 1542.97 1466.82 1742.54 1674.69
6916.53 1431.24 1473.91 1634.95 1675.22
6919.35 1447.53 1412.84 1648.18 1610
6922.16 1359.76 1427.38 1546.86 1633.42
6924.98 1474.84 1405.2 1705.22 1616.96
6927.79 1381.01 1416.8 1598.79 1625.4
6930.6 1394.55 1384.84 1572.18 1592.64
6933.42 1378.98 1376.9 1606.94 1573.68
6936.23 1357.16 1383.13 1541.92 1588.03
6939.05 1413.24 1377.55 1615.23 1578.96
6941.86 1362.25 1403.92 1579.72 1612.68
6944.67 1436.26 1380.74 1643.08 1597.54
6947.49 1343.72 1362.59 1569.83 1575.08
6950.3 1307.81 1349.37 1512.32 1560.26
6953.11 1396.6 1371.07 1598.64 1569.45
6955.93 1408.81 1407.51 1597.4 1609.21
6958.74 1417.13 1423.4 1631.57 1621.74
6961.55 1444.27 1428.48 1636.23 1632.31
6964.37 1424.05 1428.11 1629.12 1630.13
6967.18 1416 1406.93 1625.05 1612.77
6969.99 1380.73 1406.86 1584.14 1615.14
6972.8 1423.84 1416.47 1636.23 1629.21
6975.61 1444.83 1446.54 1667.24 1658.14
6978.42 1470.94 1444.26 1670.95 1648.91
6981.24 1417 1433.86 1608.54 1638.87
6984.05 1413.62 1415.34 1637.13 1625.43
6986.86 1415.39 1404.14 1630.64 1617.79
6989.67 1383.4 1413.96 1585.6 1624.95
6992.48 1443.09 1416.68 1658.6 1617.22
6995.29 1423.53 1423.55 1607.45 1622.79
6998.1 1404.04 1411.74 1602.3 1618.23
7000.91 1407.66 1387.4 1644.94 1599.02
7003.72 1350.49 1372.83 1549.82 1578.97
7006.53 1360.34 1374.77 1542.15 1557.76
7009.34 1413.48 1390.96 1581.31 1580.37
7012.15 1399.04 1424.71 1617.66 1623.03
7014.96 1461.6 1403.61 1670.12 1625.18
7017.77 1350.2 1406.83 1587.74 1631.93
7020.58 1408.69 1374.7 1637.94 1612.11
7023.39 1365.22 1370.94 1610.65 1597.61
7026.2 1338.92 1361.12 1544.24 1589.34
7029 1379.23 1330.36 1613.12 1546.47
7031.81 1272.92 1319.78 1482.05 1549.61
7034.62 1307.18 1329.45 1553.66 1555.16
7037.43 1408.25 1340.37 1629.76 1568.39
7040.24 1305.69 1356.63 1521.76 1570.11
7043.04 1355.96 1345.22 1558.8 1557.11
7045.85 1374.03 1340.58 1590.77 1551.36
7048.66 1291.74 1338.97 1504.51 1554.35
7051.47 1351.15 1324.16 1567.78 1538.3
7054.27 1329.59 1338.98 1542.61 1551.97
7057.08 1336.2 1342.24 1545.52 1555.38
7059.89 1360.93 1334.14 1578.03 1543.26
7062.69 1305.28 1367.66 1506.24 1582.41
7065.5 1436.77 1354.52 1662.95 1575.36
7068.31 1321.52 1374.72 1556.88 1599.59
7071.11 1365.87 1329.7 1578.93 1552.19
7073.92 1301.7 1360.91 1520.77 1569.28
7076.72 1415.16 1380.03 1608.15 1601.25
7079.53 1423.24 1408.91 1674.81 1619.19
7082.33 1388.35 1390.28 1574.59 1612.3
7085.14 1359.25 1361.44 1587.49 1571.76
7087.94 1336.73 1353.92 1553.2 1572.01
7090.75 1365.78 1348.44 1575.34 1559.28
7093.55 1342.8 1345.53 1549.31 1561.23
7096.36 1328 1336.74 1559.03 1539.32
7099.16 1339.42 1323.48 1509.61 1520.5
7101.97 1303.02 1308.95 1492.87 1497.44
7104.77 1284.39 1313.12 1489.85 1513.63
7107.57 1351.95 1340.75 1558.16 1549.7
7110.38 1385.92 1328.91 1601.1 1520.7
7113.18 1248.86 1320.07 1402.84 1507.44
7115.98 1325.43 1304.46 1518.38 1481.65
7118.79 1339.09 1333.87 1523.73 1532.39
7121.59 1337.08 1333.55 1555.05 1527.98
7124.39 1324.47 1333.13 1505.15 1527.92
7127.19 1337.83 1299.66 1523.54 1488.86
7130 1236.69 1312.48 1437.87 1506.66
7132.8 1362.92 1309.22 1558.57 1507.94
7135.6 1328.06 1339.29 1527.38 1541.63
7138.4 1326.91 1345.76 1538.92 1544.36
7141.2 1382.32 1349.67 1566.79 1539.89
7144 1339.78 1329.6 1513.95 1508.39
7146.81 1266.71 1290.77 1444.42 1461.01
7149.61 1265.82 1288.36 1424.66 1459.83
7152.41 1332.55 1335.16 1510.41 1530.8
7155.21 1407.12 1338.91 1657.32 1556.19
7158.01 1277.06 1355.34 1500.84 1566.75
7160.81 1381.83 1310.15 1542.09 1493.52
7163.61 1271.56 1287.64 1437.63 1452.17
7166.41 1209.54 1221.97 1376.79 1384.15
7169.21 1184.8 1195.45 1338.03 1363.43
7172.01 1192.01 1161.64 1375.46 1314.78
7174.81 1108.09 1159.56 1230.85 1300.05
7177.61 1178.59 1133.01 1293.84 1271.41
7180.41 1112.36 1143.58 1289.53 1297.23
7183.2 1139.79 1103.73 1308.32 1260.25
7186 1059.03 1105.22 1182.88 1258.33
7188.8 1116.83 1076.11 1283.78 1221.3
7191.6 1052.45 1085.34 1197.24 1227.8
7194.4 1086.72 1076.93 1202.39 1211.2
7197.2 1091.62 1085.37 1233.97 1224.48
7199.99 1077.78 1140.18 1237.1 1293.81
7202.79 1251.14 1156.42 1410.37 1315.4
7205.59 1140.35 1164.92 1298.73 1323.13
7208.39 1103.26 1172.27 1260.3 1341.55
7211.18 1273.21 1200.74 1465.63 1367.99
7213.98 1225.74 1251.76 1378.05 1420.46
7216.78 1256.31 1240.09 1417.7 1398.13
7219.57 1238.21 1215.43 1398.63 1366.44
7222.37 1151.75 1191.1 1282.99 1348.61
7225.17 1183.34 1158.61 1364.21 1315.47
7227.96 1140.74 1147.59 1299.2 1301.48
7230.76 1118.68 1141.36 1241.04 1272.85
7233.55 1164.65 1154.22 1278.31 1282
7236.35 1179.32 1106.39 1326.66 1257.93
7239.14 975.211 1082.45 1168.83 1224.42
7241.94 1092.82 1039.84 1177.77 1179.27
7244.73 1051.5 1086.43 1191.2 1224.5
7247.53 1114.97 1063.05 1304.52 1214.29
7250.32 1022.67 1099.78 1147.16 1250.08
7253.12 1161.7 1091.44 1298.56 1220.94
7255.91 1089.94 1093.84 1217.1 1223.89
7258.71 1029.88 1076.27 1156.03 1208
7261.5 1109 1070.64 1250.86 1207.17
7264.29 1073.02 1064.05 1214.62 1194.82
7267.09 1010.13 1049.54 1118.98 1186.1
7269.88 1065.47 1034.77 1224.7 1165.27
7272.67 1028.7 1066.08 1152.13 1202.5
7275.47 1104.08 1076.03 1230.66 1217.63
7278.26 1095.32 1118.38 1270.09 1251.56
7281.05 1155.73 1133.96 1253.93 1279.15
7283.84 1150.82 1145.06 1313.42 1273.58
7286.63 1128.62 1132.1 1253.38 1277.98
7289.43 1116.86 1135.38 1267.13 1277.27
7292.22 1160.66 1114.9 1311.29 1260.29
7295.01 1067.18 1123.91 1202.44 1257.2
7297.8 1143.88 1086.97 1257.88 1211.32
7300.59 1049.84 1085.14 1173.64 1217.18
7303.38 1061.68 1050.37 1220.02 1183
7306.17 1039.57 1067.04 1155.35 1196.4
7308.96 1099.87 1072.04 1213.83 1177.94
7311.76 1076.7 1089.49 1164.63 1194.42
7314.55 1091.92 1113.57 1204.79 1219.05
7317.34 1172.09 1154.35 1287.73 1276.24
7320.13 1199.04 1196.02 1336.19 1330.36
7322.92 1216.92 1191.65 1367.18 1339.61
7325.7 1158.98 1172.54 1315.47 1307.02
7328.49 1141.71 1160.84 1238.41 1294.03
7331.28 1181.83 1184.62 1328.2 1309.43
7334.07 1230.32 1144.79 1361.67 1285.84
7336.86 1022.23 1150.94 1167.66 1284.23
7339.65 1200.28 1129.54 1323.35 1255.9
7342.44 1166.12 1178.28 1276.69 1318.12
7345.23 1168.44 1172.76 1354.34 1321.04
7348.01 1183.72 1168.88 1332.08 1315.69
7350.8 1154.48 1131.88 1260.66 1258.84
7353.59 1057.45 1126.67 1183.78 1245.82
7356.38 1168.07 1139.36 1293.03 1254.1
7359.16 1192.57 1140.7 1285.5 1245.94
7361.95 1061.48 1141.4 1159.29 1238.03
7364.74 1170.17 1116.72 1269.32 1218.81
7367.52 1118.53 1179.77 1227.83 1270.08
7370.31 1250.62 1192.38 1313.09 1291.12
7373.1 1208 1190.03 1332.43 1290.24
7375.88 1111.48 1174.31 1225.21 1286.45
7378.67 1203.44 1156.03 1301.7 1263.35
7381.46 1153.17 1153.38 1263.15 1268.06
7384.24 1103.53 1132.75 1239.33 1246.74
7387.03 1141.55 1128.5 1237.73 1240.84
7389.81 1140.44 1133.54 1245.46 1235.03
7392.6 1118.64 1132.43 1221.9 1226.98
7395.38 1138.2 1133.34 1213.58 1231.83
7398.17 1143.17 1122.09 1260.02 1222.6
7400.95 1084.89 1137.13 1194.2 1266.3
7403.73 1183.31 1153.03 1344.68 1280.48
7406.52 1190.89 1174.32 1302.58 1306.57
7409.3 1148.77 1152.74 1272.47 1263.6
7412.09 1118.57 1124.99 1215.76 1224.87
7414.87 1107.64 1124.23 1186.37 1210.96
7417.65 1146.47 1134.9 1230.75 1222.52
7420.44 1150.58 1134.03 1250.44 1222.63
7423.22 1105.02 1130.79 1186.69 1225.89
7426 1136.76 1111.46 1240.53 1202.22
7428.78 1092.61 1153.48 1179.44 1247.07
7431.57 1231.07 1154.34 1321.24 1240.89
7434.35 1139.34 1163.21 1222 1258.2
7437.13 1119.22 1157.14 1231.37 1249.1
7439.91 1212.86 1169.24 1293.92 1258.13
7442.69 1175.65 1189.84 1249.09 1283.01
7445.48 1181.01 1182.18 1306.01 1271.59
7448.26 1189.89 1181.69 1259.67 1283.25
7451.04 1174.17 1164.66 1284.07 1254.5
7453.82 1129.92 1157.83 1219.74 1252.9
7456.6 1169.4 1144.93 1254.9 1233.97
7459.38 1135.46 1151.83 1227.28 1234.21
7462.16 1150.62 1154.7 1220.45 1243.23
7464.94 1178.04 1174.6 1281.98 1265.86
7467.72 1195.14 1132.33 1295.15 1228.3
7470.5 1023.81 1118.06 1107.76 1209.88
7473.28 1135.24 1116.09 1226.75 1209.59
7476.06 1189.21 1148.18 1294.26 1246.92
7478.84 1120.09 1171.18 1219.76 1260.59
7481.62 1204.24 1158.23 1267.75 1234.31
7484.39 1150.35 1173.32 1215.43 1241.59
7487.17 1165.37 1181.07 1241.59 1254.94
7489.95 1227.51 1165.33 1307.81 1235.79
7492.73 1103.12 1149.05 1157.97 1221.11
7495.51 1116.53 1100.1 1197.55 1173.75
7498.28 1080.66 1112.43 1165.74 1197.63
7501.06 1140.11 1125.06 1229.6 1203.69
7503.84 1154.42 1134.54 1215.75 1214.27
7506.62 1109.09 1154.13 1197.46 1232.06
7509.39 1198.87 1139.29 1282.98 1221.37
7512.17 1109.91 1157.14 1183.66 1230.91
7514.95 1162.63 1132.78 1226.09 1205.27
7517.72 1125.81 1152.72 1206.07 1218.7
7520.5 1169.71 1134.81 1223.93 1198.74
7523.27 1108.9 1132.05 1166.23 1187.69
7526.05 1117.55 1161.03 1172.91 1218.24
7528.83 1256.63 1163.99 1315.58 1233.56
7531.6 1117.78 1177.59 1212.2 1247.19
7534.38 1158.36 1105.29 1213.78 1170.17
7537.15 1039.73 1090.94 1084.51 1156.29
7539.93 1074.74 1076.55 1170.56 1135.8
7542.7 1115.19 1089.99 1152.33 1161.23
7545.47 1080.02 1100.17 1160.79 1153.74
7548.25 1105.29 1081.74 1148.08 1146.67
7551.02 1059.92 1075.43 1131.15 1129.22
7553.8 1061.08 1067.93 1108.43 1123.49
7556.57 1082.78 1078.02 1130.88 1124.18
7559.34 1090.19 1111.9 1133.21 1172.17
7562.12 1162.72 1121.44 1252.41 1184
7564.89 1111.41 1140.21 1166.38 1205.6
7567.66 1146.49 1111.78 1198.02 1165.57
7570.43 1077.44 1106.47 1132.31 1151.93
7573.21 1095.48 1103.02 1125.44 1148.37
7575.98 1136.15 1100.91 1187.37 1136.07
7578.75 1071.09 1106.97 1095.39 1156.77
7581.52 1113.67 1084 1187.54 1134.46
7584.29 1067.24 1068.36 1120.46 1138.04
7587.07 1024.16 1009.69 1106.12 1079.96
7589.84 937.658 914.546 1013.31 977.033
7592.61 781.819 739.477 811.672 782.806
7595.38 498.954 570.833 523.435 591.961
7598.15 431.726 419.618 440.776 427.408
7600.92 328.174 346.477 318.013 349.151
7603.69 279.53 314.45 288.663 317.003
7606.46 335.644 336.52 344.333 342.207
7609.23 394.385 415.427 393.626 424.327
7612 516.251 541.367 535.023 560.893
7614.77 713.465 635.533 754.031 669.914
7617.54 676.884 686.024 720.689 729.404
7620.31 667.724 674.965 713.493 710.095
7623.08 680.287 642.565 696.104 668.35
7625.84 579.684 619.361 595.453 622.803
7628.61 598.111 595.72 576.85 597.345
7631.38 609.363 585.591 619.731 595.985
7634.15 549.297 600.284 591.374 622.342
7636.92 642.191 628.96 655.921 660.888
7639.68 695.392 669.928 735.367 695.132
7642.45 672.2 695.392 694.106 727.427
7645.22 718.584 710.725 752.807 728.412
7647.99 741.392 749.444 738.323 768.937
7650.75 788.354 796.728 815.682 814.245
7653.52 860.437 837.416 888.73 868.196
7656.28 863.456 880.954 900.176 909.275
7659.05 918.968 905.895 938.919 934.249
7661.82 935.261 915.664 963.653 938.214
7664.58 892.762 931.003 912.071 953.006
7667.35 964.984 951.858 983.295 975.492
7670.11 997.829 974.864 1031.11 994.71
7672.88 961.778 985.989 969.727 1005.02
7675.64 998.361 967.635 1014.22 979.062
7678.41 942.766 973.271 953.239 991.596
7681.17 978.687 953.263 1007.33 986.226
7683.94 938.336 964.632 998.11 996.732
7686.7 976.872 983.278 984.757 1013.5
7689.47 1034.62 988.513 1057.62 1006.02
7692.23 954.043 973.705 975.685 1001.58
7694.99 932.448 968.589 971.431 989.304
7697.76 1019.27 978.175 1020.8 997.232
7700.52 982.803 979.397 999.469 980.329
7703.28 936.112 976.056 920.723 977.436
7706.04 1009.25 996.751 1012.11 986.484
7708.81 1044.89 992.678 1026.62 989.394
7711.57 923.893 985.311 929.452 980.401
7714.33 987.154 937.206 985.135 955.069
7717.09 900.569 945.104 950.621 967.374
7719.85 947.589 925.171 966.365 965.84
7722.62 927.356 942.569 980.534 963.371
7725.38 952.761 954.13 943.212 972.987
7728.14 982.273 959.203 995.215 965.169
7730.9 942.575 961.919 957.081 979.806
7733.66 960.908 964.095 987.124 972.997
7736.42 988.8 975.575 974.785 971.766
7739.18 977.016 965.026 953.39 965.942
7741.94 929.261 942.514 969.651 950.301
7744.7 921.265 927.396 927.861 929.915
7747.46 931.661 929.44 892.232 915.256
7750.22 935.394 957.677 925.675 948.134
7752.98 1005.98 973.743 1026.49 972.583
7755.74 979.858 993.518 965.578 1001.92
7758.5 994.719 979.293 1013.69 985.162
7761.25 963.302 976.925 976.212 992.136
7764.01 972.755 970.204 986.5 982.95
7766.77 974.555 985.86 986.138 994.71
7769.53 1010.27 968.236 1011.49 978.594
7772.29 919.882 942.823 938.152 944.609
7775.04 898.317 887.009 884.184 880.574
7777.8 842.829 873.636 819.387 860.946
7780.56 879.764 873.985 879.269 864.942
7783.31 899.363 891.586 896.171 893.422
7786.07 895.631 922.883 904.824 901.833
7788.83 973.655 915.968 904.505 888.646
7791.58 878.62 933.723 856.61 912.106
7794.34 948.895 918.822 975.202 911.347
7797.1 928.952 929.628 902.23 927.68
7799.85 911.038 929.438 905.608 921.699
7802.61 948.325 888.781 957.261 890.685
7805.36 806.98 874.186 809.188 889.469
7808.12 867.253 870.224 901.957 886.438
7810.87 936.44 877.914 948.169 892.182
7813.63 830.049 862.911 826.42 857.749
7816.38 822.244 855.046 798.66 837.015
7819.13 912.847 884.487 885.965 853.599
7821.89 918.37 917.191 876.173 895.585
7824.64 920.357 897.777 924.617 878.929
7827.4 854.602 893.295 835.997 884.821
7830.15 904.925 892.66 893.85 878.554
7832.9 918.453 886.254 905.816 880.96
7835.65 835.383 891.593 843.213 886.245
7838.41 920.944 889.162 909.705 887.388
7841.16 911.16 912.533 909.246 913.058
7843.91 905.493 921.629 920.224 915.887
7846.66 948.233 925.674 918.191 908.249
7849.42 923.295 928.99 886.33 892.177
7852.17 915.444 879.067 872.009 842.769
7854.92 798.463 821.116 769.968 803.427
7857.67 749.44 791.34 768.303 782.242
7860.42 826.117 824.784 808.453 810.725
7863.17 898.795 849.866 855.42 824.072
7865.92 824.687 838.369 808.342 814.938
7868.67 791.626 823.975 781.052 804.474
7871.42 855.614 854.329 824.028 837.349
7874.17 915.749 872.53 906.965 853.942
7876.92 846.228 886.486 830.832 866.785
7879.67 897.482 889.426 862.557 856.579
7882.42 924.568 868.175 876.347 825.557
7885.17 782.474 875.035 737.767 839.506
7887.92 918.063 815.994 904.405 790.72
7890.67 747.445 831.723 729.987 824.822
7893.42 829.66 794.004 840.073 789.05
7896.16 804.905 828.07 797.089 825.368
7898.91 849.644 841.372 838.942 823.777
7901.66 869.566 832.084 835.299 812.777
7904.41 777.041 796.43 764.09 771.961
7907.15 742.683 790.491 716.493 776.786
7909.9 851.75 777.149 849.773 765.503
7912.65 737.013 797.19 730.241 796.27
7915.39 802.807 814.21 808.795 814.362
7918.14 902.81 837.679 904.049 829.691
7920.89 807.419 867.396 776.23 873.619
7923.63 891.96 846.287 940.577 855.28
7926.38 839.481 834.113 849.032 857.559
7929.12 770.899 810.491 783.067 832.322
7931.87 821.092 833.136 864.865 836.779
7934.62 907.416 849.313 862.406 843.802
7937.36 819.431 843.345 804.135 823.548
7940.1 803.188 797.518 804.102 786.891
7942.85 769.935 805.789 752.437 789.716
7945.59 844.245 790.236 812.611 775.9
7948.34 756.528 776.527 762.652 769.378
7951.08 728.808 760.729 732.87 754.944
7953.83 796.85 788.208 769.311 768.308
7956.57 838.966 819.533 802.743 789.147
7959.31 822.784 805.855 795.387 782.838
7962.05 755.815 782.035 750.382 769.291
7964.8 767.506 756.363 762.103 734.727
7967.54 745.768 791.083 691.696 748.851
7970.28 859.976 781.088 792.756 738.913
7973.02 737.52 777.765 732.288 753.123
7975.77 735.799 758.547 734.326 754.757
7978.51 802.324 783.674 797.656 777.96
7981.25 812.9 783.335 801.899 770.051
7983.99 734.782 789.371 710.598 767.407
7986.73 820.429 781.237 789.722 742.889
7989.47 788.501 798.924 728.346 734.961
7992.21 787.843 763.698 686.813 714.154
7994.95 714.749 754.321 727.302 715.397
7997.69 760.37 756.961 732.076 735.442
8000.43 795.765 778.75 746.946 734.99
8003.17 780.115 782.89 725.948 736.877
8005.91 772.791 765.685 737.737 729.205
8008.65 744.149 768.739 723.931 746.262
8011.39 789.277 767.741 777.117 746.948
8014.13 769.798 754.116 739.797 733.99
8016.87 703.272 744.416 685.056 722.037
8019.61 760.177 711.453 741.256 691.838
8022.34 670.911 748.296 649.202 718.751
8025.08 813.799 752.119 765.795 702.709
8027.82 771.647 803.877 693.129 751.673
8030.56 826.187 773.818 796.095 715.579
8033.29 723.62 770.871 657.514 718.217
8036.03 762.805 745.174 701.043 687.076
8038.77 749.097 757.476 702.671 714.479
8041.51 760.526 745.619 739.724 716.146
8044.24 727.233 744.848 706.043 715.837
8046.98 746.786 733.468 701.743 693.076
8049.71 726.384 756.577 671.443 712.29
8052.45 796.561 762.951 763.683 724.544
8055.18 765.908 764.383 738.507 726.312
8057.92 730.682 715.271 676.745 673.26
8060.65 649.224 706.067 604.529 659.995
8063.39 738.294 712.14 698.712 680.318
8066.12 748.902 756.325 737.712 728.939
8068.86 781.778 768.622 750.394 742.016
8071.59 775.186 764.286 737.942 734.429
8074.33 735.892 753.135 714.952 708.474
8077.06 748.326 739.234 672.528 695.245
8079.79 733.483 756.594 698.256 712.85
8082.53 787.974 757.957 767.765 743.412
8085.26 752.414 763.531 764.214 755.591
8087.99 750.204 772.531 734.794 758.451
8090.73 814.974 775.497 776.345 741.899
8093.46 761.311 777.772 714.558 733.32
8096.19 757.029 745.386 709.058 705.078
8098.92 717.818 716.282 691.618 690.145
8101.65 673.997 702.901 669.76 683.228
8104.38 716.886 710.741 688.307 679.382
8107.12 741.339 715.419 680.079 675.962
8109.85 688.033 722.542 659.5 676.171
8112.58 738.256 711.115 688.933 666.261
8115.31 707.058 750.269 650.349 690.388
8118.04 805.494 735.499 731.881 674.003
8120.77 693.946 730.602 639.78 671.436
8123.5 692.367 704.431 642.647 647.623
8126.23 726.982 703.107 660.441 647.584
8128.96 689.973 711.956 639.664 657.742
8131.69 718.912 696.382 673.121 646.177
8134.42 680.262 699.193 625.748 643.516
8137.14 698.405 671.086 631.678 616.669
8139.87 634.592 666.444 592.58 613.338
8142.6 666.335 645.281 615.756 597.142
8145.33 634.917 665.077 583.09 614.88
8148.06 693.978 665.386 645.793 617.727
8150.78 667.264 661.002 624.299 620.062
8153.51 621.763 641.924 590.096 593.031
8156.24 636.746 643.392 564.698 582.914
8158.97 671.666 648.837 593.949 585.396
8161.69 638.098 643.775 597.542 585.337
8164.42 621.562 639.207 564.521 582.962
8167.15 657.96 638.197 586.822 570.895
8169.87 635.069 642.104 561.342 578.571
8172.6 633.283 623.392 587.549 574.575
8175.32 601.823 633.63 574.834 592.464
8178.05 665.783 650.741 615.007 605.54
8180.77 684.619 659.693 626.778 607.134
8183.5 628.679 635.816 579.616 583.969
8186.22 594.15 611.703 545.514 560.447
8188.95 612.279 623.951 556.21 570.376
8191.67 665.425 642.619 609.404 581.272
8194.4 650.153 647.615 578.203 588.04
8197.12 627.266 647.457 576.512 590.756
8199.84 664.952 658.854 617.552 608.397
8202.57 684.344 664.79 631.128 609.129
8205.29 645.075 656.55 578.708 593.986
8208.01 640.231 654.356 572.123 588.022
8210.73 677.763 653.419 613.235 584.038
8213.46 642.263 661.084 566.756 597.463
8216.18 663.227 641.339 612.398 575.178
8218.9 618.526 626.383 546.379 555.078
8221.62 597.396 601.09 506.456 525.962
8224.34 587.347 556.78 525.05 483.39
8227.06 485.598 546.922 418.662 480.734
8229.79 567.821 560.938 498.488 492.205
8232.51 629.396 612.788 559.464 540.068
8235.23 641.149 647.702 562.251 564.777
8237.95 672.56 704.446 572.615 587.023
8240.67 799.631 734.359 626.204 607.939
8243.39 730.888 732.181 624.997 624.558
8246.11 666.025 694.584 622.473 621.78
8248.83 686.839 668.155 617.871 609.603
8251.54 651.6 643.273 588.465 585.174
8254.26 591.379 631.214 549.185 573.02
8256.98 650.662 626.788 581.409 568.228
8259.7 638.322 652.325 574.091 578.912
8262.42 667.99 645.328 581.235 577.818
8265.14 629.672 649.702 578.129 584.935
8267.85 651.443 660.945 595.441 600.361
8270.57 701.722 679.919 627.513 603.548
8273.29 686.592 692.34 587.69 605.249
8276.01 688.706 664.358 600.543 575.08
8278.72 617.776 621.559 537.007 531.124
8281.44 558.194 602.237 455.823 514.009
8284.16 630.742 608.795 549.199 508.164
8286.87 637.451 635.812 519.47 558.039
8289.59 639.243 641.164 605.449 581.66
8292.3 646.798 630.583 620.061 584.792
8295.02 605.708 650.91 528.867 590.442
8297.73 700.224 678.513 622.397 600.143
8300.45 729.606 687.816 649.164 621.717
8303.16 633.619 700.321 593.59 636.285
8305.88 737.737 695.033 666.102 615.597
8308.59 713.744 720.017 587.098 621.181
8311.31 708.57 691.234 610.342 596.189
8314.02 651.387 666.659 591.125 577.583
8316.73 640.02 653.828 531.283 566.783
8319.45 670.076 658.29 577.942 570.236
8322.16 664.774 672.56 601.484 590.625
8324.87 682.829 677.687 592.449 599.623
8327.58 685.459 677.93 604.935 593.737
8330.3 665.503 650.955 583.826 570.927
8333.01 601.904 635.144 524.02 551.099
8335.72 638.025 627.764 545.451 538.861
8338.43 643.364 605.898 547.112 504.997
8341.14 536.305 564.844 422.428 485.378
8343.85 514.862 590.331 486.594 516.694
8346.56 719.826 615.126 641.06 578.831
8349.28 610.691 698.773 608.839 642.04
8351.99 765.803 656.42 676.221 573.515
8354.7 592.767 687.672 435.485 589.784
8357.41 704.446 641.042 657.646 545.511
8360.12 625.912 663.236 543.401 578.198
8362.82 659.35 658.731 533.548 551.276
8365.53 690.931 687.532 576.878 586.819
8368.24 712.315 700.235 650.033 612.017
8370.95 697.457 712.795 609.141 627.829
8373.66 728.613 696.367 624.313 605.62
8376.37 663.031 700.816 583.406 601.643
8379.08 710.805 678.14 597.211 565.898
8381.78 660.583 689.797 517.079 546.837
8384.49 698.003 671.173 526.221 530.267
8387.2 654.932 687.711 547.501 552.178
8389.91 710.198 688.399 582.813 580.868
8392.61 700.066 714.007 612.29 604.513
8395.32 731.757 708.984 618.436 597.528
8398.03 695.128 688.689 561.857 562.152
8400.73 639.181 674.03 506.162 556.128
8403.44 687.781 654.207 600.366 555.547
8406.14 635.659 667.603 560.114 576.975
8408.85 679.37 672.412 570.445 561.014
8411.55 702.206 668.301 552.482 552.067
8414.26 623.327 658.464 533.274 531.989
8416.96 649.859 632.174 510.209 530.881
8419.67 623.336 668.745 549.159 552.83
8422.37 733.04 661.866 599.123 547.007
8425.08 629.221 670.928 492.738 546.983
8427.78 650.523 631.508 549.087 512.619
8430.48 614.779 664.827 496.031 530.315
8433.19 729.179 651.309 545.827 517.532
8435.89 609.968 663.862 510.737 544.824
8438.59 652.438 649.137 577.907 542.485
8441.29 685.004 658.166 538.81 555.784
8444 637.057 663.549 550.634 556.575
8446.7 668.585 645.828 580.28 550.66
8449.4 631.843 654.626 521.066 554.633
8452.1 663.448 646.549 562.553 551.336
8454.8 644.357 671.749 570.39 587.335
8457.5 707.44 668.729 629.061 577.317
8460.2 654.391 657.038 532.499 543.365
8462.91 609.283 641.979 468.536 488.575
8465.61 662.264 629.823 464.69 470.297
8468.31 617.923 652.185 477.667 490.694
8471.01 676.367 650.407 529.725 524.306
8473.7 656.93 662.961 565.526 543.354
8476.4 655.585 674.216 534.812 569.684
8479.1 710.135 679.377 608.716 554.828
8481.8 672.413 663.794 520.958 546.941
8484.5 608.835 655.49 511.15 530.456
8487.2 685.222 658.405 559.259 549.61
8489.9 681.158 671.639 578.421 548.024
8492.59 648.538 661.104 506.393 534.333
8495.29 653.617 634.428 518.185 502.768
8497.99 601.128 648.663 483.725 522.274
8500.69 691.243 656.013 564.913 526.167
8503.38 675.667 665.991 529.864 533.39
8506.08 631.063 651.965 505.393 524.341
8508.78 649.165 631.793 537.767 496.19
8511.47 615.152 643.295 445.412 502.056
8514.17 665.568 655.621 522.991 524.241
8516.86 686.143 660.536 604.321 546.92
8519.56 629.895 658.104 513.449 554.977
8522.25 658.274 658.831 547.161 536.508
8524.95 688.323 649.238 548.915 540.848
8527.64 601.117 645.886 526.47 537.213
8530.34 648.22 650.778 536.254 544.908
8533.03 702.998 683.068 572.001 562.967
8535.73 697.985 691.907 580.645 567.797
8538.42 674.739 676.378 550.745 550.769
8541.11 656.41 662.913 520.916 532.432
8543.81 657.591 671.483 525.633 541.068
8546.5 700.447 679.865 576.655 551.221
8549.19 681.559 691.583 551.376 566.897
8551.89 692.744 670.284 572.659 549.38
8554.58 636.549 665.542 524.105 536.622
8557.27 667.332 659.705 513.102 521.116
8559.96 675.235 676.853 526.141 531.719
8562.65 687.992 671.558 555.914 531.604
8565.34 651.446 662.156 512.756 529.399
8568.03 647.03 671.004 519.526 537.311
8570.73 714.536 680.599 579.65 540.957
8573.42 680.23 690.502 523.694 541.369
8576.11 676.739 664.899 520.763 519.556
8578.8 637.726 650.633 514.21 517.166
8581.49 637.434 649.271 516.526 524.636
8584.17 672.652 666.188 543.173 528.803
8586.86 688.477 692.304 526.711 550.264
8589.55 715.782 699.338 580.908 561.444
8592.24 693.757 695.521 576.712 571.577
8594.93 677.024 683.257 557.111 548.439
8597.62 678.99 685.286 511.493 536.554
8600.31 699.842 689.531 541.058 531.852
8602.99 689.759 675.392 543.003 532.965
8605.68 636.574 646.215 514.833 514.091
8608.37 612.311 642.58 484.436 509.945
8611.06 678.854 657.337 530.565 508.074
8613.74 680.846 688.286 509.22 524.747
8616.43 705.159 704.057 534.456 544.691
8619.11 726.167 698.272 590.397 536.121
8621.8 663.491 693.514 483.511 537.685
8624.49 690.884 667.822 539.148 506.73
8627.17 649.09 654.038 497.531 508.377
8629.86 622.141 634.234 488.451 493.094
8632.54 631.47 637.265 493.299 495.883
8635.23 658.186 689.322 505.898 535.154
8637.91 778.31 716.745 606.265 561.352
8640.6 713.741 715.796 571.894 570.089
8643.28 655.337 674.797 532.108 539.472
8645.96 655.313 644.126 514.413 503.712
8648.65 621.729 677.819 464.614 527.218
8651.33 756.413 686.312 602.627 527.232
8654.01 680.793 719.11 514.454 558.5
8656.69 720.122 701.316 558.419 533.898
8659.38 703.034 708.747 528.821 546.716
8662.06 703.086 695.599 552.908 529.174
8664.74 680.679 661.136 505.791 521.931
8667.42 599.644 626.828 507.095 489.848
8670.1 600.161 599.297 456.66 485.669
8672.79 598.086 578.319 493.252 459.374
8675.47 536.71 584.037 428.21 472.427
8678.15 617.315 565.628 495.818 446.962
8680.83 542.858 587.013 416.858 458.945
8683.51 600.864 573.551 464.16 449.802
8686.19 576.93 618.392 468.389 478.12
8688.87 677.381 649.207 501.81 511.052
8691.55 693.31 680.257 562.956 533.485
8694.23 670.08 667.725 535.688 532.351
8696.9 639.784 667.851 498.408 516.156
8699.58 693.69 696.31 514.373 535.112
8702.26 755.456 708.969 592.554 537.546
8704.94 677.762 707.253 505.712 541.32
8707.62 688.543 688.519 525.695 515.975
8710.29 699.252 674.516 516.517 510.632
8712.97 635.752 667.995 489.685 506.993
8715.65 668.982 652.203 514.778 495.795
8718.33 651.875 686.57 482.922 522.932
8721 738.854 680.957 571.095 514.896
8723.68 652.142 696.574 490.672 527.37
8726.35 698.727 690.446 520.342 522.541
8729.03 720.469 685.451 556.61 512.769
8731.71 637.155 670.574 461.354 504.051
8734.38 654.098 657.688 494.19 488.692
8737.06 681.812 658.156 510.531 498.155
8739.73 638.557 658.292 489.745 492.93
8742.41 654.508 674.963 478.514 510.67
8745.08 731.823 696.84 563.752 523.704
8747.75 704.19 709.797 528.845 540.357
8750.43 693.379 694.744 528.473 522.072
8753.1 686.663 703.749 508.896 528.219
8755.77 731.205 752.883 547.287 570.214
8758.45 840.781 768.644 654.458 573.512
8761.12 733.945 780.317 518.791 608.182
8763.79 766.224 766.647 651.295 609.705
8766.46 799.772 781.602 659.028 650.883
8769.14 778.81 760.32 642.327 614.63
8771.81 702.377 772.584 542.535 624.319
8774.48 836.565 731.446 688.097 580.168
8777.15 655.396 696.818 509.873 547.029
8779.82 598.494 617.645 443.117 482.141
8782.49 599.043 615.121 493.433 504.678
8785.16 647.827 647.435 577.484 546.759
8787.83 695.435 668.583 569.359 542.265
8790.5 662.487 671.74 479.951 509.105
8793.17 657.297 612.167 478.004 464.447
8795.84 516.718 553.407 435.385 431.386
8798.51 486.205 532.797 380.771 427.744
8801.18 595.467 566.255 467.076 441.488
8803.85 617.094 617.342 476.618 482.747
8806.52 639.467 634.214 504.549 495.236
8809.18 646.082 640.679 504.54 505.626
8811.85 636.488 648.735 507.789 505.631
8814.52 663.635 652.822 504.564 497.616
8817.19 658.345 664.142 480.494 510.617
8819.85 670.447 734.363 546.794 574.797
8822.52 874.296 804.572 697.102 672.469
8825.19 868.973 871.913 773.51 733.056
8827.85 872.47 792.756 728.556 652.427
8830.52 636.826 682.666 455.216 512.984
8833.18 538.703 602.797 355.181 465.812
8835.85 632.862 551.919 587.04 444.327
8838.51 484.193 540.036 390.761 453.324
8841.18 503.053 531.54 382.17 412.812
8843.84 607.373 572.657 465.504 445.994
8846.51 607.544 637.961 490.307 498.13
8849.17 698.965 646.661 538.58 512.402
8851.84 633.473 644.336 508.319 523.763
8854.5 600.571 619.597 524.391 510.907
8857.16 624.745 604.936 500.011 472.926
8859.83 589.491 614.881 394.376 458.034
8862.49 630.407 666.087 479.716 488.152
8865.15 778.364 723.339 590.365 547.608
8867.81 761.248 726.816 572.742 553.281
8870.48 640.837 645.32 496.737 482.012
8873.14 533.874 616.302 376.556 449.508
8875.8 674.194 621.35 475.231 464.084
8878.46 655.983 728.324 540.464 560.715
8881.12 854.796 793.707 666.449 634.25
8883.78 870.341 838.224 695.836 647.155
8886.44 789.533 735.829 579.18 601.339
8889.1 547.613 567.968 529.001 489.875
8891.76 366.757 443.73 361.444 407.636
8894.42 416.819 464.874 332.463 386.841
8897.08 611.047 599.884 466.615 462.236
8899.74 771.784 689.152 587.631 526.259
8902.4 684.624 718.91 524.53 538.801
8905.06 700.322 652.399 504.243 475.985
8907.72 572.25 582.738 399.183 438.103
8910.37 475.642 587.433 410.883 467.874
8913.03 714.407 663.533 593.556 515.185
8915.69 800.551 815.306 541.114 617.322
8918.35 930.959 828.476 717.295 593.16
8921 753.918 718.043 521.07 540.38
8923.66 469.251 509.997 382.775 370.015
8926.32 306.821 385.224 206.202 247.715
8928.97 379.599 430.683 154.168 259.363
8931.63 605.63 527.676 417.718 308.949
8934.28 597.798 613.996 354.962 417.032
8936.94 638.561 630.389 478.417 421.659
8939.59 654.808 667.994 431.598 472.685
8942.25 710.615 680.857 508.04 497.898
8944.9 677.148 644.256 554.056 476.292
8947.56 545.004 575.853 366.78 434.598
8950.21 505.406 588.929 382.959 416.187
8952.87 716.378 655.882 498.821 475.593
8955.52 745.861 731.764 545 541.291
8958.17 733.053 720.211 580.053 567.626
8960.82 681.719 663.074 577.826 508.439
8963.48 574.449 494.745 367.439 322.684
8966.13 228.066 372.505 22.7871 156.759
8968.78 315.002 347.438 80.0523 116.973
8971.43 499.246 445.895 248.08 208.146
8974.09 523.437 528.655 296.306 310.988
8976.74 563.283 548.851 388.577 348.028
8979.39 559.833 568.399 359.201 393.485
8982.04 582.08 577.259 432.676 403.333
8984.69 589.865 576.005 418.124 406.334
8987.34 556.07 583.038 368.202 425.426
8989.99 603.178 546.13 489.952 411.655
8992.64 479.142 495.505 376.812 387.542
8995.29 404.195 502.903 295.862 364.905
8997.94 625.372 556.282 422.04 398.097
9000.59 639.279 604.998 476.388 458.129
9003.23 550.344 605.829 475.958 492.667
9005.88 627.865 552.787 525.655 410.841
9008.53 480.152 485.072 230.91 277.474
9011.18 347.2 434.728 75.8575 181.068
9013.83 476.833 432.527 236.437 186.667
9016.47 473.549 481.88 247.707 251.661
9019.12 495.257 486.735 270.837 285.01
9021.77 491.399 497.14 336.485 317.356
9024.41 504.763 514.541 344.746 351.144
9027.06 547.461 548.942 372.203 377
9029.71 594.603 558.116 414.053 389.836
9032.35 532.285 554.522 383.252 391.682
9035 536.679 554.821 377.741 400.438
9037.64 595.5 594.614 440.322 434.981
9040.29 651.661 615.949 486.881 436.683
9042.93 600.686 618.964 382.846 408.419
9045.58 604.545 606.378 355.53 377.561
9048.22 613.902 604.723 394.307 394.413
9050.86 595.72 597.935 433.402 418.306
9053.51 584.183 605.076 427.208 422.619
9056.15 635.326 578.157 407.246 376.41
9058.79 514.963 537.958 294.777 309.276
9061.44 463.586 484.79 225.807 273.127
9064.08 475.821 493.377 298.796 290.293
9066.72 540.724 515.415 346.276 343.62
9069.36 529.701 506.504 385.789 336.389
9072 449.086 414.196 277.103 278.035
9074.64 263.802 237.629 171.213 149.439
