wavelength spec_sum spec_optimal
3527.51 8.90688 14.9482
3530.43 16.3575 16.0069
3533.35 12.9208 11.9703
3536.26 16.7807 20.1205
3539.18 13.7658 4.62917
3542.1 13.3105 20.1447
3545.02 5.77915 18.6478
3547.93 3.78047 13.3247
3550.85 16.7116 19.2682
3553.77 23.3708 29.074
3556.68 8.66975 21.3663
3559.6 17.9274 18.828
3562.52 18.0153 21.6386
3565.43 14.6535 18.0821
3568.35 18.1649 17.3346
3571.27 20.1779 28.0957
3574.18 15.4284 11.1972
3577.1 17.1468 16.9196
3580.02 15.1944 19.1926
3582.93 12.1176 16.3548
3585.85 17.1827 21.4171
3588.77 18.7462 20.2146
3591.68 15.738 22.2096
3594.6 12.9679 20.2395
3597.52 13.4689 20.1501
3600.44 24.5434 27.3209
3603.35 24.258 26.2023
3606.27 12.1633 20.2479
3609.19 22.9163 23.6426
3612.1 10.9678 15.4046
3615.02 18.9154 20.7196
3617.94 21.5065 25.4374
3620.85 18.8193 18.2737
3623.77 17.3157 23.508
3626.69 16.8895 13.5485
3629.6 11.0933 13.1641
3632.52 17.1111 22.0178
3635.44 14.6129 16.2561
3638.35 13.5588 17.8557
3641.27 18.7769 21.8158
3644.18 12.6068 7.28789
3647.1 19.1048 18.3199
3650.02 17.2534 16.6412
3652.93 15.9492 13.7819
3655.85 15.1441 14.8849
3658.77 13.1846 10.7124
3661.68 21.3518 25.3715
3664.6 20.1551 21.7982
3667.52 17.6633 19.3859
3670.43 15.1795 19.5854
3673.35 8.76612 11.78
3676.27 17.2724 13.5789
3679.18 13.0406 13.1608
3682.1 15.6031 15.4548
3685.02 19.8773 19.5991
3687.93 19.1801 20.6178
3690.85 16.6699 15.2302
3693.76 18.3003 14.4092
3696.68 20.2382 20.8555
3699.6 15.1879 9.95438
3702.51 18.7369 23.57
3705.43 22.6914 21.0691
3708.35 18.7448 16.9162
3711.26 14.3864 11.7072
3714.18 25.7066 21.5496
3717.1 15.6947 10.3015
3720.01 22.8851 19.0078
3722.93 21.9842 16.5695
3725.84 13.1481 17.3153
3728.76 21.7336 14.3505
3731.68 13.7283 18.5883
3734.59 14.8026 13.0469
3737.51 18.7653 16.4576
3740.42 15.0478 11.2146
3743.34 21.4856 21.2699
3746.26 11.9789 13.1196
3749.17 22.6113 23.8222
3752.09 20.0156 22.9037
3755 20.0443 14.6097
3757.92 20.5355 24.2687
3760.84 23.3676 29.147
3763.75 26.6649 20.005
3766.67 14.966 16.3472
3769.58 18.2389 19.3586
3772.5 20.091 25.4925
3775.42 25.5683 24.3388
3778.33 20.1442 24.1307
3781.25 23.755 26.7583
3784.16 26.4281 32.6011
3787.08 22.382 27.6528
3790 21.1963 23.2012
3792.91 19.9786 25.4249
3795.83 18.255 22.356
3798.74 16.0367 18.6337
3801.66 16.8409 15.428
3804.57 18.5838 21.5958
3807.49 20.271 19.3925
3810.41 14.756 16.7469
3813.32 19.3509 16.6051
3816.24 20.9118 23.7665
3819.15 20.7697 24.5084
3822.07 23.0642 24.8724
3824.98 20.4141 21.732
3827.9 21.3732 18.9791
3830.82 22.3775 25.6701
3833.73 23.5565 21.7821
3836.65 24.7649 23.3828
3839.56 30.2525 30.8956
3842.48 25.5857 27.3476
3845.39 22.4908 27.6875
3848.31 18.8661 20.2139
3851.22 26.8558 24.5465
3854.14 21.456 20.0752
3857.05 23.4705 23.9735
3859.97 20.614 21.206
3862.89 23.416 22.974
3865.8 19.804 22.041
3868.72 22.7388 24.3916
3871.63 20.6105 20.9818
3874.55 20.1005 22.8612
3877.46 22.5524 18.8098
3880.38 18.4177 19.8697
3883.29 21.8371 21.0536
3886.21 26.7368 25.6462
3889.12 17.019 17.0073
3892.04 18.4934 18.266
3894.95 20.2256 16.6041
3897.87 19.7072 20.5899
3900.78 17.5075 15.5961
3903.7 22.6395 20.7901
3906.61 21.0388 21.3471
3909.53 28.4239 30.0416
3912.44 19.8257 24.074
3915.36 33.3432 33.5679
3918.27 28.4192 30.6991
3921.19 27.6912 27.6076
3924.1 25.16 27.6603
3927.02 20.6215 20.915
3929.93 22.6131 24.2423
3932.85 22.1309 22.4917
3935.76 21.758 19.7237
3938.68 22.7508 22.8805
3941.59 19.239 18.5254
3944.51 20.7271 19.7021
3947.42 22.0329 24.0034
3950.33 23.8229 26.9245
3953.25 26.8587 29.0869
3956.16 19.9575 21.2376
3959.08 21.4764 23.4156
3961.99 23.5203 25.7518
3964.91 23.3625 21.336
3967.82 21.8364 23.034
3970.74 27.826 26.8342
3973.65 21.3691 24.2695
3976.56 23.9375 24.9019
3979.48 24.4032 25.5262
3982.39 19.925 20.9201
3985.31 23.0702 20.4425
3988.22 17.5881 17.964
3991.14 18.3792 19.4601
3994.05 20.8071 22.3457
3996.96 24.1431 23.1535
3999.88 20.4756 21.0483
4002.79 23.4477 22.4243
4005.71 23.1115 23.344
4008.62 22.4464 21.5582
4011.53 27.5255 27.1291
4014.45 25.0062 27.5963
4017.36 22.8624 21.7208
4020.28 23.7224 22.9056
4023.19 23.7866 22.7332
4026.1 16.9721 17.3809
4029.02 16.9565 18.7344
4031.93 21.4216 19.8579
4034.85 17.5324 21.7284
4037.76 25.4758 27.6639
4040.67 21.1075 21.6755
4043.59 28.5834 29.1987
4046.5 25.7871 24.9588
4049.41 25.8424 27.4356
4052.33 25.9874 29.4045
4055.24 35.5006 32.9496
4058.16 29.2435 27.1506
4061.07 26.663 29.641
4063.98 31.1926 27.839
4066.9 30.5448 29.3299
4069.81 29.504 29.1659
4072.72 31.446 30.4987
4075.64 32.9522 34.2692
4078.55 29.8958 29.5752
4081.46 35.5442 33.3016
4084.38 32.9493 33.6125
4087.29 30.888 35.4661
4090.2 31.1635 30.7394
4093.12 29.8562 31.1221
4096.03 33.0893 32.4335
4098.94 33.9804 32.8762
4101.86 27.7281 27.2214
4104.77 34.0006 34.8458
4107.68 29.917 29.6059
4110.59 36.2875 32.5613
4113.51 30.8668 34.0726
4116.42 31.0566 30.1209
4119.33 35.6328 31.1651
4122.25 27.2126 25.7792
4125.16 31.702 33.1146
4128.07 29.7757 27.9021
4130.98 37.1836 33.5292
4133.9 28.6046 25.5154
4136.81 33.4242 34.8759
4139.72 32.6624 35.6162
4142.63 27.7396 30.4405
4145.55 35.2599 33.8598
4148.46 30.4388 31.1019
4151.37 30.691 31.0866
4154.28 30.517 30.3228
4157.2 33.1509 33.6947
4160.11 25.8229 27.1999
4163.02 31.0275 33.2386
4165.93 29.06 28.1106
4168.85 32.3104 31.7928
4171.76 31.9203 31.5159
4174.67 29.3804 31.6075
4177.58 33.9214 31.5477
4180.5 33.1866 32.4907
4183.41 32.5106 32.4878
4186.32 31.127 30.4706
4189.23 31.0694 30.7125
4192.14 35.6898 32.5446
4195.06 33.0514 32.7972
4197.97 28.8009 28.7005
4200.88 32.7516 30.8815
4203.79 33.2464 32.557
4206.7 31.8771 34.5577
4209.61 30.9848 30.0931
4212.53 30.7678 31.4162
4215.44 35.3501 34.9848
4218.35 31.1064 30.028
4221.26 31.0512 32.9948
4224.17 34.8543 34.1152
4227.08 31.5611 28.6881
4230 34.4191 30.1501
4232.91 28.653 30.6927
4235.82 30.2791 31.9497
4238.73 32.0197 31.2707
4241.64 35.6645 34.458
4244.55 32.1897 32.6141
4247.46 32.3129 31.6858
4250.38 33.9347 33.1286
4253.29 31.4274 30.0157
4256.2 32.7375 32.0275
4259.11 31.1389 30.0531
4262.02 31.4054 29.6902
4264.93 29.8029 30.0242
4267.84 34.325 34.3837
4270.75 31.9151 29.7196
4273.66 28.4882 28.7289
4276.57 33.502 32.3385
4279.49 29.2691 29.5329
4282.4 28.4713 27.4828
4285.31 35.0651 36.3115
4288.22 35.1153 34.8818
4291.13 34.4675 34.7419
4294.04 31.0384 32.4988
4296.95 32.7335 31.8496
4299.86 29.7539 31.7403
4302.77 36.1813 35.9743
4305.68 34.3028 32.6227
4308.59 35.6652 33.4908
4311.5 34.4718 32.5037
4314.41 38.1597 36.7742
4317.32 35.1609 33.1535
4320.23 32.4941 33.2687
4323.14 34.467 32.0845
4326.05 38.456 36.154
4328.96 30.6155 31.1328
4331.87 34.2306 35.9138
4334.78 35.1315 34.6013
4337.69 33.6373 33.5825
4340.6 33.5863 31.6061
4343.51 33.5875 30.6746
4346.42 30.8166 30.5842
4349.33 32.0065 30.1129
4352.24 33.3649 30.957
4355.15 31.6936 33.4035
4358.06 32.5225 34.8356
4360.97 30.2862 29.4865
4363.88 30.9083 30.3086
4366.79 29.3448 28.9839
4369.7 31.0008 31.1598
4372.61 29.8157 28.3955
4375.52 29.2056 29.0394
4378.43 30.2691 29.4961
4381.34 35.2075 34.9366
4384.25 35.1143 33.7947
4387.15 31.2326 32.2009
4390.06 32.0332 31.8391
4392.97 35.2828 34.0605
4395.88 37.0708 34.0762
4398.79 33.309 31.3694
4401.7 32.3022 31.6641
4404.61 33.7339 32.746
4407.52 33.198 34.3324
4410.43 37.1675 34.6552
4413.34 33.4712 33.0661
4416.24 30.6224 28.6343
4419.15 36.3119 34.8045
4422.06 33.9598 34.9999
4424.97 36.6619 38.1953
4427.88 36.2925 34.3196
4430.79 36.9103 34.8911
4433.7 34.2 37.5515
4436.6 35.2488 33.6488
4439.51 38.1883 38.0007
4442.42 38.1571 36.2184
4445.33 36.3175 35.4309
4448.24 31.0783 31.1707
4451.14 31.0673 31.4129
4454.05 34.4795 34.5265
4456.96 34.7766 37.2337
4459.87 35.7112 35.2449
4462.78 33.6022 35.7138
4465.68 40.7542 38.204
4468.59 30.5794 29.2458
4471.5 36.5177 35.0539
4474.41 36.5062 33.9349
4477.32 38.6705 38.2842
4480.22 36.9847 37.4298
4483.13 37.4871 39.2059
4486.04 34.7982 33.7238
4488.95 36.5965 35.8709
4491.85 35.2197 34.8418
4494.76 39.3502 35.9472
4497.67 35.7248 32.617
4500.58 40.2326 38.7165
4503.48 34.2414 33.61
4506.39 40.6823 40.4898
4509.3 35.2649 34.9171
4512.2 37.1016 37.6832
4515.11 41.2756 39.4167
4518.02 38.0039 38.3906
4520.92 39.4743 40.5183
4523.83 37.6191 36.4151
4526.74 35.9743 39.1117
4529.65 34.0142 32.7544
4532.55 37.4422 38.2172
4535.46 38.7135 40.1238
4538.37 39.0654 38.6654
4541.27 35.0783 34.0851
4544.18 37.4698 36.7449
4547.08 36.1437 34.7811
4549.99 38.9569 36.8186
4552.9 41.1426 38.6429
4555.8 38.5174 37.1075
4558.71 40.1716 38.9914
4561.62 42.7022 39.0637
4564.52 42.3115 39.3249
4567.43 37.0775 33.9801
4570.33 39.9169 36.6509
4573.24 42.7495 39.1848
4576.15 44.0019 38.7026
4579.05 43.2397 40.4499
4581.96 44.9864 42.0778
4584.86 34.141 33.0747
4587.77 41.7169 39.5264
4590.67 40.5521 34.9156
4593.58 38.3491 35.2945
4596.49 37.2812 34.0929
4599.39 42.0283 36.9222
4602.3 42.1895 36.8358
4605.2 40.8322 31.3115
4608.11 43.4632 36.9976
4611.01 38.6009 33.7238
4613.92 41.7059 35.7705
4616.82 40.9461 35.3064
4619.73 41.6129 36.1213
4622.63 40.7915 33.9038
4625.54 41.5367 33.1087
4628.44 45.1514 34.3548
4631.35 43.1783 32.561
4634.25 39.7638 31.5069
4637.16 41.2189 34.5353
4640.06 44.8113 35.119
4642.97 48.8866 38.219
4645.87 43.7414 35.2758
4648.77 45.1822 35.7515
4651.68 41.5063 32.5071
4654.58 47.4509 35.13
4657.49 42.2632 33.6664
4660.39 43.5366 32.168
4663.3 44.32 33.4226
4666.2 43.3163 31.6306
4669.1 44.5576 33.1977
4672.01 43.2073 30.4141
4674.91 49.9559 35.7743
4677.82 44.3427 33.6593
4680.72 44.8618 32.7533
4683.62 50.4869 39.1147
4686.53 45.3079 36.7582
4689.43 50.5423 35.4617
4692.33 47.9323 33.569
4695.24 43.6328 35.0942
4698.14 44.6309 33.1049
4701.04 51.2948 40.7322
4703.95 50.0465 40.5676
4706.85 45.3715 35.5929
4709.75 47.1774 38.2836
4712.66 44.8491 38.003
4715.56 44.0185 34.6764
4718.46 43.1868 36.139
4721.37 46.9162 36.7515
4724.27 47.7898 39.3334
4727.17 44.9442 35.8327
4730.08 42.0534 34.3932
4732.98 39.0987 32.24
4735.88 42.8845 34.0351
4738.78 41.9797 34.2754
4741.69 46.9978 38.848
4744.59 44.5888 36.1385
4747.49 45.0421 35.525
4750.39 44.8057 37.521
4753.29 44.3222 33.4183
4756.2 41.2027 33.4363
4759.1 43.8626 36.9478
4762 44.1537 36.5044
4764.9 44.274 34.2892
4767.81 43.8064 34.8497
4770.71 41.5528 32.5074
4773.61 44.4283 37.2262
4776.51 40.7383 33.6549
4779.41 42.257 35.7965
4782.31 40.245 33.7422
4785.22 41.2776 33.8292
4788.12 43.4423 36.1987
4791.02 45.7101 37.7374
4793.92 45.4465 36.124
4796.82 39.7485 31.6893
4799.72 44.5655 36.2352
4802.62 41.8724 34.6665
4805.52 46.6652 38.6149
4808.43 44.1434 36.3343
4811.33 44.3761 36.1312
4814.23 42.1992 34.9019
4817.13 42.2952 36.5812
4820.03 45.2672 36.4636
4822.93 41.5801 35.2692
4825.83 45.0181 35.7983
4828.73 45.6099 39.306
4831.63 44.3497 37.315
4834.53 46.5287 36.3065
4837.43 43.615 34.7854
4840.33 48.1561 38.7475
4843.23 45.8451 37.6208
4846.13 42.5507 38.9966
4849.03 45.3378 37.0726
4851.93 45.4632 38.5401
4854.83 44.8813 37.8999
4857.73 49.9487 41.4627
4860.63 44.2139 36.973
4863.53 46.5936 37.8357
4866.43 48.7808 41.4014
4869.33 48.8142 38.1486
4872.23 47.2227 37.4933
4875.13 44.571 38.279
4878.03 48.2672 40.3114
4880.93 45.2831 38.5755
4883.83 46.2203 40.5941
4886.73 49.4441 41.4493
4889.63 49.2058 42.9015
4892.53 53.6058 44.3038
4895.42 44.2958 38.6977
4898.32 52.195 46.0103
4901.22 48.3623 42.7218
4904.12 49.5114 45.7685
4907.02 45.3187 40.02
4909.92 47.7862 41.3543
4912.82 48.1128 41.4191
4915.72 48.2693 41.1069
4918.61 51.9406 45.5254
4921.51 45.0887 38.296
4924.41 44.1521 37.6587
4927.31 46.4755 38.4897
4930.21 46.1628 38.407
4933.1 47.9537 41.5613
4936 45.8133 39.0401
4938.9 43.2451 36.2596
4941.8 43.001 38.1515
4944.7 43.9783 35.9547
4947.59 43.3263 37.2834
4950.49 45.3249 37.7433
4953.39 44.2476 37.3005
4956.29 45.0551 37.5803
4959.18 39.4694 33.739
4962.08 41.8891 34.6041
4964.98 44.9018 38.3981
4967.88 46.8369 39.1597
4970.77 49.4529 41.3374
4973.67 45.4218 37.2499
4976.57 45.1857 38.4755
4979.46 45.9472 39.346
4982.36 48.0869 39.8692
4985.26 47.7977 41.2169
4988.15 48.9896 41.638
4991.05 44.3537 36.0447
4993.95 45.9853 37.1848
4996.84 47.659 39.9161
4999.74 46.0709 39.1966
5002.64 48.5497 42.1898
5005.53 46.7949 40.4951
5008.43 48.8465 40.3003
5011.32 45.0155 38.5751
5014.22 45.9395 39.921
5017.12 49.0463 41.7917
5020.01 49.5591 43.5278
5022.91 50.3038 43.7105
5025.8 49.573 42.2032
5028.7 46.9983 39.1167
5031.59 45.6435 38.8501
5034.49 49.7166 43.6213
5037.39 49.8772 43.6216
5040.28 47.9945 39.9255
5043.18 48.79 42.8331
5046.07 49.7716 44.6083
5048.97 49.8017 43.4738
5051.86 50.9371 45.5633
5054.76 46.389 40.7353
5057.65 47.3501 42.3236
5060.55 46.7578 41.7447
5063.44 48.0943 42.6695
5066.34 48.8013 45.3757
5069.23 48.4736 42.7055
5072.12 50.1266 43.1376
5075.02 46.5902 41.9563
5077.91 49.8871 44.0575
5080.81 49.5976 42.0976
5083.7 49.7402 44.1744
5086.6 49.0493 43.0229
5089.49 48.5186 43.4637
5092.38 46.8554 43.3194
5095.28 49.3246 43.4535
5098.17 48.7476 44.4674
5101.06 48.6544 42.1818
5103.96 48.3881 42.7647
5106.85 49.0759 45.2057
5109.74 47.9384 43.1443
5112.64 47.0774 43.6207
5115.53 50.1277 44.4071
5118.42 43.5583 40.1511
5121.32 46.0191 43.2325
5124.21 47.7628 45.4456
5127.1 47.963 43.0171
5130 46.2364 40.8726
5132.89 48.9207 44.0317
5135.78 51.5998 46.5286
5138.67 49.8168 41.3736
5141.57 50.2903 45.4937
5144.46 50.0741 44.5364
5147.35 49.076 44.0936
5150.24 50.0715 45.8933
5153.14 50.4612 44.7621
5156.03 51.3906 46.0454
5158.92 48.9443 45.6214
5161.81 47.2303 42.2211
5164.7 47.7015 43.0955
5167.6 50.0031 44.9789
5170.49 46.4713 41.1368
5173.38 51.2637 46.2854
5176.27 49.3119 45.6104
5179.16 46.6869 44.3474
5182.05 49.0194 45.9777
5184.94 49.8155 47.3365
5187.84 51.8756 47.6824
5190.73 50.7932 46.6596
5193.62 53.3605 49.2916
5196.51 49.5438 45.1066
5199.4 51.8284 46.4546
5202.29 50.501 46.5651
5205.18 47.1972 44.0434
5208.07 48.247 46.0131
5210.96 49.6274 44.6746
5213.85 52.419 47.0084
5216.74 48.7076 46.5042
5219.63 52.5028 46.4437
5222.52 44.9129 41.6576
5225.41 48.1707 43.2794
5228.3 49.2554 45.8043
5231.19 47.7614 43.9139
5234.08 47.5944 43.2691
5236.97 47.535 44.9693
5239.86 49.5999 45.669
5242.75 48.6074 45.1903
5245.64 47.5876 45.1043
5248.53 46.3989 43.1708
5251.42 47.1057 42.175
5254.31 46.4681 41.1582
5257.2 45.8775 42.6688
5260.09 46.9324 45.2605
5262.98 50.3991 45.5899
5265.86 47.8979 44.8401
5268.75 45.8767 42.7075
5271.64 48.5316 43.2753
5274.53 51.5111 46.5229
5277.42 47.1938 43.0109
5280.31 51.4685 46.3035
5283.2 49.1905 44.8809
5286.08 49.7112 45.6884
5288.97 50.6451 45.0056
5291.86 49.2465 44.4903
5294.75 48.4709 44.9137
5297.64 51.9508 49.017
5300.52 52.1475 49.6174
5303.41 49.7395 46.6195
5306.3 48.8114 46.7078
5309.19 48.6663 47.749
5312.07 51.1941 49.0336
5314.96 51.1993 47.7365
5317.85 52.816 47.9279
5320.74 51.8556 49.7372
5323.62 53.8667 49.2017
5326.51 52.7825 49.5962
5329.4 54.0567 50.0673
5332.28 46.1679 43.5046
5335.17 55.2963 51.764
5338.06 52.083 47.9835
5340.94 49.6287 45.3676
5343.83 50.6209 47.018
5346.72 50.3832 46.9243
5349.6 50.9528 46.693
5352.49 49.0265 47.0841
5355.38 47.0639 45.0487
5358.26 53.0738 49.2167
5361.15 53.9285 51.3375
5364.03 55.5996 50.8469
5366.92 54.159 49.52
5369.8 54.0473 51.8539
5372.69 57.0705 54.2162
5375.58 52.5751 51.1011
5378.46 50.6003 46.7296
5381.35 52.8219 48.6968
5384.23 51.5534 49.346
5387.12 54.7907 51.2038
5390 56.0513 54.1112
5392.89 57.691 54.0215
5395.77 55.3301 51.8528
5398.66 57.8282 54.1818
5401.54 54.6829 53.1358
5404.42 53.5234 49.5855
5407.31 52.2881 48.8093
5410.19 53.3157 50.114
5413.08 49.8708 46.8393
5415.96 54.5804 51.8514
5418.85 50.9743 47.3714
5421.73 52.538 49.8992
5424.61 54.4791 51.1662
5427.5 53.5258 49.9841
5430.38 54.4419 51.7901
5433.26 54.2894 52.1855
5436.15 56.7877 54.4485
5439.03 55.5622 54.1053
5441.91 56.18 52.1068
5444.8 55.5561 52.8942
5447.68 54.7236 52.0658
5450.56 57.2125 53.7502
5453.45 53.8266 50.9746
5456.33 54.4781 52.6461
5459.21 52.7947 51.7693
5462.09 55.6004 52.6855
5464.98 55.6786 53.2763
5467.86 55.3417 52.9085
5470.74 54.5671 51.0912
5473.62 56.2979 52.7639
5476.51 54.1949 52.1807
5479.39 52.0586 49.486
5482.27 54.1908 52.0297
5485.15 54.1722 50.8365
5488.03 52.0637 48.8428
5490.91 58.3328 53.1903
5493.8 53.6477 51.8366
5496.68 56.0371 53.1055
5499.56 51.4206 50.091
5502.44 52.6755 51.9377
5505.32 53.5131 51.7402
5508.2 55.5729 52.6586
5511.08 59.0994 57.1993
5513.96 55.4163 51.4592
5516.84 52.0119 50.6299
5519.73 55.6841 55.0882
5522.61 56.6189 53.4963
5525.49 59.6538 55.4787
5528.37 54.7417 51.952
5531.25 52.6451 50.3407
5534.13 53.6841 52.1869
5537.01 55.7233 53.6356
5539.89 54.0029 52.7156
5542.77 54.0978 50.9002
5545.65 55.623 52.1827
5548.53 52.5925 52.1513
5551.41 53.9583 51.6928
5554.28 53.7554 51.1192
5557.16 54.5602 51.758
5560.04 55.8435 53.7369
5562.92 55.9759 54.3932
5565.8 57.5529 57.8141
5568.68 57.0222 59.3816
5571.56 58.9458 61.6083
5574.44 55.9823 53.7803
5577.32 61.5104 55.0644
5580.19 61.8024 62.98
5583.07 56.7574 55.9814
5585.95 55.9801 54.7158
5588.83 54.4075 53.5556
5591.71 55.0333 51.6749
5594.59 53.2043 51.0177
5597.46 56.5535 54.9152
5600.34 54.7092 52.8029
5603.22 58.3541 55.5222
5606.1 60.6207 57.7161
5608.97 55.3552 54.0993
5611.85 56.4491 53.9011
5614.73 51.8819 50.6975
5617.61 56.1469 53.7262
5620.48 55.7451 54.79
5623.36 58.8794 56.3826
5626.24 54.4191 53.8235
5629.11 55.4652 53.2491
5631.99 59.7163 58.5578
5634.87 58.7722 57.7392
5637.74 56.5239 54.2756
5640.62 58.4868 55.1818
5643.49 57.0578 54.9314
5646.37 53.832 53.4945
5649.25 57.4806 55.5155
5652.12 56.9109 54.1057
5655 55.4708 53.8892
5657.87 55.4763 54.154
5660.75 56.9259 53.8439
5663.63 56.2045 55.5115
5666.5 52.5088 51.7869
5669.38 53.4334 52.7212
5672.25 53.4186 51.8033
5675.13 57.1614 55.8131
5678 52.4528 51.723
5680.88 54.8741 53.6358
5683.75 55.4478 52.5434
5686.62 55.0703 51.8725
5689.5 56.617 55.8546
5692.37 59.2005 56.1288
5695.25 54.9524 53.1371
5698.12 56.3947 56.2907
5701 57.0829 56.3518
5703.87 56.2108 55.3592
5706.74 56.774 55.0402
5709.62 56.2974 56.1514
5712.49 54.6731 52.3909
5715.36 60.6009 58.503
5718.24 54.7865 53.2265
5721.11 58.5111 56.9199
5723.98 56.4655 54.6759
5726.86 56.3005 55.5981
5729.73 57.3077 55.6357
5732.6 55.4511 53.415
5735.48 57.6597 56.2262
5738.35 57.2513 55.2052
5741.22 58.5075 56.384
5744.09 56.2374 55.1973
5746.97 58.6666 56.5844
5749.84 57.6339 55.5788
5752.71 56.2947 54.6843
5755.58 58.2415 55.9544
5758.45 60.1178 57.6753
5761.33 61.7654 58.7911
5764.2 56.7165 54.4196
5767.07 58.479 53.9405
5769.94 62.1267 60.2923
5772.81 57.2779 55.3719
5775.68 58.6489 55.7798
5778.55 61.9848 57.9199
5781.43 58.3165 53.598
5784.3 57.7087 53.8252
5787.17 62.078 58.196
5790.04 58.9602 55.0821
5792.91 60.0396 55.0167
5795.78 60.3918 55.0435
5798.65 58.2555 55.9903
5801.52 61.8605 55.9587
5804.39 62.6725 57.5882
5807.26 60.5803 54.5489
5810.13 66.7033 59.8215
5813 63.5925 57.8263
5815.87 67.2123 62.1777
5818.74 66.3273 58.6943
5821.61 67.4898 60.6934
5824.48 64.0289 57.1632
5827.34 64.9707 58.2202
5830.21 64.4903 57.689
5833.08 65.9452 59.6694
5835.95 66.1346 59.3302
5838.82 64.5149 57.1023
5841.69 63.0173 57.9092
5844.56 63.7582 58.1725
5847.43 67.2746 58.9757
5850.29 66.5046 59.1827
5853.16 65.8191 57.3247
5856.03 62.2108 55.7407
5858.9 66.2868 60.9669
5861.77 67.3974 63.4128
5864.63 65.5867 59.8324
5867.5 60.9559 55.9631
5870.37 63.4214 57.7059
5873.24 62.7278 57.2124
5876.1 64.5867 60.274
5878.97 60.2577 55.2334
5881.84 66.2597 59.8634
5884.7 64.8588 57.9853
5887.57 70.0759 63.4748
5890.44 65.1319 59.7139
5893.3 61.7698 56.1063
5896.17 63.9788 61.3301
5899.04 59.6647 55.7991
5901.9 61.4009 55.9736
5904.77 63.796 56.3245
5907.63 61.655 57.2482
5910.5 63.8384 58.9007
5913.37 61.1651 57.0311
5916.23 63.1751 59.4002
5919.1 64.5863 60.427
5921.96 67.0134 62.0389
5924.83 68.5908 63.2076
5927.69 67.5555 61.001
5930.56 67.6745 62.0681
5933.42 60.9629 58.8891
5936.29 62.7943 57.1471
5939.15 63.8768 59.2115
5942.02 60.9677 58.0766
5944.88 60.8974 57.0231
5947.74 62.9532 59.582
5950.61 64.8817 60.8864
5953.47 62.4229 57.1585
5956.34 63.1676 58.4173
5959.2 64.4539 59.4409
5962.06 64.3879 61.3219
5964.93 66.6637 61.6493
5967.79 64.7034 59.8276
5970.65 62.5022 58.9137
5973.52 63.9586 57.3742
5976.38 55.5869 52.1658
5979.24 52.631 49.2917
5982.11 54.8826 50.2871
5984.97 56.9819 54.4199
5987.83 57.4913 52.5102
5990.69 58.3702 55.2807
5993.56 57.1836 53.6517
5996.42 60.7094 56.8477
5999.28 60.6457 57.652
6002.14 64.0192 61.4986
6005 61.048 59.2711
6007.86 59.7684 58.6114
6010.73 59.572 55.5619
6013.59 62.195 59.1948
6016.45 62.8775 60.8101
6019.31 63.33 60.2601
6022.17 63.745 62.1869
6025.03 60.3333 58.6146
6027.89 63.96 61.766
6030.75 61.1645 59.485
6033.61 61.4284 59.102
6036.47 60.7313 59.3857
6039.33 61.1556 59.457
6042.2 61.9654 59.5166
6045.06 59.6694 58.0804
6047.92 63.9187 60.6232
6050.77 61.798 60.5481
6053.63 66.2561 64.264
6056.49 64.286 60.664
6059.35 60.0682 58.1546
6062.21 58.5385 57.2612
6065.07 62.0435 58.4633
6067.93 63.5097 60.6416
6070.79 63.1086 59.046
6073.65 64.1988 62.3212
6076.51 60.2658 59.5629
6079.37 63.0679 61.7896
6082.22 61.4579 60.7213
6085.08 60.5423 58.727
6087.94 60.1882 58.4206
6090.8 63.9587 62.6016
6093.66 60.0341 58.3181
6096.51 64.1682 62.3167
6099.37 59.9944 58.9872
6102.23 60.0533 58.798
6105.09 64.1097 61.5903
6107.94 59.6647 58.9284
6110.8 63.2024 61.439
6113.66 57.8314 56.4443
6116.52 61.7433 59.3779
6119.37 62.6386 61.2363
6122.23 62.437 60.6741
6125.09 64.7518 63.5157
6127.94 63.6771 61.5501
6130.8 65.3503 62.8135
6133.65 64.8057 62.9955
6136.51 65.2355 62.9261
6139.37 63.4238 60.5979
6142.22 63.593 61.6518
6145.08 61.9028 61.2943
6147.93 63.554 63.4591
6150.79 64.3027 62.4307
6153.64 62.9567 62.3614
6156.5 63.7023 61.2666
6159.35 65.2535 62.991
6162.21 60.919 59.5441
6165.06 64.0485 62.9619
6167.92 64.9377 62.0596
6170.77 66.0174 64.3177
6173.63 62.2843 60.6333
6176.48 61.7465 60.6277
6179.33 62.3415 62.9715
6182.19 65.1136 64.158
6185.04 63.0483 62.657
6187.9 63.0186 62.0916
6190.75 60.0938 58.3698
6193.6 64.4194 62.3132
6196.46 59.9083 59.1623
6199.31 59.1526 58.1785
6202.16 63.2206 61.7904
6205.01 61.9662 60.1722
6207.87 60.8555 61
6210.72 63.8599 63.527
6213.57 60.0625 59.9796
6216.43 60.8579 59.7649
6219.28 65.1447 63.1061
6222.13 62.4507 61.2617
6224.98 58.3607 58.2322
6227.83 62.7367 61.9447
6230.68 59.8235 59.2304
6233.54 61.3916 58.433
6236.39 61.6223 60.1308
6239.24 65.8642 63.2214
6242.09 62.7227 61.2239
6244.94 62.3762 59.8991
6247.79 63.1354 60.3568
6250.64 59.689 58.7513
6253.49 57.6521 56.142
6256.34 57.5625 57.4484
6259.19 56.5298 56.6664
6262.04 59.2545 58.8962
6264.89 58.4579 58.7483
6267.74 57.4396 57.3144
6270.59 59.7103 59.9589
6273.44 61.2858 59.6352
6276.29 59.8793 59.7592
6279.14 59.7471 58.6481
6281.99 56.8746 57.6697
6284.84 60.1072 59.7824
6287.69 56.7441 55.9481
6290.54 60.1314 61.6767
6293.39 59.9606 57.7875
6296.24 58.004 59.5869
6299.08 61.9065 60.0369
6301.93 62.0311 60.6778
6304.78 58.901 58.6074
6307.63 56.1605 54.9314
6310.48 57.2136 57.154
6313.32 58.4304 58.5165
6316.17 54.3598 55.7215
6319.02 61.1353 59.237
6321.87 59.6392 59.0316
6324.71 59.7575 58.6263
6327.56 62.4141 61.1987
6330.41 53.8133 54.3815
6333.25 58.4272 57.9314
6336.1 60.8625 60.2347
6338.95 59.4143 60.4402
6341.79 54.1234 54.1563
6344.64 60.8745 58.1991
6347.49 60.7962 60.9715
6350.33 58.046 57.399
6353.18 60.0775 59.5208
6356.02 61.0384 58.354
6358.87 62.6837 62.8624
6361.71 63.0172 63.4394
6364.56 61.1595 60.9465
6367.4 59.8825 59.8322
6370.25 59.7286 58.7918
6373.09 61.5095 63.3566
6375.94 59.0423 57.8487
6378.78 59.4289 56.8963
6381.63 65.0333 63.136
6384.47 62.5509 61.2133
6387.32 61.7213 60.6146
6390.16 59.4843 58.3401
6393 61.2692 60.7874
6395.85 60.5464 61.2501
6398.69 60.3411 60.1169
6401.53 64.1424 62.9887
6404.38 62.6553 62.5314
6407.22 61.2944 62.7093
6410.06 62.0711 62.3554
6412.91 62.0126 62.7341
6415.75 57.2447 58.1013
6418.59 63.7073 64.0488
6421.43 60.7652 61.1484
6424.28 66.0921 67.0657
6427.12 59.0698 58.5224
6429.96 62.5422 62.9888
6432.8 57.2325 58.8021
6435.64 63.6159 61.0993
6438.49 63.4664 62.7111
6441.33 61.1876 60.773
6444.17 61.8056 60.9266
6447.01 59.3729 59.0647
6449.85 61.8888 61.3893
6452.69 61.6631 62.9005
6455.53 58.7846 60.0193
6458.37 61.8655 61.9923
6461.21 57.6276 58.2644
6464.05 60.6294 60.8691
6466.89 60.8038 61.7082
6469.73 60.4014 62.1081
6472.57 64.047 63.7494
6475.41 61.997 61.945
6478.25 63.0078 62.1345
6481.09 64.6347 63.812
6483.93 63.8558 63.4876
6486.77 62.7339 62.678
6489.61 57.5841 58.1355
6492.45 58.4407 59.1368
6495.29 58.9249 59.2966
6498.12 63.0463 63.2987
6500.96 60.8175 62.5301
6503.8 62.171 62.4697
6506.64 60.5731 60.4829
6509.48 58.1101 57.5109
6512.31 54.8646 56.7735
6515.15 58.4463 57.0247
6517.99 58.6686 59.3625
6520.83 60.7255 61.3544
6523.66 59.8111 60.2508
6526.5 63.16 64.3612
6529.34 57.0985 58.452
6532.17 62.1899 62.9493
6535.01 57.7063 58.6022
6537.85 58.4931 59.7231
6540.68 63.6054 63.7726
6543.52 61.4974 60.9324
6546.36 60.1564 59.8853
6549.19 59.4418 58.7475
6552.03 59.9796 61.2781
6554.86 57.883 58.5941
6557.7 62.0878 63.1616
6560.53 59.5962 60.3835
6563.37 60.3315 60.8696
6566.2 62.1031 61.7039
6569.04 60.1796 59.2267
6571.87 60.319 58.4583
6574.71 61.8099 62.9264
6577.54 63.3994 63.592
6580.38 58.0108 58.1362
6583.21 60.6514 60.3613
6586.04 63.6854 62.8304
6588.88 58.1111 58.6673
6591.71 56.9515 57.1035
6594.54 58.3304 58.9137
6597.38 61.9725 61.7795
6600.21 59.8982 58.6752
6603.04 60.4704 60.6295
6605.88 62.1475 62.4864
6608.71 59.897 59.9521
6611.54 65.2347 64.6015
6614.37 59.7067 59.3075
6617.21 66.262 67.7842
6620.04 63.2389 63.5448
6622.87 60.9033 62.6283
6625.7 64.3897 64.6211
6628.53 61.8452 61.7933
6631.37 63.064 63.9535
6634.2 63.7776 64.1055
6637.03 61.1652 61.4222
6639.86 65.9699 68.0317
6642.69 64.7152 65.8422
6645.52 69.5077 71.2511
6648.35 69.4604 69.7565
6651.18 67.0228 68.1473
6654.01 71.2898 71.43
6656.84 88.7204 90.2973
6659.67 101.593 104.682
6662.5 106.547 108.747
6665.33 103.167 101.847
6668.16 87.587 86.7341
6670.99 78.3031 78.8779
6673.82 71.9439 72.1832
6676.65 72.2712 72.4632
6679.48 77.5213 79.1065
6682.31 76.5152 78.5723
6685.13 78.6921 79.7572
6687.96 74.7321 76.0394
6690.79 68.1421 68.9277
6693.62 67.2175 67.2909
6696.45 65.6966 67.2598
6699.27 65.2912 65.9365
6702.1 63.3402 64.1359
6704.93 68.7116 70.3093
6707.76 63.0939 63.745
6710.58 63.7926 64.816
6713.41 64.433 65.6584
6716.24 64.8989 66.2261
6719.06 67.3505 67.3933
6721.89 65.8253 68.7041
6724.72 65.7402 68.065
6727.54 64.486 66.2159
6730.37 66.3431 66.929
6733.19 61.5485 63.1306
6736.02 62.2523 62.1275
6738.85 62.2708 64.129
6741.67 65.4384 66.3359
6744.5 63.2742 64.4971
6747.32 62.1135 63.1806
6750.15 62.817 64.3649
6752.97 62.4662 62.3609
6755.8 67.9772 68.5077
6758.62 65.0493 64.9193
6761.44 62.755 61.4537
6764.27 68.1427 67.9357
6767.09 61.2257 62.2663
6769.92 67.5438 67.1024
6772.74 63.5013 64.4761
6775.56 64.6273 64.3583
6778.39 64.4136 62.3104
6781.21 64.8555 64.1668
6784.03 68.5067 66.5038
6786.86 66.3093 66.6887
6789.68 68.808 68.3844
6792.5 64.8392 64.2988
6795.32 68.3795 66.1304
6798.15 67.9974 65.839
6800.97 70.6203 69.2254
6803.79 64.4151 62.833
6806.61 65.7381 64.3711
6809.43 66.8647 63.832
6812.25 69.1377 66.8217
6815.08 71.9829 70.4559
6817.9 77.9299 74.34
6820.72 73.2422 69.4107
6823.54 71.5208 68.4931
6826.36 71.358 68.6712
6829.18 71.9688 67.5184
6832 67.8891 63.6648
6834.82 76.0334 68.7402
6837.64 72.3674 68.0033
6840.46 67.91 63.2317
6843.28 66.0066 61.2214
6846.1 66.3026 61.7642
6848.92 62.8095 59.9295
6851.74 68.3293 64.1532
6854.56 64.6392 60.8045
6857.37 66.0926 61.4096
6860.19 65.5041 61.744
6863.01 62.3832 59.1343
6865.83 53.6492 51.2653
6868.65 53.6912 51.4763
6871.47 53.2189 49.9446
6874.28 53.3354 49.3177
6877.1 52.4689 48.9257
6879.92 59.0771 55.7841
6882.74 60.3805 56.5909
6885.55 60.6549 57.0847
6888.37 58.645 55.4656
6891.19 59.9031 57.048
6894 60.2507 55.7227
6896.82 59.4592 56.9069
6899.64 59.5851 55.662
6902.45 58.8075 55.761
6905.27 61.7846 58.4654
6908.08 63.2558 59.906
6910.9 65.1924 61.5009
6913.72 67.6688 65.2274
6916.53 64.2069 61.3337
6919.35 65.6643 61.9692
6922.16 63.2304 58.2922
6924.98 67.3322 64.4079
6927.79 63.3877 60.5279
6930.6 64.7963 59.6545
6933.42 63.2074 61.1185
6936.23 63.5361 58.7751
6939.05 63.7102 61.7223
6941.86 64.5184 60.5049
6944.67 65.7365 63.0857
6947.49 61.5252 60.4176
6950.3 59.5526 58.3404
6953.11 64.8932 61.8101
6955.93 64.1976 61.8976
6958.74 64.3541 63.3698
6961.55 65.6072 63.6939
6964.37 65.24 63.5601
6967.18 63.1859 63.543
6969.99 63.905 62.0745
6972.8 65.8956 64.2449
6975.61 65.2872 65.602
6978.42 67.327 65.8743
6981.24 64.8669 63.5339
6984.05 63.9666 64.785
6986.86 65.494 64.6503
6989.67 63.48 62.9736
6992.48 67.4823 65.9846
6995.29 65.4408 64.0404
6998.1 64.3136 63.9475
7000.91 67.002 65.7497
7003.72 61.5741 62.0346
7006.53 62.3404 61.8172
7009.34 66.6113 63.4756
7012.15 64.2869 65.0257
7014.96 68.732 67.2117
7017.77 63.802 63.9865
7020.58 66.6586 66.0918
7023.39 65.3477 65.0743
7026.2 63.6027 62.4677
7029 66.1458 65.3356
7031.81 61.9637 60.0942
7034.62 63.8444 63.0829
7037.43 66.3425 66.2579
7040.24 62.0211 61.9411
7043.04 66.8259 63.5292
7045.85 66.4388 64.9231
7048.66 61.9032 61.4839
7051.47 65.9796 64.1549
7054.27 65.2024 63.2095
7057.08 62.3643 63.4175
7059.89 64.8392 64.853
7062.69 61.8046 62.0043
7065.5 67.3478 68.553
7068.31 63.024 64.2868
7071.11 64.8808 65.3021
7073.92 61.96 62.9889
7076.72 66.088 66.723
7079.53 66.34 69.6088
7082.33 66.9751 65.5541
7085.14 65.0697 66.2032
7087.94 64.0562 64.8807
7090.75 64.1659 65.915
7093.55 64.1018 64.9332
7096.36 64.0857 65.4497
7099.16 65.1574 63.4761
7101.97 62.3767 62.8793
7104.77 62.3545 62.8405
7107.57 63.3944 65.8271
7110.38 66.2597 67.7449
7113.18 59.1127 59.4449
7115.98 63.7761 64.4349
7118.79 63.5668 64.7507
7121.59 65.055 66.1684
7124.39 64.116 64.1279
7127.19 64.6977 64.9877
7130 58.8914 61.4019
7132.8 65.9958 66.6242
7135.6 64.161 65.3651
7138.4 66.1168 65.9112
7141.2 66.7648 67.1678
7144 65.2248 64.9537
7146.81 60.8745 62.0289
7149.61 61.9947 61.22
7152.41 66.0802 64.9552
7155.21 67.6095 71.3224
7158.01 60.5659 64.6373
7160.81 67.0914 66.4487
7163.61 61.1481 61.9987
7166.41 59.6276 59.4166
7169.21 57.0467 57.7813
7172.01 57.7925 59.4391
7174.81 55.047 53.214
7177.61 56.3288 55.9868
7180.41 54.3862 55.8413
7183.2 55.7701 56.7015
7186 53.5965 51.2929
7188.8 54.545 55.7251
7191.6 51.9998 52.0047
7194.4 53.6326 52.2768
7197.2 53.9615 53.6947
7199.99 53.1546 53.8966
7202.79 61.447 61.5007
7205.59 55.8896 56.6979
7208.39 54.398 55.089
7211.18 62.181 64.137
7213.98 58.8347 60.3795
7216.78 61.2518 62.2007
7219.57 61.3159 61.4532
7222.37 58.0782 56.4411
7225.17 57.1298 60.1055
7227.96 56.1154 57.3239
7230.76 53.4196 54.854
7233.55 58.3924 56.5899
7236.35 60.6703 58.8108
7239.14 52.3149 51.9005
7241.94 52.819 52.3914
7244.73 53.6829 53.081
7247.53 51.9672 58.2396
7250.32 49.2512 51.3192
7253.12 56.8896 58.2029
7255.91 54.2939 54.6475
7258.71 51.4745 52.0208
7261.5 55.1139 56.3989
7264.29 53.8401 54.8736
7267.09 49.8758 50.6642
7269.88 56.6754 55.5805
7272.67 50.5697 52.4
7275.47 52.7336 56.0915
7278.26 54.6786 58.0131
7281.05 58.8005 57.399
7283.84 56.7792 60.2763
7286.63 55.1996 57.6445
7289.43 54.9863 58.4103
7292.22 59.7488 60.5806
7295.01 53.9363 55.6839
7297.8 58.9361 58.3822
7300.59 55.6476 54.6038
7303.38 54.5659 56.8817
7306.17 52.992 53.9912
7308.96 58.136 56.8381
7311.76 56.8311 54.6695
7314.55 54.9827 56.661
7317.34 59.906 60.7063
7320.13 59.2401 63.1146
7322.92 62.0622 64.7127
7325.7 58.6334 62.3769
7328.49 58.778 58.8393
7331.28 59.4653 63.2204
7334.07 66.1885 64.9204
7336.86 55.7952 55.7717
7339.65 62.2777 63.3016
7342.44 58.0501 61.1608
7345.23 59.0119 64.9805
7348.01 60.6958 64.0014
7350.8 60.63 60.6549
7353.59 57.4649 57.0177
7356.38 62.8398 62.3771
7359.16 62.46 62.0916
7361.95 58.1602 56.044
7364.74 59.3758 61.4534
7367.52 62.8957 59.5189
7370.31 64.8859 63.7322
7373.1 60.832 64.7611
7375.88 56.3934 59.6137
7378.67 62.4694 63.4394
7381.46 59.242 61.6529
7384.24 58.5321 60.5742
7387.03 62.3338 60.5894
7389.81 61.8583 61.0696
7392.6 58.4026 60.0135
7395.38 61.612 59.7337
7398.17 60.9497 62.1258
7400.95 57.7627 59
7403.73 63.8203 66.5738
7406.52 66.1648 64.6554
7409.3 61.4339 63.3163
7412.09 61.4679 60.6631
7414.87 60.4207 59.3575
7417.65 61.8039 61.7416
7420.44 63.7042 62.9297
7423.22 61.4132 59.8789
7426 63.1778 62.793
7428.78 62.5847 59.9
7431.57 67.2895 67.3014
7434.35 63.2565 62.442
7437.13 62.6621 63.1013
7439.91 67.5857 66.5246
7442.69 64.8028 64.4166
7445.48 65.4073 67.5416
7448.26 66.5666 65.3342
7451.04 66.8102 66.784
7453.82 63.8092 63.6085
7456.6 66.7818 65.6046
7459.38 66.0852 64.3078
7462.16 64.8733 64.0869
7464.94 67.6298 67.4476
7467.72 69.6711 68.2671
7470.5 61.6474 58.4819
7473.28 64.7644 64.8431
7476.06 68.5069 68.4842
7478.84 63.81 64.588
7481.62 69.1679 67.164
7484.39 63.564 64.4067
7487.17 64.6652 65.7958
7489.95 68.651 69.2977
7492.73 62.9352 61.3372
7495.51 61.0678 63.3959
7498.28 60.0633 61.6662
7501.06 62.3979 64.986
7503.84 64.1161 64.1979
7506.62 61.7825 63.1725
7509.39 65.5604 67.6089
7512.17 61.7531 62.295
7514.95 65.3854 64.455
7517.72 65.0852 63.3239
7520.5 65.0786 64.1851
7523.27 62.5702 61.0701
7526.05 56.8599 61.3558
7528.83 67.001 68.7485
7531.6 59.9775 63.2714
7534.38 63.0706 63.2924
7537.15 56.9766 56.5004
7539.93 59.0159 60.9363
7542.7 60.8382 59.9484
7545.47 58.1021 60.3466
7548.25 59.5873 59.6807
7551.02 59.431 58.7822
7553.8 58.2846 57.6036
7556.57 59.5751 58.7656
7559.34 59.3436 58.9137
7562.12 62.8846 65.1381
7564.89 59.393 60.7114
7567.66 62.8394 62.3837
7570.43 61.1184 59.0068
7573.21 60.7775 58.7227
7575.98 59.7783 62.0273
7578.75 57.8545 57.288
7581.52 59.9807 62.1984
7584.29 58.9355 58.772
7587.07 57.0221 58.1099
7589.84 50.1765 53.3345
7592.61 42.0982 42.7995
7595.38 28.5802 27.6596
7598.15 26.1113 23.3454
7600.92 18.7193 16.8729
7603.69 16.2103 15.3502
7606.46 19.9921 18.3535
7609.23 22.6758 21.037
7612 30.0358 28.6688
7614.77 39.8966 40.5142
7617.54 39.9725 38.8215
7620.31 38.3324 38.5548
7623.08 38.613 37.7324
7625.84 32.9019 32.3682
7628.61 35.1204 31.4611
7631.38 35.1438 33.9095
7634.15 34.5708 32.4592
7636.92 37.6896 36.1345
7639.68 41.5455 40.6414
7642.45 38.4087 38.4914
7645.22 42.0267 41.8998
7647.99 44.2509 41.2396
7650.75 46.6516 45.7376
7653.52 49.8005 50.0173
7656.28 52.5842 50.8604
7659.05 55.2104 53.258
7661.82 56.533 54.8688
7664.58 56.0141 52.1343
7667.35 58.0241 56.4437
7670.11 61.1145 59.405
7672.88 60.1077 56.1137
7675.64 61.9789 58.9209
7678.41 60.4104 55.6074
7681.17 63.0085 59.0014
7683.94 59.1667 58.7257
7686.7 61.8159 58.1774
7689.47 67.1419 62.74
7692.23 62.7985 58.1282
7694.99 60.1727 58.1096
7697.76 65.6147 61.3297
7700.52 63.0458 60.3075
7703.28 58.1399 55.7871
7706.04 66.1889 61.5861
7708.81 71.3008 62.7351
7711.57 65.1458 57.0428
7714.33 68.6119 60.7141
7717.09 62.3739 58.8165
7719.85 59.5948 60.0486
7722.62 59.4759 61.1842
7725.38 63.5031 59.0902
7728.14 66.1035 62.6109
7730.9 63.9281 60.4453
7733.66 65.2875 62.5784
7736.42 67.503 62.0537
7739.18 66.1999 60.9166
7741.94 61.0137 62.1816
7744.7 69.5799 59.723
7747.46 65.0474 57.6501
7750.22 68.0584 60.0048
7752.98 64.4747 66.7934
7755.74 66.9932 63.0188
7758.5 66.0825 66.3729
7761.25 62.5373 64.1394
7764.01 64.321 65.0123
7766.77 67.9865 65.1909
7769.53 70.8123 67.055
7772.29 64.6213 62.3736
7775.04 64.7397 58.95
7777.8 59.7492 54.7826
7780.56 60.2961 58.9526
7783.31 61.5381 60.2513
7786.07 62.6316 60.9636
7788.83 70.3908 61.1292
7791.58 67.0137 58.0313
7794.34 68.7359 66.2194
7797.1 63.7493 61.4148
7799.85 62.0239 61.7959
7802.61 69.3924 65.4994
7805.36 57.7424 55.4779
7808.12 66.2327 62.0119
7810.87 63.3484 65.3347
7813.63 53.8849 57.0882
7816.38 58.9797 55.2927
7819.13 68.8824 61.508
7821.89 68.2044 60.9683
7824.64 62.803 64.5132
7827.4 61.2177 58.4812
7830.15 64.6419 62.6788
7832.9 63.5001 63.6938
7835.65 59.5318 59.4242
7838.41 63.6397 64.2923
7841.16 64.2971 64.4281
7843.91 65.0813 65.3834
7846.66 68.003 65.4263
7849.42 67.441 63.3391
7852.17 67.0105 62.4858
7854.92 56.0959 55.3319
7857.67 55.0864 55.3605
7860.42 61.1672 58.449
7863.17 60.8353 62.0301
7865.92 62.0796 58.7782
7868.67 63.8847 56.9721
7871.42 62.1062 60.3023
7874.17 68.451 66.5893
7876.92 60.0549 61.2031
7879.67 60.7954 63.7441
7882.42 62.9008 64.9811
7885.17 58.0657 54.8813
7887.92 68.8005 67.5311
7890.67 60.7093 54.6923
7893.42 58.3828 63.1733
7896.16 56.4804 60.1681
7898.91 60.4344 63.5645
7901.66 63.044 63.5233
7904.41 57.7447 58.3128
7907.15 56.6675 54.8755
7909.9 67.8771 65.3489
7912.65 56.438 56.3558
7915.39 66.2314 62.6774
7918.14 66.1407 70.3472
7920.89 61.4446 60.6442
7923.63 68.5224 73.7687
7926.38 66.8797 66.8443
7929.12 63.162 61.8632
7931.87 64.6921 68.593
7934.62 69.009 68.657
7937.36 63.2411 64.245
7940.1 64.6764 64.4649
7942.85 63.1092 60.538
7945.59 69.241 65.605
7948.34 64.0402 61.7716
7951.08 55.1596 59.5515
7953.83 62.2274 62.7019
7956.57 61.6258 65.627
7959.31 64.5934 65.2083
7962.05 64.9902 61.6798
7964.8 59.9497 62.797
7967.54 56.2714 57.1279
7970.28 64.0453 65.6363
7973.02 57.4164 60.7691
7975.77 61.853 61.0737
7978.51 64.5435 66.465
7981.25 64.8389 66.9313
7983.99 53.3383 59.4264
7986.73 61.1012 66.175
7989.47 68.2645 61.1234
7992.21 69.3575 57.7247
7994.95 58.2868 61.2293
7997.69 59.3674 61.7329
8000.43 62.1231 63.0957
8003.17 61.029 61.4247
8005.91 60.1978 62.5191
8008.65 60.0563 61.463
8011.39 60.9579 66.0739
8014.13 58.8444 63.016
8016.87 51.2563 58.4474
8019.61 56.955 63.3767
8022.34 52.8395 55.6332
8025.08 66.9265 65.7545
8027.82 61.5079 59.6276
8030.56 60.8262 68.6831
8033.29 52.4258 56.822
8036.03 57.8925 60.7721
8038.77 60.0453 61.0562
8041.51 60.1373 64.4628
8044.24 57.5235 61.7002
8046.98 56.991 61.5149
8049.71 58.6465 59.0335
8052.45 65.0973 67.3657
8055.18 59.8738 65.3534
8057.92 59.0016 60.0555
8060.65 54.2039 53.8262
8063.39 60.7757 62.4424
8066.12 55.6684 66.1458
8068.86 60.47 67.5248
8071.59 61.8014 66.6235
8074.33 60.0403 64.7735
8077.06 62.4522 61.1177
8079.79 58.115 63.6727
8082.53 62.2524 70.2864
8085.26 58.5074 70.1785
8087.99 62.0255 67.7311
8090.73 66.4277 71.7823
8093.46 62.3283 66.2788
8096.19 63.0827 65.9713
8098.92 58.6506 64.5619
8101.65 53.1381 62.7386
8104.38 60.8083 64.666
8107.12 62.3229 64.0771
8109.85 56.4064 62.3174
8112.58 63.0935 65.2815
8115.31 58.9281 61.8157
8118.04 66.9295 69.7491
8120.77 58.6263 61.1362
8123.5 59.7465 61.577
8126.23 60.9516 63.4653
8128.96 56.6991 61.6217
8131.69 61.6318 65.0215
8134.42 56.2853 60.5985
8137.14 59.4766 61.3372
8139.87 52.3773 57.6959
8142.6 55.894 60.1106
8145.33 53.7588 57.0745
8148.06 58.0452 63.3792
8150.78 54.9415 61.439
8153.51 52.9366 58.2301
8156.24 53.9323 55.8964
8158.97 58.0598 58.9562
8161.69 52.7916 59.4596
8164.42 54.0105 56.3436
8167.15 56.0103 58.7485
8169.87 55.6089 56.3678
8172.6 55.5193 59.1798
8175.32 51.7692 58.0974
8178.05 54.164 62.3507
8180.77 59.3991 63.756
8183.5 54.049 59.1304
8186.22 52.9382 55.8284
8188.95 53.6774 57.1149
8191.67 56.807 62.7846
8194.4 55.8534 59.7639
8197.12 54.7227 59.7657
8199.84 55.9748 64.2296
8202.57 60.5773 65.8432
8205.29 58.7816 60.5667
8208.01 57.048 60.0584
8210.73 59.1786 64.5633
8213.46 56.3308 59.8271
8216.18 60.0075 64.8372
8218.9 54.8488 57.9785
8221.62 53.2325 53.8762
8224.34 50.7782 56.001
8227.06 42.3405 44.7462
8229.79 50.8786 53.3884
8232.51 56.8382 60.0328
8235.23 57.9988 60.4365
8237.95 60.8329 61.6601
8240.67 72.8021 67.5498
8243.39 66.1469 67.4906
8246.11 59.8274 67.284
8248.83 59.8068 66.865
8251.54 56.8003 63.7491
8254.26 53.3279 59.5509
8256.98 58.1874 63.0934
8259.7 57.5679 62.3353
8262.42 61.3004 63.1582
8265.14 56.1859 62.8629
8267.85 57.7825 64.7933
8270.57 60.4503 68.3431
8273.29 58.0865 64.0614
8276.01 60.3214 65.4961
8278.72 57.6273 58.5999
8281.44 49.9265 49.7725
8284.16 58.558 60.0318
8286.87 55.0824 56.8616
8289.59 52.9027 66.3336
8292.3 53.8778 68.0229
8295.02 52.6084 58.0827
8297.73 59.2918 68.4653
8300.45 67.0707 71.5261
8303.16 54.0013 65.5313
8305.88 59.3904 73.6857
8308.59 60.5662 65.0943
8311.31 61.9845 67.8185
8314.02 57.632 65.8586
8316.73 59.147 59.3545
8319.45 58.2446 64.7355
8322.16 57.8938 67.577
8324.87 60.6557 66.7592
8327.58 59.184 68.3585
8330.3 59.9344 66.1695
8333.01 54.6303 59.5733
8335.72 52.5619 62.2301
8338.43 52.4749 62.6044
8341.14 54.0166 48.4574
8343.85 47.7288 56.0066
8346.56 69.4299 74.0043
8349.28 48.4576 70.5343
8351.99 61.9039 78.5223
8354.7 54.4693 50.7015
8357.41 56.9926 76.7675
8360.12 54.1439 63.6128
8362.82 59.0629 62.619
8365.53 65.9764 67.829
8368.24 63.6117 76.6205
8370.95 60.9613 71.9247
8373.66 63.6638 73.8324
8376.37 59.2096 69.1002
8379.08 67.2244 70.8338
8381.78 63.4256 61.3601
8384.49 66.5265 62.5401
8387.2 60.8207 65.1057
8389.91 59.9513 69.3633
8392.61 61.3482 72.9319
8395.32 70.6386 73.6984
8398.03 66.98 66.9758
8400.73 62.0901 60.3528
8403.44 63.2131 71.6344
8406.14 54.6969 66.8555
8408.85 58.8616 68.1091
8411.55 64.3322 65.992
8414.26 59.1985 63.7506
8416.96 58.4296 60.9959
8419.67 54.172 65.7185
8422.37 61.5115 71.7215
8425.08 54.6047 59.0404
8427.78 66.3773 65.8297
8430.48 57.4537 59.5648
8433.19 68.4831 65.5916
8435.89 54.5545 61.431
8438.59 57.0822 69.6198
8441.29 59.5291 65.0253
8444 55.0102 66.5522
8446.7 57.2755 70.2688
8449.4 57.0519 63.2346
8452.1 57.4441 68.434
8454.8 56.2421 69.5156
8457.5 58.0118 76.8625
8460.2 54.9145 65.2376
8462.91 64.7074 57.5256
8465.61 59.0175 57.1754
8468.31 57.5059 58.9547
8471.01 61.7452 65.5766
8473.7 57.7441 70.1536
8476.4 56.5877 66.4997
8479.1 62.641 75.8872
8481.8 59.3426 65.1006
8484.5 55.5115 64.0455
8487.2 60.3364 70.2177
8489.9 61.2398 72.8096
8492.59 59.8877 63.8659
8495.29 60.5202 65.5046
8497.99 55.2742 61.2508
8500.69 61.9381 71.6539
8503.38 67.0391 67.3077
8506.08 59.1033 64.2821
8508.78 62.9091 68.4717
8511.47 58.7649 56.7854
8514.17 62.0742 66.7249
8516.86 62.0032 77.1718
8519.56 55.8588 65.6084
8522.25 60.831 69.9481
8524.95 63.434 70.1945
8527.64 56.7817 67.3299
8530.34 62.0878 68.6112
8533.03 65.992 73.185
8535.73 66.731 74.2935
8538.42 63.7672 70.456
8541.11 61.9367 66.6472
8543.81 62.2835 67.2531
8546.5 65.5745 73.762
8549.19 64.81 70.5171
8551.89 67.2632 73.2316
8554.58 56.6419 67.0412
8557.27 63.7381 65.6334
8559.96 63.9813 67.3255
8562.65 64.9087 71.1516
8565.34 62.1371 65.6475
8568.03 61.5886 66.5457
8570.73 68.0849 74.2824
8573.42 64.6055 67.1477
8576.11 65.3957 66.8214
8578.8 61.8403 66.0393
8581.49 60.3816 66.4174
8584.17 62.0308 69.9219
8586.86 65.5066 67.8856
8589.55 68.8477 74.9868
8592.24 65.7869 74.5586
8594.93 65.2392 72.142
8597.62 61.9042 66.3266
8600.31 67.2109 70.3006
8602.99 66.0722 70.663
8605.68 61.0969 67.122
8608.37 56.9208 63.2932
8611.06 62.1788 69.466
8613.74 65.0257 66.7919
8616.43 67.0892 70.2566
8619.11 66.8531 77.7892
8621.8 59.8131 63.8255
8624.49 64.9446 71.3413
8627.17 60.3256 65.9964
8629.86 56.5379 64.9332
8632.54 59.9508 65.7373
8635.23 59.2651 67.5651
8637.91 70.8746 81.1595
8640.6 64.586 76.7288
8643.28 58.2823 71.5392
8645.96 59.1438 69.3445
8648.65 57.0804 62.776
8651.33 69.4827 81.6197
8654.01 61.2394 69.8437
8656.69 62.6696 75.9938
8659.38 66.9781 72.1044
8662.06 59.9179 75.5534
8664.74 59.0149 69.2939
8667.42 56.7767 69.6187
8670.1 55.496 62.8225
8672.79 54.6076 68.014
8675.47 49.7859 59.1912
8678.15 56.9005 68.6893
8680.83 51.8503 57.8749
8683.51 52.2423 64.5955
8686.19 54.0642 65.3277
8688.87 63.2615 70.1615
8691.55 65.28 78.8995
8694.23 60.8656 75.228
8696.9 60.0322 70.1448
8699.58 63.8207 72.5681
8702.26 70.3195 83.7789
8704.94 62.843 71.6646
8707.62 64.4622 74.6855
8710.29 66.587 73.5506
8712.97 59.0526 69.9139
8715.65 62.6705 73.6571
8718.33 59.607 69.2301
8721 68.9831 82.0885
8723.68 61.3206 70.6931
8726.35 65.8253 75.1278
8729.03 66.7114 80.5315
8731.71 59.5123 66.9067
8734.38 61.5386 71.8272
8737.06 64.3221 74.3909
8739.73 58.8974 71.4859
8742.41 61.1381 70.0083
8745.08 69.6419 82.6594
8747.75 64.1727 77.7235
8750.43 62.1342 77.8096
8753.1 61.8591 75.0715
8755.77 62.158 80.9397
8758.45 69.6808 96.986
8761.12 67.9119 77.016
8763.79 69.4605 96.8186
8766.46 73.9349 98.2154
8769.14 70.4208 95.877
8771.81 62.9553 81.0924
8774.48 66.2417 103.031
8777.15 52.7964 76.4813
8779.82 59.8105 66.5631
8782.49 62.7046 74.2304
8785.16 51.7505 86.9863
8787.83 55.2924 85.9023
8790.5 59.2916 72.5064
8793.17 58.3406 72.3382
8795.84 52.0981 65.9819
8798.51 48.8178 57.8048
8801.18 51.2627 71.0355
8803.85 55.9729 72.6257
8806.52 57.6863 77.0501
8809.18 56.5351 77.2087
8811.85 56.394 77.9064
8814.52 60.654 77.6067
8817.19 57.2079 74.072
8819.85 52.6345 84.5787
8822.52 52.9871 108.146
8825.19 59.8968 120.428
8827.85 74.5953 113.883
8830.52 75.7942 71.4116
8833.18 58.4317 55.9401
8835.85 55.4017 92.9286
8838.51 57.6776 62.1175
8841.18 55.6886 61.0648
8843.84 56.4388 74.8277
8846.51 51.6968 79.3031
8849.17 61.559 87.6109
8851.84 56.1551 83.2301
8854.5 56.3328 86.4223
8857.16 58.9809 82.9724
8859.83 54.6694 65.8866
8862.49 51.4093 80.684
8865.15 65.3044 99.9817
8867.81 70.4055 97.7017
8870.48 63.3556 85.3289
8873.14 59.4084 65.1218
8875.8 67.1424 82.7146
8878.46 59.2686 94.632
8881.12 67.5176 117.413
8883.78 62.005 123.346
8886.44 74.9382 103.225
8889.1 72.9862 94.8116
8891.76 62.3839 65.0808
8894.42 50.8624 60.0937
8897.08 58.5038 84.586
8899.74 62.4811 106.866
8902.4 63.906 95.5787
8905.06 69.2575 92.0295
8907.72 67.3655 72.8811
8910.37 56.8071 75.049
8913.03 60.991 108.379
8915.69 53.5731 98.6675
8918.35 71.0079 130.582
8921 71.7125 94.6916
8923.66 66.3531 69.3591
8926.32 62.0179 37.3134
8928.97 47.479 27.8289
8931.63 61.1756 75.1546
8934.28 57.8643 63.6941
8936.94 55.7133 85.6239
8939.59 52.2068 77.0843
8942.25 61.7358 90.5352
8944.9 58.5231 98.5493
8947.56 49.2616 65.1337
8950.21 53.5215 68.0241
8952.87 52.3603 88.5387
8955.52 49.7721 96.7996
8958.17 54.4357 103.116
8960.82 66.8744 102.956
8963.48 67.0736 65.5753
8966.13 32.5777 4.08278
8968.78 34.0682 14.3998
8971.43 50.0999 44.9187
8974.09 49.6892 54.0482
8976.74 48.7788 71.4643
8979.39 50.7898 66.6716
8982.04 52.3891 81.122
8984.69 51.5837 79.2411
8987.34 50.5959 70.5746
8989.99 49.1953 95.0505
8992.64 45.1745 74.0189
8995.29 44.2915 58.8294
8997.94 52.1221 84.9676
9000.59 54.6434 97.1165
9003.23 53.8144 98.2165
9005.88 52.4183 109.709
9008.53 46.7214 48.6737
9011.18 41.5639 16.1585
9013.83 55.3416 50.7915
9016.47 52.9344 53.5981
9019.12 56.066 58.998
9021.77 52.1133 73.6162
9024.41 55.2552 75.6031
9027.06 52.5604 81.6409
9029.71 56.2101 90.6475
9032.35 55.6886 83.5804
9035 56.8882 81.7932
9037.64 57.353 94.4582
9040.29 58.6669 103.207
9042.93 55.3798 80.1523
9045.58 54.9871 73.614
9048.22 57.4225 81.0778
9050.86 55.4207 88.9519
9053.51 57.7757 88.179
9056.15 58.8246 85.3744
9058.79 56.0325 63.5226
9061.44 55.912 50.801
9064.08 57.5573 71.6199
9066.72 65.224 90.73
