wavelength spec_sum spec_optimal
3527.51 7.76684 14.9482
3530.43 15.4507 16.0069
3533.35 11.8952 11.9703
3536.26 16.1051 20.1205
3539.18 14.7626 4.62917
3542.1 15.5716 20.1447
3545.02 8.66375 18.6478
3547.93 6.64351 13.3247
3550.85 12.0198 19.2682
3553.77 19.7884 29.074
3556.68 8.61815 21.3663
3559.6 14.9148 18.828
3562.52 14.4787 21.6386
3565.43 14.2562 18.0821
3568.35 18.7697 17.3346
3571.27 18.3773 28.0957
3574.18 13.4088 11.1972
3577.1 11.2255 16.9196
3580.02 14.3112 19.1926
3582.93 12.6455 16.3548
3585.85 15.0423 21.4171
3588.77 16.7635 20.2146
3591.68 16.2656 22.2096
3594.6 11.0246 20.2395
3597.52 11.581 20.1501
3600.44 20.4091 27.3209
3603.35 22.8801 26.2023
3606.27 11.5631 20.2479
3609.19 19.1927 23.6426
3612.1 10.943 15.4046
3615.02 17.5721 20.7196
3617.94 18.981 25.4374
3620.85 18.14 18.2737
3623.77 13.7768 23.508
3626.69 12.4827 13.5485
3629.6 9.90327 13.1641
3632.52 16.3097 22.0178
3635.44 13.2554 16.2561
3638.35 11.8325 17.8557
3641.27 17.9084 21.8158
3644.18 11.2793 7.28789
3647.1 17.1326 18.3199
3650.02 15.9987 16.6412
3652.93 13.1684 13.7819
3655.85 15.9454 14.8849
3658.77 12.0253 10.7124
3661.68 18.7638 25.3715
3664.6 17.486 21.7982
3667.52 17.1114 19.3859
3670.43 14.4567 19.5854
3673.35 6.38696 11.78
3676.27 14.0488 13.5789
3679.18 11.0005 13.1608
3682.1 16.0621 15.4548
3685.02 19.5865 19.5991
3687.93 20.213 20.6178
3690.85 12.8601 15.2302
3693.76 13.6304 14.4092
3696.68 20.1711 20.8555
3699.6 11.8091 9.95438
3702.51 19.4976 23.57
3705.43 19.114 21.0691
3708.35 17.9652 16.9162
3711.26 12.3312 11.7072
3714.18 22.7154 21.5496
3717.1 12.0464 10.3015
3720.01 19.29 19.0078
3722.93 19.7592 16.5695
3725.84 16.4199 17.3153
3728.76 17.3299 14.3505
3731.68 11.4078 18.5883
3734.59 11.6677 13.0469
3737.51 17.7437 16.4576
3740.42 11.9873 11.2146
3743.34 19.9996 21.2699
3746.26 9.91091 13.1196
3749.17 21.0752 23.8222
3752.09 17.6016 22.9037
3755 17.7948 14.6097
3757.92 19.5852 24.2687
3760.84 21.3657 29.147
3763.75 24.0369 20.005
3766.67 11.7578 16.3472
3769.58 18.586 19.3586
3772.5 19.4402 25.4925
3775.42 23.2393 24.3388
3778.33 20.5204 24.1307
3781.25 23.2777 26.7583
3784.16 22.9521 32.6011
3787.08 22.1069 27.6528
3790 19.7552 23.2012
3792.91 19.4074 25.4249
3795.83 17.6985 22.356
3798.74 14.1901 18.6337
3801.66 15.1963 15.428
3804.57 17.1518 21.5958
3807.49 16.604 19.3925
3810.41 15.0541 16.7469
3813.32 17.1666 16.6051
3816.24 19.9857 23.7665
3819.15 20.8668 24.5084
3822.07 21.1965 24.8724
3824.98 18.8674 21.732
3827.9 18.2861 18.9791
3830.82 20.8421 25.6701
3833.73 20.7433 21.7821
3836.65 21.8234 23.3828
3839.56 27.1861 30.8956
3842.48 22.2656 27.3476
3845.39 20.3679 27.6875
3848.31 17.1351 20.2139
3851.22 24.0375 24.5465
3854.14 19.9477 20.0752
3857.05 19.7077 23.9735
3859.97 19.1343 21.206
3862.89 21.0804 22.974
3865.8 19.529 22.041
3868.72 19.6768 24.3916
3871.63 19.352 20.9818
3874.55 18.0134 22.8612
3877.46 18.6758 18.8098
3880.38 16.5404 19.8697
3883.29 20.1525 21.0536
3886.21 23.86 25.6462
3889.12 16.4778 17.0073
3892.04 17.4557 18.266
3894.95 18.4483 16.6041
3897.87 18.776 20.5899
3900.78 15.3649 15.5961
3903.7 19.4775 20.7901
3906.61 19.6754 21.3471
3909.53 25.368 30.0416
3912.44 18.6816 24.074
3915.36 28.7581 33.5679
3918.27 24.5754 30.6991
3921.19 24.3665 27.6076
3924.1 22.2237 27.6603
3927.02 20.3843 20.915
3929.93 21.201 24.2423
3932.85 18.9377 22.4917
3935.76 20.4727 19.7237
3938.68 21.2826 22.8805
3941.59 16.8382 18.5254
3944.51 18.5643 19.7021
3947.42 21.2784 24.0034
3950.33 20.7888 26.9245
3953.25 25.503 29.0869
3956.16 18.1437 21.2376
3959.08 20.8719 23.4156
3961.99 20.8807 25.7518
3964.91 21.5385 21.336
3967.82 20.0283 23.034
3970.74 25.7499 26.8342
3973.65 20.6703 24.2695
3976.56 20.965 24.9019
3979.48 23.7644 25.5262
3982.39 18.9025 20.9201
3985.31 20.7487 20.4425
3988.22 16.9922 17.964
3991.14 17.1614 19.4601
3994.05 20.2148 22.3457
3996.96 21.1267 23.1535
3999.88 20.2054 21.0483
4002.79 20.9609 22.4243
4005.71 19.5361 23.344
4008.62 19.7196 21.5582
4011.53 24.1849 27.1291
4014.45 22.7702 27.5963
4017.36 20.699 21.7208
4020.28 22.2652 22.9056
4023.19 19.9859 22.7332
4026.1 15.0762 17.3809
4029.02 15.0698 18.7344
4031.93 18.9642 19.8579
4034.85 15.9869 21.7284
4037.76 24.6268 27.6639
4040.67 18.987 21.6755
4043.59 26.5596 29.1987
4046.5 24.1614 24.9588
4049.41 24.0325 27.4356
4052.33 23.5859 29.4045
4055.24 31.5847 32.9496
4058.16 26.0936 27.1506
4061.07 25.8499 29.641
4063.98 27.8408 27.839
4066.9 27.9766 29.3299
4069.81 27.1735 29.1659
4072.72 28.2354 30.4987
4075.64 31.1362 34.2692
4078.55 27.7765 29.5752
4081.46 32.1736 33.3016
4084.38 29.9391 33.6125
4087.29 29.8846 35.4661
4090.2 27.8911 30.7394
4093.12 27.3557 31.1221
4096.03 30.308 32.4335
4098.94 31.1432 32.8762
4101.86 26.4995 27.2214
4104.77 30.4394 34.8458
4107.68 27.8664 29.6059
4110.59 31.7131 32.5613
4113.51 28.594 34.0726
4116.42 27.7445 30.1209
4119.33 30.704 31.1651
4122.25 25.3069 25.7792
4125.16 29.2624 33.1146
4128.07 25.9018 27.9021
4130.98 33.3686 33.5292
4133.9 25.4793 25.5154
4136.81 32.7583 34.8759
4139.72 31.8864 35.6162
4142.63 25.9492 30.4405
4145.55 30.7823 33.8598
4148.46 29.1642 31.1019
4151.37 28.6411 31.0866
4154.28 28.1098 30.3228
4157.2 29.9771 33.6947
4160.11 24.1317 27.1999
4163.02 28.3421 33.2386
4165.93 27.5327 28.1106
4168.85 29.8725 31.7928
4171.76 29.6952 31.5159
4174.67 27.454 31.6075
4177.58 30.3024 31.5477
4180.5 29.4162 32.4907
4183.41 29.385 32.4878
4186.32 29.1224 30.4706
4189.23 28.7132 30.7125
4192.14 32.1998 32.5446
4195.06 31.2765 32.7972
4197.97 26.541 28.7005
4200.88 30.1086 30.8815
4203.79 30.3856 32.557
4206.7 30.3935 34.5577
4209.61 27.4885 30.0931
4212.53 28.1344 31.4162
4215.44 31.9959 34.9848
4218.35 28.4399 30.028
4221.26 29.0273 32.9948
4224.17 31.7987 34.1152
4227.08 28.9213 28.6881
4230 30.5913 30.1501
4232.91 27.7502 30.6927
4235.82 27.9996 31.9497
4238.73 29.4148 31.2707
4241.64 32.5426 34.458
4244.55 30.0369 32.6141
4247.46 30.2452 31.6858
4250.38 30.9679 33.1286
4253.29 29.5736 30.0157
4256.2 30.2905 32.0275
4259.11 28.7304 30.0531
4262.02 27.6479 29.6902
4264.93 27.7943 30.0242
4267.84 31.4891 34.3837
4270.75 29.2866 29.7196
4273.66 27.189 28.7289
4276.57 29.829 32.3385
4279.49 27.0773 29.5329
4282.4 25.5641 27.4828
4285.31 33.5646 36.3115
4288.22 32.1071 34.8818
4291.13 31.9257 34.7419
4294.04 29.6328 32.4988
4296.95 29.8919 31.8496
4299.86 27.574 31.7403
4302.77 33.0227 35.9743
4305.68 31.7151 32.6227
4308.59 32.7933 33.4908
4311.5 31.4315 32.5037
4314.41 34.8811 36.7742
4317.32 32.0875 33.1535
4320.23 30.6115 33.2687
4323.14 30.6956 32.0845
4326.05 34.9902 36.154
4328.96 28.7065 31.1328
4331.87 30.7678 35.9138
4334.78 32.8566 34.6013
4337.69 30.6404 33.5825
4340.6 29.5521 31.6061
4343.51 29.7346 30.6746
4346.42 29.128 30.5842
4349.33 28.7236 30.1129
4352.24 30.1813 30.957
4355.15 29.4045 33.4035
4358.06 30.9555 34.8356
4360.97 27.8869 29.4865
4363.88 28.66 30.3086
4366.79 27.8896 28.9839
4369.7 29.4314 31.1598
4372.61 27.1111 28.3955
4375.52 25.8938 29.0394
4378.43 27.7591 29.4961
4381.34 32.5737 34.9366
4384.25 31.9665 33.7947
4387.15 29.6351 32.2009
4390.06 29.411 31.8391
4392.97 33.2651 34.0605
4395.88 34.0032 34.0762
4398.79 30.7325 31.3694
4401.7 30.1432 31.6641
4404.61 31.7291 32.746
4407.52 31.1808 34.3324
4410.43 34.7922 34.6552
4413.34 31.1337 33.0661
4416.24 27.4891 28.6343
4419.15 33.8345 34.8045
4422.06 32.4479 34.9999
4424.97 34.7533 38.1953
4427.88 33.6477 34.3196
4430.79 33.463 34.8911
4433.7 31.9083 37.5515
4436.6 32.0507 33.6488
4439.51 35.7948 38.0007
4442.42 35.6266 36.2184
4445.33 33.5843 35.4309
4448.24 29.2788 31.1707
4451.14 28.0815 31.4129
4454.05 31.0934 34.5265
4456.96 32.3216 37.2337
4459.87 33.0935 35.2449
4462.78 31.3986 35.7138
4465.68 37.8688 38.204
4468.59 26.7965 29.2458
4471.5 32.8 35.0539
4474.41 33.1551 33.9349
4477.32 36.8167 38.2842
4480.22 33.9861 37.4298
4483.13 36.0751 39.2059
4486.04 32.044 33.7238
4488.95 34.5143 35.8709
4491.85 32.9467 34.8418
4494.76 36.1933 35.9472
4497.67 31.3718 32.617
4500.58 37.2972 38.7165
4503.48 30.8426 33.61
4506.39 38.2014 40.4898
4509.3 33.6111 34.9171
4512.2 34.2158 37.6832
4515.11 38.6466 39.4167
4518.02 35.3144 38.3906
4520.92 36.852 40.5183
4523.83 35.0121 36.4151
4526.74 34.2557 39.1117
4529.65 31.2462 32.7544
4532.55 34.2415 38.2172
4535.46 35.8934 40.1238
4538.37 36.3237 38.6654
4541.27 32.6343 34.0851
4544.18 36.0221 36.7449
4547.08 33.2987 34.7811
4549.99 35.4938 36.8186
4552.9 37.4406 38.6429
4555.8 35.534 37.1075
4558.71 36.6303 38.9914
4561.62 38.3601 39.0637
4564.52 38.5121 39.3249
4567.43 34.1973 33.9801
4570.33 36.5086 36.6509
4573.24 40.0423 39.1848
4576.15 40.893 38.7026
4579.05 39.6073 40.4499
4581.96 41.8509 42.0778
4584.86 32.0498 33.0747
4587.77 39.4274 39.5264
4590.67 37.2218 34.9156
4593.58 36.2039 35.2945
4596.49 34.8142 34.0929
4599.39 39.3084 36.9222
4602.3 38.8288 36.8358
4605.2 36.9263 31.3115
4608.11 40.0331 36.9976
4611.01 36.3224 33.7238
4613.92 38.651 35.7705
4616.82 38.7705 35.3064
4619.73 38.8267 36.1213
4622.63 36.7029 33.9038
4625.54 39.3586 33.1087
4628.44 41.4165 34.3548
4631.35 39.2128 32.561
4634.25 37.6252 31.5069
4637.16 39.175 34.5353
4640.06 40.2257 35.119
4642.97 45.9038 38.219
4645.87 40.8902 35.2758
4648.77 42.1897 35.7515
4651.68 39.2149 32.5071
4654.58 43.5581 35.13
4657.49 39.2731 33.6664
4660.39 40.6462 32.168
4663.3 41.1197 33.4226
4666.2 38.5267 31.6306
4669.1 41.4358 33.1977
4672.01 40.07 30.4141
4674.91 45.7932 35.7743
4677.82 41.247 33.6593
4680.72 42.5431 32.7533
4683.62 47.3924 39.1147
4686.53 42.9665 36.7582
4689.43 46.6262 35.4617
4692.33 43.9379 33.569
4695.24 37.7845 35.0942
4698.14 38.678 33.1049
4701.04 45.2591 40.7322
4703.95 43.6547 40.5676
4706.85 39.6869 35.5929
4709.75 41.5968 38.2836
4712.66 39.5959 38.003
4715.56 39.5081 34.6764
4718.46 38.0987 36.139
4721.37 40.5801 36.7515
4724.27 42.7651 39.3334
4727.17 38.6636 35.8327
4730.08 37.614 34.3932
4732.98 34.9083 32.24
4735.88 37.846 34.0351
4738.78 37.0315 34.2754
4741.69 41.4899 38.848
4744.59 38.5615 36.1385
4747.49 39.7213 35.525
4750.39 39.7481 37.521
4753.29 38.6197 33.4183
4756.2 36.5133 33.4363
4759.1 39.5596 36.9478
4762 38.991 36.5044
4764.9 38.8351 34.2892
4767.81 37.9983 34.8497
4770.71 35.9995 32.5074
4773.61 38.7456 37.2262
4776.51 35.1496 33.6549
4779.41 37.5139 35.7965
4782.31 35.9609 33.7422
4785.22 36.4231 33.8292
4788.12 36.9631 36.1987
4791.02 42.298 37.7374
4793.92 39.1896 36.124
4796.82 35.3281 31.6893
4799.72 38.4521 36.2352
4802.62 36.6935 34.6665
4805.52 40.8312 38.6149
4808.43 39.2276 36.3343
4811.33 38.4796 36.1312
4814.23 37.7814 34.9019
4817.13 37.5951 36.5812
4820.03 39.8372 36.4636
4822.93 37.9705 35.2692
4825.83 39.0639 35.7983
4828.73 40.2298 39.306
4831.63 38.947 37.315
4834.53 39.8841 36.3065
4837.43 38.4559 34.7854
4840.33 42.199 38.7475
4843.23 40.9764 37.6208
4846.13 38.6587 38.9966
4849.03 40.3055 37.0726
4851.93 41.286 38.5401
4854.83 39.4137 37.8999
4857.73 43.9098 41.4627
4860.63 39.5668 36.973
4863.53 41.8883 37.8357
4866.43 44.0917 41.4014
4869.33 43.2795 38.1486
4872.23 40.7079 37.4933
4875.13 39.4818 38.279
4878.03 42.9733 40.3114
4880.93 40.7208 38.5755
4883.83 40.5974 40.5941
4886.73 44.1088 41.4493
4889.63 44.6315 42.9015
4892.53 47.1159 44.3038
4895.42 40.5992 38.6977
4898.32 46.6583 46.0103
4901.22 43.081 42.7218
4904.12 45.1422 45.7685
4907.02 41.2206 40.02
4909.92 42.4475 41.3543
4912.82 43.4826 41.4191
4915.72 43.17 41.1069
4918.61 46.6098 45.5254
4921.51 39.8082 38.296
4924.41 39.5755 37.6587
4927.31 40.9313 38.4897
4930.21 41.153 38.407
4933.1 44.2525 41.5613
4936 39.7512 39.0401
4938.9 38.4482 36.2596
4941.8 38.9888 38.1515
4944.7 38.8975 35.9547
4947.59 38.9521 37.2834
4950.49 40.611 37.7433
4953.39 39.2385 37.3005
4956.29 38.9211 37.5803
4959.18 35.228 33.739
4962.08 36.7461 34.6041
4964.98 40.9717 38.3981
4967.88 42.1223 39.1597
4970.77 45.5038 41.3374
4973.67 40.0642 37.2499
4976.57 39.3363 38.4755
4979.46 41.5329 39.346
4982.36 42.4464 39.8692
4985.26 43.9743 41.2169
4988.15 43.0454 41.638
4991.05 38.9589 36.0447
4993.95 40.0358 37.1848
4996.84 41.9092 39.9161
4999.74 41.1936 39.1966
5002.64 43.6947 42.1898
5005.53 42.4777 40.4951
5008.43 43.0566 40.3003
5011.32 39.9286 38.5751
5014.22 40.2644 39.921
5017.12 45.0068 41.7917
5020.01 45.2696 43.5278
5022.91 45.8379 43.7105
5025.8 43.8684 42.2032
5028.7 41.3127 39.1167
5031.59 40.6912 38.8501
5034.49 44.4892 43.6213
5037.39 45.8764 43.6216
5040.28 41.261 39.9255
5043.18 43.3856 42.8331
5046.07 44.3342 44.6083
5048.97 45.3879 43.4738
5051.86 45.4189 45.5633
5054.76 42.2119 40.7353
5057.65 42.0155 42.3236
5060.55 40.861 41.7447
5063.44 43.4599 42.6695
5066.34 44.449 45.3757
5069.23 43.3048 42.7055
5072.12 43.1747 43.1376
5075.02 42.097 41.9563
5077.91 44.5094 44.0575
5080.81 42.5841 42.0976
5083.7 45.1873 44.1744
5086.6 44.9017 43.0229
5089.49 43.3177 43.4637
5092.38 42.3887 43.3194
5095.28 43.3642 43.4535
5098.17 44.7903 44.4674
5101.06 43.6457 42.1818
5103.96 42.6223 42.7647
5106.85 43.8071 45.2057
5109.74 43.4576 43.1443
5112.64 41.6936 43.6207
5115.53 44.6145 44.4071
5118.42 39.8964 40.1511
5121.32 41.3123 43.2325
5124.21 43.4043 45.4456
5127.1 43.5348 43.0171
5130 41.644 40.8726
5132.89 44.3852 44.0317
5135.78 46.1267 46.5286
5138.67 43.7829 41.3736
5141.57 45.112 45.4937
5144.46 46.1922 44.5364
5147.35 44.6173 44.0936
5150.24 45.2383 45.8933
5153.14 45.2651 44.7621
5156.03 46.1111 46.0454
5158.92 45.6735 45.6214
5161.81 41.5675 42.2211
5164.7 42.3318 43.0955
5167.6 45.6214 44.9789
5170.49 41.4196 41.1368
5173.38 44.9174 46.2854
5176.27 44.5159 45.6104
5179.16 43.2439 44.3474
5182.05 44.4879 45.9777
5184.94 45.286 47.3365
5187.84 47.1521 47.6824
5190.73 46.0164 46.6596
5193.62 48.9381 49.2916
5196.51 45.9576 45.1066
5199.4 47.0522 46.4546
5202.29 45.4839 46.5651
5205.18 42.46 44.0434
5208.07 44.1393 46.0131
5210.96 44.8085 44.6746
5213.85 46.9629 47.0084
5216.74 45.0356 46.5042
5219.63 46.246 46.4437
5222.52 40.0973 41.6576
5225.41 42.444 43.2794
5228.3 43.99 45.8043
5231.19 43.7917 43.9139
5234.08 42.3937 43.2691
5236.97 43.5364 44.9693
5239.86 45.3028 45.669
5242.75 45.0725 45.1903
5245.64 44.3078 45.1043
5248.53 42.1038 43.1708
5251.42 42.5863 42.175
5254.31 41.4539 41.1582
5257.2 40.9638 42.6688
5260.09 42.4576 45.2605
5262.98 45.2901 45.5899
5265.86 43.7444 44.8401
5268.75 42.6922 42.7075
5271.64 44.1874 43.2753
5274.53 46.0847 46.5229
5277.42 41.5903 43.0109
5280.31 45.5375 46.3035
5283.2 44.855 44.8809
5286.08 45.216 45.6884
5288.97 45.9299 45.0056
5291.86 44.6506 44.4903
5294.75 44.6275 44.9137
5297.64 47.532 49.017
5300.52 46.6612 49.6174
5303.41 45.7344 46.6195
5306.3 45.3991 46.7078
5309.19 44.6488 47.749
5312.07 46.5915 49.0336
5314.96 47.0367 47.7365
5317.85 47.5924 47.9279
5320.74 47.8335 49.7372
5323.62 48.4309 49.2017
5326.51 47.6927 49.5962
5329.4 48.1157 50.0673
5332.28 41.9641 43.5046
5335.17 50.5576 51.764
5338.06 47.6235 47.9835
5340.94 45.6559 45.3676
5343.83 45.9796 47.018
5346.72 45.6802 46.9243
5349.6 46.0648 46.693
5352.49 45.1818 47.0841
5355.38 41.7596 45.0487
5358.26 48.1036 49.2167
5361.15 49.3209 51.3375
5364.03 50.0267 50.8469
5366.92 48.3626 49.52
5369.8 50.0125 51.8539
5372.69 52.1338 54.2162
5375.58 48.5063 51.1011
5378.46 45.2957 46.7296
5381.35 48.3613 48.6968
5384.23 48.1898 49.346
5387.12 50.8164 51.2038
5390 52.1099 54.1112
5392.89 53.5885 54.0215
5395.77 50.2358 51.8528
5398.66 52.4031 54.1818
5401.54 51.014 53.1358
5404.42 48.9707 49.5855
5407.31 47.4873 48.8093
5410.19 47.9334 50.114
5413.08 45.5245 46.8393
5415.96 49.3433 51.8514
5418.85 47.4534 47.3714
5421.73 47.9069 49.8992
5424.61 50.1192 51.1662
5427.5 48.7175 49.9841
5430.38 49.789 51.7901
5433.26 49.9322 52.1855
5436.15 52.4659 54.4485
5439.03 51.6612 54.1053
5441.91 50.5263 52.1068
5444.8 51.1888 52.8942
5447.68 50.142 52.0658
5450.56 52.7359 53.7502
5453.45 49.3853 50.9746
5456.33 50.5135 52.6461
5459.21 48.2229 51.7693
5462.09 50.9938 52.6855
5464.98 51.5938 53.2763
5467.86 50.6446 52.9085
5470.74 49.8026 51.0912
5473.62 51.1014 52.7639
5476.51 50.1122 52.1807
5479.39 47.9264 49.486
5482.27 49.565 52.0297
5485.15 49.1756 50.8365
5488.03 47.2033 48.8428
5490.91 52.6752 53.1903
5493.8 48.8557 51.8366
5496.68 51.4854 53.1055
5499.56 47.2118 50.091
5502.44 49.1722 51.9377
5505.32 49.1547 51.7402
5508.2 51.4664 52.6586
5511.08 54.0293 57.1993
5513.96 49.8365 51.4592
5516.84 49.4814 50.6299
5519.73 52.4153 55.0882
5522.61 52.0048 53.4963
5525.49 54.6686 55.4787
5528.37 50.7206 51.952
5531.25 48.4106 50.3407
5534.13 50.3898 52.1869
5537.01 51.2205 53.6356
5539.89 49.745 52.7156
5542.77 49.4747 50.9002
5545.65 51.1695 52.1827
5548.53 48.7574 52.1513
5551.41 49.8061 51.6928
5554.28 48.5301 51.1192
5557.16 50.2038 51.758
5560.04 52.1026 53.7369
5562.92 52.1353 54.3932
5565.8 53.1901 57.8141
5568.68 54.1869 59.3816
5571.56 56.3227 61.6083
5574.44 51.2323 53.7803
5577.32 56.9823 55.0644
5580.19 57.773 62.98
5583.07 52.0935 55.9814
5585.95 52.0277 54.7158
5588.83 49.7822 53.5556
5591.71 50.6611 51.6749
5594.59 49.04 51.0177
5597.46 52.5466 54.9152
5600.34 50.3088 52.8029
5603.22 54.6573 55.5222
5606.1 56.508 57.7161
5608.97 51.9607 54.0993
5611.85 52.9622 53.9011
5614.73 48.6129 50.6975
5617.61 52.5699 53.7262
5620.48 51.6446 54.79
5623.36 54.5154 56.3826
5626.24 51.0611 53.8235
5629.11 51.4451 53.2491
5631.99 56.0975 58.5578
5634.87 53.7002 57.7392
5637.74 52.0084 54.2756
5640.62 53.0581 55.1818
5643.49 53.2712 54.9314
5646.37 50.1941 53.4945
5649.25 53.3397 55.5155
5652.12 51.9335 54.1057
5655 51.442 53.8892
5657.87 52.6695 54.154
5660.75 52.3712 53.8439
5663.63 53.0719 55.5115
5666.5 48.9424 51.7869
5669.38 49.5656 52.7212
5672.25 49.329 51.8033
5675.13 52.915 55.8131
5678 48.2236 51.723
5680.88 51.4859 53.6358
5683.75 50.0923 52.5434
5686.62 49.7036 51.8725
5689.5 53.3994 55.8546
5692.37 54.9253 56.1288
5695.25 52.216 53.1371
5698.12 52.8872 56.2907
5701 53.2673 56.3518
5703.87 52.6187 55.3592
5706.74 52.4255 55.0402
5709.62 51.7897 56.1514
5712.49 50.1866 52.3909
5715.36 55.8373 58.503
5718.24 50.9392 53.2265
5721.11 55.0185 56.9199
5723.98 52.903 54.6759
5726.86 52.6846 55.5981
5729.73 52.9257 55.6357
5732.6 51.4482 53.415
5735.48 52.9702 56.2262
5738.35 52.9713 55.2052
5741.22 54.831 56.384
5744.09 51.9677 55.1973
5746.97 54.609 56.5844
5749.84 52.1678 55.5788
5752.71 52.4545 54.6843
5755.58 54.6168 55.9544
5758.45 55.9658 57.6753
5761.33 58.1798 58.7911
5764.2 53.7209 54.4196
5767.07 54.1801 53.9405
5769.94 58.1843 60.2923
5772.81 55.1068 55.3719
5775.68 54.9246 55.7798
5778.55 58.5413 57.9199
5781.43 53.7141 53.598
5784.3 54.3096 53.8252
5787.17 57.4701 58.196
5790.04 55.0759 55.0821
5792.91 55.3371 55.0167
5795.78 56.0487 55.0435
5798.65 56.1188 55.9903
5801.52 57.498 55.9587
5804.39 59.4458 57.5882
5807.26 56.2135 54.5489
5810.13 62.4226 59.8215
5813 58.6851 57.8263
5815.87 63.3293 62.1777
5818.74 61.6081 58.6943
5821.61 63.0006 60.6934
5824.48 60.6258 57.1632
5827.34 61.4479 58.2202
5830.21 60.6326 57.689
5833.08 63.5671 59.6694
5835.95 61.5029 59.3302
5838.82 60.5644 57.1023
5841.69 59.8048 57.9092
5844.56 59.1629 58.1725
5847.43 62.2301 58.9757
5850.29 62.0692 59.1827
5853.16 60.8769 57.3247
5856.03 58.055 55.7407
5858.9 63.9788 60.9669
5861.77 63.3385 63.4128
5864.63 61.7121 59.8324
5867.5 58.2733 55.9631
5870.37 60.3128 57.7059
5873.24 58.1996 57.2124
5876.1 62.3242 60.274
5878.97 57.556 55.2334
5881.84 60.5706 59.8634
5884.7 60.0566 57.9853
5887.57 65.2414 63.4748
5890.44 60.9374 59.7139
5893.3 58.5271 56.1063
5896.17 60.1352 61.3301
5899.04 56.6593 55.7991
5901.9 57.6669 55.9736
5904.77 60.0937 56.3245
5907.63 58.183 57.2482
5910.5 59.9194 58.9007
5913.37 57.7282 57.0311
5916.23 58.7348 59.4002
5919.1 61.3137 60.427
5921.96 63.5928 62.0389
5924.83 63.4611 63.2076
5927.69 63.5462 61.001
5930.56 63.5927 62.0681
5933.42 57.2598 58.8891
5936.29 58.5859 57.1471
5939.15 59.1266 59.2115
5942.02 57.3707 58.0766
5944.88 57.216 57.0231
5947.74 60.7094 59.582
5950.61 61.2494 60.8864
5953.47 59.6798 57.1585
5956.34 59.4915 58.4173
5959.2 60.3437 59.4409
5962.06 61.0085 61.3219
5964.93 62.2543 61.6493
5967.79 61.3561 59.8276
5970.65 59.6374 58.9137
5973.52 59.0048 57.3742
5976.38 52.605 52.1658
5979.24 49.5898 49.2917
5982.11 51.7393 50.2871
5984.97 54.383 54.4199
5987.83 53.1968 52.5102
5990.69 55.5499 55.2807
5993.56 53.7187 53.6517
5996.42 55.1641 56.8477
5999.28 54.2794 57.652
6002.14 56.8126 61.4986
6005 53.9726 59.2711
6007.86 53.1284 58.6114
6010.73 53.7228 55.5619
6013.59 55.6781 59.1948
6016.45 55.833 60.8101
6019.31 56.3052 60.2601
6022.17 58.1994 62.1869
6025.03 54.2489 58.6146
6027.89 57.1501 61.766
6030.75 54.7063 59.485
6033.61 56.1809 59.102
6036.47 53.7927 59.3857
6039.33 53.5276 59.457
6042.2 54.1575 59.5166
6045.06 53.7916 58.0804
6047.92 57.0583 60.6232
6050.77 54.5957 60.5481
6053.63 58.8906 64.264
6056.49 56.9566 60.664
6059.35 53.5769 58.1546
6062.21 52.0887 57.2612
6065.07 54.8252 58.4633
6067.93 56.1665 60.6416
6070.79 54.6084 59.046
6073.65 56.9276 62.3212
6076.51 53.1452 59.5629
6079.37 55.8253 61.7896
6082.22 55.3844 60.7213
6085.08 53.7482 58.727
6087.94 54.3868 58.4206
6090.8 56.7014 62.6016
6093.66 53.296 58.3181
6096.51 57.9065 62.3167
6099.37 52.864 58.9872
6102.23 53.4706 58.798
6105.09 57.0467 61.5903
6107.94 53.8902 58.9284
6110.8 55.7007 61.439
6113.66 51.4767 56.4443
6116.52 55.8358 59.3779
6119.37 56.3802 61.2363
6122.23 56.2749 60.6741
6125.09 58.9347 63.5157
6127.94 57.2296 61.5501
6130.8 58.8006 62.8135
6133.65 58.6702 62.9955
6136.51 58.3327 62.9261
6139.37 55.9394 60.5979
6142.22 56.1169 61.6518
6145.08 56.2711 61.2943
6147.93 57.8275 63.4591
6150.79 58.9307 62.4307
6153.64 57.1606 62.3614
6156.5 57.024 61.2666
6159.35 58.2962 62.991
6162.21 55.0216 59.5441
6165.06 57.3228 62.9619
6167.92 58.3225 62.0596
6170.77 59.7229 64.3177
6173.63 55.7945 60.6333
6176.48 55.7978 60.6277
6179.33 56.7879 62.9715
6182.19 58.4023 64.158
6185.04 56.675 62.657
6187.9 56.711 62.0916
6190.75 54.9319 58.3698
6193.6 58.3666 62.3132
6196.46 54.1024 59.1623
6199.31 53.4064 58.1785
6202.16 56.9883 61.7904
6205.01 55.55 60.1722
6207.87 55.6361 61
6210.72 57.4635 63.527
6213.57 54.5891 59.9796
6216.43 54.9989 59.7649
6219.28 58.5 63.1061
6222.13 54.965 61.2617
6224.98 52.9292 58.2322
6227.83 55.576 61.9447
6230.68 55.189 59.2304
6233.54 54.1643 58.433
6236.39 55.5042 60.1308
6239.24 58.1764 63.2214
6242.09 55.326 61.2239
6244.94 55.9399 59.8991
6247.79 58.0438 60.3568
6250.64 53.9922 58.7513
6253.49 52.0932 56.142
6256.34 52.4483 57.4484
6259.19 51.931 56.6664
6262.04 53.2391 58.8962
6264.89 52.6522 58.7483
6267.74 51.5496 57.3144
6270.59 55.4613 59.9589
6273.44 55.323 59.6352
6276.29 54.7303 59.7592
6279.14 54.936 58.6481
6281.99 51.8742 57.6697
6284.84 54.8716 59.7824
6287.69 50.6153 55.9481
6290.54 55.2943 61.6767
6293.39 55.8102 57.7875
6296.24 52.7382 59.5869
6299.08 56.2944 60.0369
6301.93 56.9055 60.6778
6304.78 53.5009 58.6074
6307.63 50.1652 54.9314
6310.48 51.7107 57.154
6313.32 53.3317 58.5165
6316.17 48.7062 55.7215
6319.02 55.0561 59.237
6321.87 53.7546 59.0316
6324.71 53.4409 58.6263
6327.56 56.9028 61.1987
6330.41 49.2121 54.3815
6333.25 52.5744 57.9314
6336.1 55.7461 60.2347
6338.95 54.7509 60.4402
6341.79 50.2088 54.1563
6344.64 55.3104 58.1991
6347.49 55.7605 60.9715
6350.33 52.8272 57.399
6353.18 54.4407 59.5208
6356.02 55.188 58.354
6358.87 56.352 62.8624
6361.71 57.1193 63.4394
6364.56 55.334 60.9465
6367.4 54.4491 59.8322
6370.25 53.6495 58.7918
6373.09 56.9936 63.3566
6375.94 53.0725 57.8487
6378.78 54.0727 56.8963
6381.63 58.5897 63.136
6384.47 57.2029 61.2133
6387.32 57.5224 60.6146
6390.16 54.569 58.3401
6393 56.3344 60.7874
6395.85 55.1407 61.2501
6398.69 54.6562 60.1169
6401.53 57.5861 62.9887
6404.38 57.9792 62.5314
6407.22 56.4528 62.7093
6410.06 57.0547 62.3554
6412.91 55.7453 62.7341
6415.75 52.955 58.1013
6418.59 59.1877 64.0488
6421.43 56.6979 61.1484
6424.28 60.6237 67.0657
6427.12 54.6104 58.5224
6429.96 57.9343 62.9888
6432.8 52.6489 58.8021
6435.64 57.2433 61.0993
6438.49 58.4286 62.7111
6441.33 56.0728 60.773
6444.17 56.6782 60.9266
6447.01 53.6877 59.0647
6449.85 56.3796 61.3893
6452.69 56.0476 62.9005
6455.53 53.7893 60.0193
6458.37 56.5634 61.9923
6461.21 53.4962 58.2644
6464.05 55.4637 60.8691
6466.89 55.2266 61.7082
6469.73 55.0982 62.1081
6472.57 60.0054 63.7494
6475.41 57.4649 61.945
6478.25 58.3447 62.1345
6481.09 59.3023 63.812
6483.93 58.5344 63.4876
6486.77 57.8006 62.678
6489.61 52.7263 58.1355
6492.45 53.8464 59.1368
6495.29 53.9691 59.2966
6498.12 57.168 63.2987
6500.96 57.2689 62.5301
6503.8 57.3212 62.4697
6506.64 56.0152 60.4829
6509.48 53.2133 57.5109
6512.31 51.1165 56.7735
6515.15 53.1644 57.0247
6517.99 54.2658 59.3625
6520.83 56.9908 61.3544
6523.66 55.2863 60.2508
6526.5 58.5817 64.3612
6529.34 52.8789 58.452
6532.17 57.792 62.9493
6535.01 53.8268 58.6022
6537.85 54.248 59.7231
6540.68 57.8428 63.7726
6543.52 56.4761 60.9324
6546.36 55.547 59.8853
6549.19 54.3834 58.7475
6552.03 55.5212 61.2781
6554.86 53.5948 58.5941
6557.7 57.3371 63.1616
6560.53 54.4752 60.3835
6563.37 56.0617 60.8696
6566.2 56.5227 61.7039
6569.04 56.0614 59.2267
6571.87 55.6723 58.4583
6574.71 57.1071 62.9264
6577.54 59.4922 63.592
6580.38 53.7625 58.1362
6583.21 56.1136 60.3613
6586.04 58.7304 62.8304
6588.88 54.5403 58.6673
6591.71 52.9561 57.1035
6594.54 54.1799 58.9137
6597.38 57.7465 61.7795
6600.21 54.6954 58.6752
6603.04 56.2654 60.6295
6605.88 57.1115 62.4864
6608.71 55.1364 59.9521
6611.54 59.8482 64.6015
6614.37 55.3224 59.3075
6617.21 61.5765 67.7842
6620.04 58.7715 63.5448
6622.87 56.5729 62.6283
6625.7 60.0909 64.6211
6628.53 57.4756 61.7933
6631.37 58.7659 63.9535
6634.2 58.885 64.1055
6637.03 56.537 61.4222
6639.86 61.071 68.0317
6642.69 59.5556 65.8422
6645.52 64.6928 71.2511
6648.35 64.651 69.7565
6651.18 61.8786 68.1473
6654.01 65.5184 71.43
6656.84 82.5354 90.2973
6659.67 96.4584 104.682
6662.5 100.558 108.747
6665.33 96.0222 101.847
6668.16 81.2106 86.7341
6670.99 73.6 78.8779
6673.82 66.4641 72.1832
6676.65 67.4094 72.4632
6679.48 73.0672 79.1065
6682.31 71.9525 78.5723
6685.13 73.9276 79.7572
6687.96 69.6337 76.0394
6690.79 63.1006 68.9277
6693.62 63.1982 67.2909
6696.45 61.2749 67.2598
6699.27 60.0536 65.9365
6702.1 58.7828 64.1359
6704.93 63.8848 70.3093
6707.76 59.1514 63.745
6710.58 59.2589 64.816
6713.41 60.6166 65.6584
6716.24 60.4639 66.2261
6719.06 62.8289 67.3933
6721.89 62.5694 68.7041
6724.72 61.2915 68.065
6727.54 60.0513 66.2159
6730.37 62.2136 66.929
6733.19 57.4704 63.1306
6736.02 57.8011 62.1275
6738.85 59.5504 64.129
6741.67 60.617 66.3359
6744.5 58.3062 64.4971
6747.32 58.1721 63.1806
6750.15 58.8708 64.3649
6752.97 58.2424 62.3609
6755.8 62.7653 68.5077
6758.62 61.2662 64.9193
6761.44 59.0255 61.4537
6764.27 61.9864 67.9357
6767.09 57.4935 62.2663
6769.92 62.3388 67.1024
6772.74 60.5633 64.4761
6775.56 60.3873 64.3583
6778.39 60.8668 62.3104
6781.21 61.3882 64.1668
6784.03 63.9533 66.5038
6786.86 62.282 66.6887
6789.68 64.6743 68.3844
6792.5 61.1472 64.2988
6795.32 63.3199 66.1304
6798.15 63.7722 65.839
6800.97 66.3184 69.2254
6803.79 60.672 62.833
6806.61 62.3345 64.3711
6809.43 61.1197 63.832
6812.25 64.9739 66.8217
6815.08 67.6398 70.4559
6817.9 72.6294 74.34
6820.72 69.3159 69.4107
6823.54 66.7973 68.4931
6826.36 67.9772 68.6712
6829.18 67.3246 67.5184
6832 65.0449 63.6648
6834.82 69.9803 68.7402
6837.64 68.6814 68.0033
6840.46 64.0013 63.2317
6843.28 62.8683 61.2214
6846.1 60.9157 61.7642
6848.92 59.6357 59.9295
6851.74 64.7686 64.1532
6854.56 60.7075 60.8045
6857.37 61.1136 61.4096
6860.19 61.3565 61.744
6863.01 57.6878 59.1343
6865.83 49.8484 51.2653
6868.65 50.4738 51.4763
6871.47 51.1537 49.9446
6874.28 49.4793 49.3177
6877.1 49.4575 48.9257
6879.92 55.9464 55.7841
6882.74 57.563 56.5909
6885.55 57.4893 57.0847
6888.37 55.265 55.4656
6891.19 56.3666 57.048
6894 56.3058 55.7227
6896.82 56.4952 56.9069
6899.64 56.0415 55.662
6902.45 54.9778 55.761
6905.27 58.6574 58.4654
6908.08 60.4245 59.906
6910.9 62.1015 61.5009
6913.72 64.0109 65.2274
6916.53 61.0966 61.3337
6919.35 61.1593 61.9692
6922.16 60.1052 58.2922
6924.98 64.1524 64.4079
6927.79 60.3801 60.5279
6930.6 60.5368 59.6545
6933.42 60.082 61.1185
6936.23 59.7733 58.7751
6939.05 60.1741 61.7223
6941.86 61.2374 60.5049
6944.67 61.3553 63.0857
6947.49 58.4244 60.4176
6950.3 57.3671 58.3404
6953.11 61.0008 61.8101
6955.93 60.9993 61.8976
6958.74 60.9298 63.3698
6961.55 62.1072 63.6939
6964.37 62.1753 63.5601
6967.18 60.7418 63.543
6969.99 59.976 62.0745
6972.8 62.7615 64.2449
6975.61 62.3578 65.602
6978.42 62.8481 65.8743
6981.24 61.6812 63.5339
6984.05 60.4736 64.785
6986.86 63.2258 64.6503
6989.67 60.3975 62.9736
6992.48 64.1363 65.9846
6995.29 61.5552 64.0404
6998.1 61.5472 63.9475
7000.91 63.2588 65.7497
7003.72 58.8261 62.0346
7006.53 59.6094 61.8172
7009.34 63.583 63.4756
7012.15 61.8744 65.0257
7014.96 65.6646 67.2117
7017.77 61.8934 63.9865
7020.58 63.883 66.0918
7023.39 61.7659 65.0743
7026.2 60.3044 62.4677
7029 63.3344 65.3356
7031.81 58.7771 60.0942
7034.62 60.2837 63.0829
7037.43 64.3012 66.2579
7040.24 58.3565 61.9411
7043.04 63.039 63.5292
7045.85 62.078 64.9231
7048.66 59.244 61.4839
7051.47 62.7376 64.1549
7054.27 62.1247 63.2095
7057.08 54.3979 63.4175
7059.89 57.617 64.853
7062.69 56.156 62.0043
7065.5 60.0506 68.553
7068.31 56.2646 64.2868
7071.11 58.5253 65.3021
7073.92 55.1526 62.9889
7076.72 58.8291 66.723
7079.53 60.4318 69.6088
7082.33 60.0624 65.5541
7085.14 57.0905 66.2032
7087.94 56.7405 64.8807
7090.75 56.4129 65.915
7093.55 58.5312 64.9332
7096.36 57.3301 65.4497
7099.16 58.5751 63.4761
7101.97 55.932 62.8793
7104.77 55.1516 62.8405
7107.57 56.8659 65.8271
7110.38 59.187 67.7449
7113.18 54.5673 59.4449
7115.98 58.2278 64.4349
7118.79 57.7786 64.7507
7121.59 58.7439 66.1684
7124.39 58.3433 64.1279
7127.19 57.4542 64.9877
7130 52.8656 61.4019
7132.8 58.8323 66.6242
7135.6 57.7994 65.3651
7138.4 59.7724 65.9112
7141.2 59.1675 67.1678
7144 58.7056 64.9537
7146.81 54.9204 62.0289
7149.61 56.7998 61.22
7152.41 58.5393 64.9552
7155.21 60.792 71.3224
7158.01 54.1594 64.6373
7160.81 60.7352 66.4487
7163.61 55.3718 61.9987
7166.41 53.1855 59.4166
7169.21 52.3669 57.7813
7172.01 52.7612 59.4391
7174.81 50.1446 53.214
7177.61 51.1296 55.9868
7180.41 48.7951 55.8413
7183.2 49.4525 56.7015
7186 47.4148 51.2929
7188.8 48.6428 55.7251
7191.6 46.7636 52.0047
7194.4 48.5486 52.2768
7197.2 49.8274 53.6947
7199.99 47.8995 53.8966
7202.79 55.5446 61.5007
7205.59 50.0779 56.6979
7208.39 49.9704 55.089
7211.18 55.9019 64.137
7213.98 55.1456 60.3795
7216.78 56.3505 62.2007
7219.57 55.3153 61.4532
7222.37 52.9703 56.4411
7225.17 53.1527 60.1055
7227.96 50.47 57.3239
7230.76 49.2695 54.854
7233.55 52.9596 56.5899
7236.35 54.147 58.8108
7239.14 45.9483 51.9005
7241.94 49.1577 52.3914
7244.73 47.4453 53.081
7247.53 47.1781 58.2396
7250.32 45.8273 51.3192
7253.12 51.4472 58.2029
7255.91 50.4235 54.6475
7258.71 46.5014 52.0208
7261.5 50.4018 56.3989
7264.29 49.4777 54.8736
7267.09 45.6203 50.6642
7269.88 52.6639 55.5805
7272.67 47.006 52.4
7275.47 47.9573 56.0915
7278.26 48.4836 58.0131
7281.05 51.5906 57.399
7283.84 52.6806 60.2763
7286.63 51.2447 57.6445
7289.43 48.8106 58.4103
7292.22 53.4419 60.5806
7295.01 48.8834 55.6839
7297.8 54.9044 58.3822
7300.59 52.7121 54.6038
7303.38 50.3951 56.8817
7306.17 48.3548 53.9912
7308.96 53.6632 56.8381
7311.76 51.6187 54.6695
7314.55 49.0556 56.661
7317.34 54.8421 60.7063
7320.13 52.9348 63.1146
7322.92 56.8585 64.7127
7325.7 54.518 62.3769
7328.49 52.5368 58.8393
7331.28 54.7016 63.2204
7334.07 60.0047 64.9204
7336.86 50.9884 55.7717
7339.65 57.5918 63.3016
7342.44 54.3981 61.1608
7345.23 54.5019 64.9805
7348.01 55.3385 64.0014
7350.8 55.7132 60.6549
7353.59 51.9849 57.0177
7356.38 56.1286 62.3771
7359.16 56.0144 62.0916
7361.95 52.6279 56.044
7364.74 55.629 61.4534
7367.52 58.244 59.5189
7370.31 59.7817 63.7322
7373.1 56.1718 64.7611
7375.88 51.998 59.6137
7378.67 58.3049 63.4394
7381.46 55.0883 61.6529
7384.24 52.2906 60.5742
7387.03 57.0457 60.5894
7389.81 55.2158 61.0696
7392.6 53.5169 60.0135
7395.38 57.1909 59.7337
7398.17 53.4388 62.1258
7400.95 52.1283 59
7403.73 57.0443 66.5738
7406.52 59.8579 64.6554
7409.3 56.2012 63.3163
7412.09 56.3252 60.6631
7414.87 56.2119 59.3575
7417.65 57.8113 61.7416
7420.44 58.7693 62.9297
7423.22 56.7004 59.8789
7426 58.3013 62.793
7428.78 57.8734 59.9
7431.57 61.7694 67.3014
7434.35 59.3092 62.442
7437.13 57.5735 63.1013
7439.91 62.6073 66.5246
7442.69 59.1127 64.4166
7445.48 61.8905 67.5416
7448.26 61.6478 65.3342
7451.04 61.7948 66.784
7453.82 59.4438 63.6085
7456.6 61.2291 65.6046
7459.38 61.6061 64.3078
7462.16 61.2685 64.0869
7464.94 62.5795 67.4476
7467.72 63.983 68.2671
7470.5 57.2085 58.4819
7473.28 59.5179 64.8431
7476.06 63.6369 68.4842
7478.84 58.8081 64.588
7481.62 63.1978 67.164
7484.39 58.1475 64.4067
7487.17 60.0676 65.7958
7489.95 63.0302 69.2977
7492.73 58.0521 61.3372
7495.51 56.2786 63.3959
7498.28 55.9697 61.6662
7501.06 58.531 64.986
7503.84 59.1253 64.1979
7506.62 57.7447 63.1725
7509.39 60.8913 67.6089
7512.17 57.4285 62.295
7514.95 61.1516 64.455
7517.72 58.8175 63.3239
7520.5 61.3268 64.1851
7523.27 59.3482 61.0701
7526.05 53.5151 61.3558
7528.83 61.6307 68.7485
7531.6 57.0447 63.2714
7534.38 59.0235 63.2924
7537.15 52.7 56.5004
7539.93 54.3408 60.9363
7542.7 55.0751 59.9484
7545.47 52.1529 60.3466
7548.25 55.2231 59.6807
7551.02 54.4796 58.7822
7553.8 54.4828 57.6036
7556.57 55.7011 58.7656
7559.34 55.7523 58.9137
7562.12 57.4505 65.1381
7564.89 55.4978 60.7114
7567.66 58.6428 62.3837
7570.43 56.251 59.0068
7573.21 57.0628 58.7227
7575.98 55.3159 62.0273
7578.75 54.0711 57.288
7581.52 55.2883 62.1984
7584.29 53.7512 58.772
7587.07 53.1083 58.1099
7589.84 45.8453 53.3345
7592.61 39.3089 42.7995
7595.38 26.3443 27.6596
7598.15 24.6108 23.3454
7600.92 17.4864 16.8729
7603.69 15.0801 15.3502
7606.46 18.4138 18.3535
7609.23 20.9965 21.037
7612 28.3765 28.6688
7614.77 37.2382 40.5142
7617.54 38.5835 38.8215
7620.31 35.1582 38.5548
7623.08 35.8629 37.7324
7625.84 30.4641 32.3682
7628.61 32.4388 31.4611
7631.38 33.4307 33.9095
7634.15 32.1345 32.4592
7636.92 35.5853 36.1345
7639.68 37.6265 40.6414
7642.45 36.0667 38.4914
7645.22 39.7946 41.8998
7647.99 41.2308 41.2396
7650.75 43.7127 45.7376
7653.52 46.625 50.0173
7656.28 48.8295 50.8604
7659.05 50.7822 53.258
7661.82 53.3455 54.8688
7664.58 51.6872 52.1343
7667.35 54.772 56.4437
7670.11 58.1062 59.405
7672.88 56.8074 56.1137
7675.64 58.6148 58.9209
7678.41 56.5209 55.6074
7681.17 57.6457 59.0014
7683.94 56.385 58.7257
7686.7 57.8851 58.1774
7689.47 63.1833 62.74
7692.23 58.3377 58.1282
7694.99 56.3213 58.1096
7697.76 61.9191 61.3297
7700.52 59.5956 60.3075
7703.28 54.6524 55.7871
7706.04 61.4283 61.5861
7708.81 67.3644 62.7351
7711.57 62.4203 57.0428
7714.33 61.6913 60.7141
7717.09 57.0788 58.8165
7719.85 57.7333 60.0486
7722.62 57.0711 61.1842
7725.38 59.7825 59.0902
7728.14 62.8287 62.6109
7730.9 62.0721 60.4453
7733.66 61.292 62.5784
7736.42 64.9026 62.0537
7739.18 61.5196 60.9166
7741.94 57.29 62.1816
7744.7 65.009 59.723
7747.46 61.9955 57.6501
7750.22 62.5358 60.0048
7752.98 63.0079 66.7934
7755.74 63.0337 63.0188
7758.5 62.0329 66.3729
7761.25 58.7855 64.1394
7764.01 60.3067 65.0123
7766.77 64.784 65.1909
7769.53 66.2744 67.055
7772.29 60.9065 62.3736
7775.04 61.5212 58.95
7777.8 55.581 54.7826
7780.56 57.5046 58.9526
7783.31 58.2342 60.2513
7786.07 58.9801 60.9636
7788.83 65.7002 61.1292
7791.58 62.5475 58.0313
7794.34 63.7563 66.2194
7797.1 61.1576 61.4148
7799.85 58.0564 61.7959
7802.61 65.7261 65.4994
7805.36 55.5354 55.4779
7808.12 60.3838 62.0119
7810.87 58.599 65.3347
7813.63 52.8114 57.0882
7816.38 55.6361 55.2927
7819.13 63.3462 61.508
7821.89 66.5134 60.9683
7824.64 61.4379 64.5132
7827.4 56.72 58.4812
7830.15 60.7304 62.6788
7832.9 60.1292 63.6938
7835.65 56.3986 59.4242
7838.41 61.3363 64.2923
7841.16 60.1611 64.4281
7843.91 61.786 65.3834
7846.66 64.0718 65.4263
7849.42 63.9777 63.3391
7852.17 63.8685 62.4858
7854.92 54.3634 55.3319
7857.67 51.3419 55.3605
7860.42 59.0222 58.449
7863.17 58.4914 62.0301
7865.92 59.7073 58.7782
7868.67 58.0959 56.9721
7871.42 58.4552 60.3023
7874.17 62.4179 66.5893
7876.92 56.8616 61.2031
7879.67 57.7367 63.7441
7882.42 61.0275 64.9811
7885.17 55.5291 54.8813
7887.92 66.1196 67.5311
7890.67 58.0923 54.6923
7893.42 55.5163 63.1733
7896.16 54.0512 60.1681
7898.91 56.9122 63.5645
7901.66 60.5151 63.5233
7904.41 56.4072 58.3128
7907.15 54.0417 54.8755
7909.9 64.3727 65.3489
7912.65 52.023 56.3558
7915.39 62.1476 62.6774
7918.14 64.165 70.3472
7920.89 59.0875 60.6442
7923.63 64.3422 73.7687
7926.38 61.2573 66.8443
7929.12 58.2832 61.8632
7931.87 60.9396 68.593
7934.62 66.9932 68.657
7937.36 60.986 64.245
7940.1 61.2457 64.4649
7942.85 59.2438 60.538
7945.59 64.9523 65.605
7948.34 59.3768 61.7716
7951.08 53.2083 59.5515
7953.83 59.0213 62.7019
7956.57 59.302 65.627
7959.31 61.1671 65.2083
7962.05 60.0592 61.6798
7964.8 53.9598 62.797
7967.54 51.3964 57.1279
7970.28 56.238 65.6363
7973.02 48.9572 60.7691
7975.77 52.8259 61.0737
7978.51 57.0617 66.465
7981.25 58.4958 66.9313
7983.99 47.7217 59.4264
7986.73 52.5987 66.175
7989.47 60.7825 61.1234
7992.21 61.296 57.7247
7994.95 52.1014 61.2293
7997.69 53.2133 61.7329
8000.43 54.9504 63.0957
8003.17 54.2561 61.4247
8005.91 54.9868 62.5191
8008.65 53.7013 61.463
8011.39 55.5501 66.0739
8014.13 52.3016 63.016
8016.87 47.4003 58.4474
8019.61 50.6984 63.3767
8022.34 47.5524 55.6332
8025.08 59.9449 65.7545
8027.82 55.836 59.6276
8030.56 52.3145 68.6831
8033.29 48.8752 56.822
8036.03 52.7503 60.7721
8038.77 54.9743 61.0562
8041.51 54.3396 64.4628
8044.24 51.8058 61.7002
8046.98 51.2594 61.5149
8049.71 53.0468 59.0335
8052.45 57.0855 67.3657
8055.18 53.6534 65.3534
8057.92 55.2316 60.0555
8060.65 49.9191 53.8262
8063.39 53.7468 62.4424
8066.12 49.4145 66.1458
8068.86 53.9131 67.5248
8071.59 56.5299 66.6235
8074.33 52.7338 64.7735
8077.06 55.4692 61.1177
8079.79 54.5609 63.6727
8082.53 55.1912 70.2864
8085.26 54.0507 70.1785
8087.99 53.759 67.7311
8090.73 59.1794 71.7823
8093.46 57.5214 66.2788
8096.19 56.3068 65.9713
8098.92 52.263 64.5619
8101.65 48.101 62.7386
8104.38 55.3822 64.666
8107.12 56.3014 64.0771
8109.85 50.9006 62.3174
8112.58 57.0092 65.2815
8115.31 54.1292 61.8157
8118.04 60.729 69.7491
8120.77 53.3244 61.1362
8123.5 54.8097 61.577
8126.23 55.6587 63.4653
8128.96 51.8859 61.6217
8131.69 55.4526 65.0215
8134.42 50.9082 60.5985
8137.14 53.5762 61.3372
8139.87 47.5868 57.6959
8142.6 50.879 60.1106
8145.33 49.2704 57.0745
8148.06 52.7591 63.3792
8150.78 48.7467 61.439
8153.51 49.3209 58.2301
8156.24 47.1885 55.8964
8158.97 52.4846 58.9562
8161.69 48.9247 59.4596
8164.42 48.7369 56.3436
8167.15 50.6885 58.7485
8169.87 50.4416 56.3678
8172.6 50.238 59.1798
8175.32 45.5382 58.0974
8178.05 48.4857 62.3507
8180.77 52.2117 63.756
8183.5 49.9167 59.1304
8186.22 48.7253 55.8284
8188.95 48.2942 57.1149
8191.67 54.4041 62.7846
8194.4 50.8491 59.7639
8197.12 50.6371 59.7657
8199.84 51.3032 64.2296
8202.57 55.3312 65.8432
8205.29 53.8988 60.5667
8208.01 52.636 60.0584
8210.73 53.6217 64.5633
8213.46 51.8847 59.8271
8216.18 52.9742 64.8372
8218.9 51.4197 57.9785
8221.62 49.9401 53.8762
8224.34 46.9281 56.001
8227.06 39.9786 44.7462
8229.79 46.9346 53.3884
8232.51 52.1113 60.0328
8235.23 53.5317 60.4365
8237.95 57.1176 61.6601
8240.67 67.9473 67.5498
8243.39 60.2926 67.4906
8246.11 55.9113 67.284
8248.83 55.4379 66.865
8251.54 51.6283 63.7491
8254.26 48.1745 59.5509
8256.98 53.6472 63.0934
8259.7 52.9027 62.3353
8262.42 57.083 63.1582
8265.14 51.2768 62.8629
8267.85 52.7409 64.7933
8270.57 54.9998 68.3431
8273.29 54.4854 64.0614
8276.01 54.1254 65.4961
8278.72 53.1945 58.5999
8281.44 46.0693 49.7725
8284.16 53.1802 60.0318
8286.87 48.8268 56.8616
8289.59 47.6261 66.3336
8292.3 45.9725 68.0229
8295.02 49.001 58.0827
8297.73 52.2852 68.4653
8300.45 60.5666 71.5261
8303.16 48.7322 65.5313
8305.88 53.4741 73.6857
8308.59 56.3837 65.0943
8311.31 56.2952 67.8185
8314.02 51.8732 65.8586
8316.73 54.1203 59.3545
8319.45 53.8439 64.7355
8322.16 52.6854 67.577
8324.87 56.1916 66.7592
8327.58 53.9841 68.3585
8330.3 53.5823 66.1695
8333.01 50.6746 59.5733
8335.72 48.5385 62.2301
8338.43 48.9828 62.6044
8341.14 51.0881 48.4574
8343.85 42.7572 56.0066
8346.56 61.5966 74.0043
8349.28 44.313 70.5343
8351.99 59.1037 78.5223
8354.7 51.1474 50.7015
8357.41 56.8334 76.7675
8360.12 50.1029 63.6128
8362.82 54.7122 62.619
8365.53 61.3024 67.829
8368.24 57.122 76.6205
8370.95 56.2218 71.9247
8373.66 59.3567 73.8324
8376.37 53.7059 69.1002
8379.08 61.1239 70.8338
8381.78 61.5934 61.3601
8384.49 62.0064 62.5401
8387.2 56.0341 65.1057
8389.91 57.1583 69.3633
8392.61 56.2786 72.9319
8395.32 66.8618 73.6984
8398.03 62.8449 66.9758
8400.73 59.965 60.3528
8403.44 59.3597 71.6344
8406.14 51.1783 66.8555
8408.85 55.8372 68.1091
8411.55 61.3541 65.992
8414.26 55.4836 63.7506
8416.96 52.9731 60.9959
8419.67 50.1469 65.7185
8422.37 57.8807 71.7215
8425.08 50.5429 59.0404
8427.78 63.247 65.8297
8430.48 52.523 59.5648
8433.19 65.1516 65.5916
8435.89 51.3163 61.431
8438.59 53.2609 69.6198
8441.29 56.3955 65.0253
8444 52.3583 66.5522
8446.7 53.8989 70.2688
8449.4 55.1461 63.2346
8452.1 53.4115 68.434
8454.8 52.8553 69.5156
8457.5 53.9703 76.8625
8460.2 50.6912 65.2376
8462.91 58.7759 57.5256
8465.61 57.4949 57.1754
8468.31 51.3186 58.9547
8471.01 56.714 65.5766
8473.7 53.3082 70.1536
8476.4 52.8417 66.4997
8479.1 58.3928 75.8872
8481.8 57.2586 65.1006
8484.5 50.2452 64.0455
8487.2 56.6691 70.2177
8489.9 55.893 72.8096
8492.59 57.3429 63.8659
8495.29 57.5566 65.5046
8497.99 52.3892 61.2508
8500.69 55.7139 71.6539
8503.38 63.7246 67.3077
8506.08 56.6255 64.2821
8508.78 60.9252 68.4717
8511.47 55.8466 56.7854
8514.17 58.4653 66.7249
8516.86 57.6424 77.1718
8519.56 54.6523 65.6084
8522.25 56.0938 69.9481
8524.95 60.0265 70.1945
8527.64 53.605 67.3299
8530.34 57.4756 68.6112
8533.03 59.5764 73.185
8535.73 63.1371 74.2935
8538.42 58.8171 70.456
8541.11 57.0793 66.6472
8543.81 59.1428 67.2531
8546.5 61.0956 73.762
8549.19 61.9097 70.5171
8551.89 62.5394 73.2316
8554.58 55.7199 67.0412
8557.27 59.8684 65.6334
8559.96 60.057 67.3255
8562.65 60.1177 71.1516
8565.34 59.0762 65.6475
8568.03 57.3973 66.5457
8570.73 64.0581 74.2824
8573.42 61.4847 67.1477
8576.11 61.6274 66.8214
8578.8 58.4143 66.0393
8581.49 56.8496 66.4174
8584.17 59.584 69.9219
8586.86 61.4557 67.8856
8589.55 66.1464 74.9868
8592.24 61.4724 74.5586
8594.93 60.1953 72.142
8597.62 59.3161 66.3266
8600.31 62.8193 70.3006
8602.99 63.3427 70.663
8605.68 56.596 67.122
8608.37 54.8852 63.2932
8611.06 59.1435 69.466
8613.74 61.6315 66.7919
8616.43 64.0111 70.2566
8619.11 62.671 77.7892
8621.8 58.3331 63.8255
8624.49 62.0066 71.3413
8627.17 57.4436 65.9964
8629.86 52.7174 64.9332
8632.54 54.5617 65.7373
8635.23 56.6348 67.5651
8637.91 65.8083 81.1595
8640.6 62.4713 76.7288
8643.28 57.0576 71.5392
8645.96 56.0666 69.3445
8648.65 54.4452 62.776
8651.33 65.5365 81.6197
8654.01 57.6526 69.8437
8656.69 59.6522 75.9938
8659.38 63.6063 72.1044
8662.06 59.1133 75.5534
8664.74 58.4431 69.2939
8667.42 53.5079 69.6187
8670.1 53.0642 62.8225
8672.79 52.9647 68.014
8675.47 48.5537 59.1912
8678.15 53.2817 68.6893
8680.83 49.462 57.8749
8683.51 49.4022 64.5955
8686.19 51.1116 65.3277
8688.87 59.7797 70.1615
8691.55 61.2065 78.8995
8694.23 58.4581 75.228
8696.9 57.8957 70.1448
8699.58 60.5698 72.5681
8702.26 66.6927 83.7789
8704.94 59.951 71.6646
8707.62 59.807 74.6855
8710.29 63.1533 73.5506
8712.97 54.8207 69.9139
8715.65 58.969 73.6571
8718.33 57.3152 69.2301
8721 65.4189 82.0885
8723.68 57.8464 70.6931
8726.35 62.2013 75.1278
8729.03 64.6914 80.5315
8731.71 57.9059 66.9067
8734.38 58.6825 71.8272
8737.06 60.9085 74.3909
8739.73 58.111 71.4859
8742.41 58.0573 70.0083
8745.08 65.9586 82.6594
8747.75 62.0019 77.7235
8750.43 58.5697 77.8096
8753.1 59.5995 75.0715
8755.77 59.072 80.9397
8758.45 61.635 96.986
8761.12 59.324 77.016
8763.79 57.3745 96.8186
8766.46 63.8278 98.2154
8769.14 61.2537 95.877
8771.81 55.4931 81.0924
8774.48 58.2998 103.031
8777.15 46.6958 76.4813
8779.82 53.8873 66.5631
8782.49 54.3175 74.2304
8785.16 44.6018 86.9863
8787.83 48.7427 85.9023
8790.5 53.149 72.5064
8793.17 52.0271 72.3382
8795.84 47.8361 65.9819
8798.51 43.8696 57.8048
8801.18 44.4668 71.0355
8803.85 49.8179 72.6257
8806.52 50.3228 77.0501
8809.18 50.8082 77.2087
8811.85 50.291 77.9064
8814.52 53.7336 77.6067
8817.19 51.8694 74.072
8819.85 45.7768 84.5787
8822.52 47.7259 108.146
8825.19 54.496 120.428
8827.85 64.5141 113.883
8830.52 68.5565 71.4116
8833.18 49.2125 55.9401
8835.85 45.7208 92.9286
8838.51 55.3159 62.1175
8841.18 51.404 61.0648
8843.84 50.2066 74.8277
8846.51 46.6289 79.3031
8849.17 56.3805 87.6109
8851.84 50.0804 83.2301
8854.5 50.8496 86.4223
8857.16 53.9342 82.9724
8859.83 50.4447 65.8866
8862.49 47.4939 80.684
8865.15 58.3461 99.9817
8867.81 62.6226 97.7017
8870.48 57.6412 85.3289
8873.14 53.0649 65.1218
8875.8 60.1245 82.7146
8878.46 53.2054 94.632
8881.12 60.8142 117.413
8883.78 56.5044 123.346
8886.44 65.9723 103.225
8889.1 65.1084 94.8116
8891.76 56.3001 65.0808
8894.42 46.4262 60.0937
8897.08 54.7329 84.586
8899.74 54.3312 106.866
8902.4 55.4989 95.5787
8905.06 60.6945 92.0295
8907.72 58.8044 72.8811
8910.37 53.2315 75.049
8913.03 54.3074 108.379
8915.69 49.0646 98.6675
8918.35 65.3469 130.582
8921 66.498 94.6916
8923.66 61.1205 69.3591
8926.32 55.0301 37.3134
8928.97 49.3693 27.8289
8931.63 55.8575 75.1546
8934.28 53.0585 63.6941
8936.94 50.8637 85.6239
8939.59 48.3569 77.0843
8942.25 55.2141 90.5352
8944.9 53.4015 98.5493
8947.56 47.3353 65.1337
8950.21 48.0803 68.0241
8952.87 47.3835 88.5387
8955.52 43.5174 96.7996
8958.17 48.3198 103.116
8960.82 56.966 102.956
8963.48 63.838 65.5753
8966.13 30.1559 4.08278
8968.78 32.5622 14.3998
8971.43 46.2488 44.9187
8974.09 45.4829 54.0482
8976.74 43.8651 71.4643
8979.39 46.0928 66.6716
8982.04 46.8412 81.122
8984.69 47.2073 79.2411
8987.34 46.1845 70.5746
8989.99 44.3596 95.0505
8992.64 40.28 74.0189
8995.29 39.9036 58.8294
8997.94 49.1421 84.9676
9000.59 48.1323 97.1165
9003.23 47.0203 98.2165
9005.88 47.1983 109.709
9008.53 45.5341 48.6737
9011.18 39.2838 16.1585
9013.83 49.401 50.7915
9016.47 48.4594 53.5981
9019.12 51.9415 58.998
9021.77 47.7709 73.6162
9024.41 51.3662 75.6031
9027.06 50.6097 81.6409
9029.71 52.1709 90.6475
9032.35 49.0068 83.5804
9035 52.1846 81.7932
9037.64 52.8153 94.4582
9040.29 55.0766 103.207
9042.93 51.2339 80.1523
9045.58 51.8358 73.614
9048.22 52.7045 81.0778
9050.86 48.9024 88.9519
9053.51 51.6372 88.179
9056.15 53.1701 85.3744
9058.79 48.9442 63.5226
9061.44 50.339 50.801
9064.08 52.6224 71.6199
9066.72 59.0994 90.73
