wavelength spec_sum spec_optimal
3528.8 7.70456 14.8254
3531.71 15.3384 15.8855
3534.62 11.8166 11.8862
3537.53 16.0074 19.9882
3540.45 14.6801 4.60054
3543.36 15.4917 20.0279
3546.27 8.62276 18.5459
3549.18 6.6141 13.2551
3552.1 11.9697 19.1715
3555.01 19.7107 28.934
3557.92 8.58574 21.2661
3560.83 14.861 18.7422
3563.75 14.4276 21.5412
3566.66 14.2065 18.001
3569.57 18.7049 17.2574
3572.48 18.3138 27.9705
3575.4 13.3612 11.1461
3578.31 11.1848 16.8416
3581.22 14.2579 19.1026
3584.13 12.5963 16.2758
3587.05 14.9815 21.3109
3589.96 16.6939 20.1128
3592.87 16.196 22.0956
3595.79 10.9762 20.1338
3598.7 11.5294 20.0443
3601.61 20.3172 27.177
3604.52 22.7754 26.0631
3607.44 11.5094 20.1395
3610.35 19.1035 23.5166
3613.26 10.8916 15.3222
3616.17 17.4899 20.6096
3619.09 18.8918 25.3025
3622 18.0545 18.177
3624.91 13.7124 23.3851
3627.82 12.4249 13.4786
3630.74 9.85718 13.0962
3633.65 16.2348 21.906
3636.56 13.1954 16.1751
3639.47 11.7793 17.7677
3642.39 17.8287 21.7095
3645.3 11.2296 7.25286
3648.21 17.0587 18.2339
3651.13 15.9307 16.5643
3654.04 13.1133 13.7193
3656.95 15.8804 14.8191
3659.86 11.9774 10.6664
3662.78 18.6896 25.2634
3665.69 17.4185 21.7076
3668.6 17.0469 19.3073
3671.51 14.403 19.5071
3674.43 6.3635 11.7335
3677.34 13.9983 13.5266
3680.25 10.9614 13.1107
3683.16 16.0061 15.3972
3686.08 19.519 19.5268
3688.99 20.144 20.5425
3691.9 12.817 15.1756
3694.81 13.5851 14.358
3697.73 20.1046 20.7819
3700.64 11.7708 9.91982
3703.55 19.4347 23.4887
3706.46 19.0534 20.9975
3709.38 17.9085 16.859
3712.29 12.2925 11.6678
3715.2 22.645 21.4779
3718.11 12.0096 10.2677
3721.03 19.2307 18.9448
3723.94 19.6992 16.5152
3726.85 16.37 17.2586
3729.76 17.2779 14.3041
3732.68 11.3737 18.5281
3735.59 11.6327 13.0046
3738.5 17.6911 16.4048
3741.41 11.9518 11.1786
3744.33 19.9403 21.2015
3747.24 9.88177 13.0777
3750.15 21.0131 23.7461
3753.06 17.5502 22.8311
3755.98 17.7422 14.5628
3758.89 19.5277 24.1914
3761.8 21.3035 29.055
3764.71 23.9666 19.9417
3767.63 11.7233 16.2953
3770.54 18.5313 19.297
3773.45 19.3833 25.4119
3776.36 23.1717 24.2624
3779.28 20.4599 24.0539
3782.19 23.2095 26.6737
3785.1 22.8845 32.4976
3788.01 22.0422 27.5657
3790.93 19.697 23.1279
3793.84 19.35 25.3442
3796.75 17.6464 22.2855
3799.66 14.1481 18.5747
3802.58 15.151 15.379
3805.49 17.1005 21.5269
3808.4 16.5547 19.3312
3811.31 15.0098 16.6945
3814.23 17.1155 16.5527
3817.14 19.9269 23.6924
3820.05 20.8055 24.4321
3822.96 21.1351 24.7961
3825.87 18.813 21.6657
3828.79 18.2336 18.9214
3831.7 20.7834 25.5936
3834.61 20.6852 21.7176
3837.52 21.7634 23.3149
3840.44 27.1113 30.8057
3843.35 22.2057 27.2697
3846.26 20.3137 27.6095
3849.17 17.0905 20.1582
3852.08 23.9758 24.4797
3855 19.8972 20.0213
3857.91 19.6586 23.9101
3860.82 19.0879 21.1514
3863.73 21.0308 22.9165
3866.64 19.4839 21.9867
3869.56 19.6322 24.3326
3872.47 19.309 20.932
3875.38 17.9748 22.8087
3878.29 18.6365 18.7674
3881.2 16.5068 19.8263
3884.12 20.1118 21.0079
3887.03 23.8134 25.5921
3889.94 16.4463 16.972
3892.85 17.4233 18.2293
3895.76 18.4147 16.5713
3898.68 18.7423 20.5498
3901.59 15.3378 15.5662
3904.5 19.4441 20.7512
3907.41 19.6421 21.3077
3910.32 25.3263 29.9876
3913.24 18.6509 24.0307
3916.15 28.7121 33.509
3919.06 24.5365 30.6458
3921.97 24.3288 27.5608
3924.88 22.1898 27.6139
3927.8 20.3534 20.8802
3930.71 21.1692 24.2023
3933.62 18.9099 22.4554
3936.53 20.4428 19.6921
3939.44 21.2522 22.8446
3942.35 16.8143 18.4964
3945.27 18.5381 19.6715
3948.18 21.2485 23.9663
3951.09 20.7597 26.8831
3954 25.4679 29.0429
3956.91 18.1188 21.2056
3959.82 20.8438 23.381
3962.74 20.8522 25.7133
3965.65 21.5096 21.3046
3968.56 20.0015 23.0002
3971.47 25.7159 26.7954
3974.38 20.6431 24.2345
3977.29 20.9374 24.8661
3980.2 23.7336 25.49
3983.12 18.8777 20.8901
3986.03 20.7219 20.4135
3988.94 16.9702 17.9386
3991.85 17.1395 19.433
3994.76 20.189 22.3145
3997.67 21.0998 23.1211
4000.58 20.18 21.0193
4003.5 20.9342 22.3929
4006.41 19.5114 23.3117
4009.32 19.6948 21.5284
4012.23 24.1544 27.0915
4015.14 22.7418 27.5586
4018.05 20.6731 21.6911
4020.96 22.2377 22.8746
4023.87 19.9612 22.7024
4026.79 15.0573 17.357
4029.7 15.0512 18.709
4032.61 18.9408 19.8311
4035.52 15.9675 21.6995
4038.43 24.5971 27.6272
4041.34 18.9642 21.6469
4044.25 26.5284 29.1609
4047.16 24.1332 24.9267
4050.07 24.0047 27.4006
4052.99 23.5588 29.3673
4055.9 31.5487 32.9082
4058.81 26.0647 27.1173
4061.72 25.8216 29.6052
4064.63 27.8107 27.8057
4067.54 27.9472 29.2958
4070.45 27.1453 29.1324
4073.36 28.2067 30.4642
4076.27 31.1055 34.2316
4079.18 27.7496 29.5434
4082.09 32.1431 33.2664
4085 29.9116 33.5782
4087.92 29.8574 35.43
4090.83 27.8663 30.7088
4093.74 27.3323 31.0923
4096.65 30.2827 32.403
4099.56 31.1177 32.8459
4102.47 26.4786 27.1971
4105.38 30.4156 34.8151
4108.29 27.8449 29.5801
4111.2 31.6889 32.5331
4114.11 28.5726 34.0437
4117.02 27.7238 30.0954
4119.93 30.681 31.1387
4122.84 25.2882 25.7577
4125.75 29.2406 33.0868
4128.66 25.8824 27.8784
4131.57 33.3433 33.5004
4134.48 25.46 25.4936
4137.39 32.733 34.8456
4140.3 31.8613 35.5846
4143.21 25.9283 30.413
4146.12 30.7574 33.829
4149.03 29.1399 31.0731
4151.94 28.6166 31.0571
4154.85 28.0851 30.2932
4157.76 29.9505 33.6615
4160.67 24.1095 27.1723
4163.59 28.3148 33.2033
4166.5 27.5053 28.0799
4169.4 29.843 31.7584
4172.31 29.6651 31.4811
4175.22 27.4257 31.5719
4178.13 30.2706 31.5116
4181.04 29.3856 32.4539
4183.95 29.354 32.4506
4186.86 29.0915 30.4356
4189.77 28.6827 30.6771
4192.68 32.1656 32.5072
4195.59 31.2441 32.7603
4198.5 26.5136 28.6685
4201.41 30.0778 30.8473
4204.32 30.3549 32.5214
4207.23 30.3632 34.5206
4210.14 27.4616 30.0613
4213.05 28.1079 31.3843
4215.96 31.9665 34.9502
4218.87 28.4145 29.9991
4221.78 29.0022 32.9639
4224.69 31.772 34.0844
4227.6 28.898 28.6632
4230.51 30.5681 30.1254
4233.42 27.7303 30.6688
4236.33 27.9806 31.9261
4239.24 29.396 31.2489
4242.14 32.5234 34.4358
4245.05 30.0202 32.5943
4247.96 30.2293 31.6676
4250.87 30.9528 33.1109
4253.78 29.56 30.0004
4256.69 30.2772 32.0119
4259.6 28.7183 30.0391
4262.51 27.6367 29.6768
4265.42 27.7834 30.011
4268.33 31.4771 34.3689
4271.24 29.2757 29.707
4274.14 27.1792 28.7171
4277.05 29.8183 32.3252
4279.96 27.0678 29.521
4282.87 25.5551 27.4715
4285.78 33.5525 36.2964
4288.69 32.0952 34.8669
4291.6 31.9136 34.7265
4294.51 29.6212 32.4839
4297.41 29.8799 31.8348
4300.32 27.5625 31.7248
4303.23 33.0082 35.956
4306.14 31.7006 32.6052
4309.05 32.7774 33.4719
4311.96 31.4155 32.4844
4314.86 34.8629 36.7518
4317.77 32.07 33.1325
4320.68 30.5942 33.2468
4323.59 30.6777 32.0627
4326.5 34.9693 36.129
4329.41 28.689 31.1108
4332.31 30.7491 35.8886
4335.22 32.8365 34.5768
4338.13 30.6215 33.5586
4341.04 29.5337 31.5835
4343.95 29.7161 30.6527
4346.85 29.1104 30.5629
4349.76 28.7063 30.0921
4352.67 30.1633 30.9359
4355.58 29.3872 33.3811
4358.49 30.9376 34.8127
4361.39 27.8714 29.4679
4364.3 28.6445 30.2901
4367.21 27.8749 28.9667
4370.12 29.4164 31.142
4373.02 27.0982 28.3803
4375.93 25.8819 29.0245
4378.84 27.747 29.4818
4381.75 32.5603 34.9207
4384.65 31.9545 33.7807
4387.56 29.6244 32.1882
4390.47 29.401 31.8274
4393.38 33.2546 34.0488
4396.28 33.9934 34.0656
4399.19 30.7242 31.3603
4402.1 30.1354 31.6554
4405.01 31.7214 32.7376
4407.91 31.1738 34.3243
4410.82 34.7849 34.6474
4413.73 31.1274 33.059
4416.63 27.4838 28.6284
4419.54 33.8282 34.7974
4422.45 32.442 34.993
4425.35 34.7473 38.188
4428.26 33.642 34.313
4431.17 33.4573 34.8843
4434.08 31.9029 37.5441
4436.98 32.0452 33.642
4439.89 35.7885 37.9927
4442.8 35.6202 36.2105
4445.7 33.5782 35.4229
4448.61 29.2733 31.1633
4451.52 28.0759 31.4048
4454.42 31.087 34.5172
4457.33 32.3146 37.2231
4460.23 33.0862 35.2346
4463.14 31.3913 35.7028
4466.05 37.8594 38.1913
4468.95 26.7898 29.236
4471.86 32.7915 35.0417
4474.77 33.1461 33.9228
4477.67 36.8067 38.2705
4480.58 33.9763 37.4156
4483.48 36.0647 39.1912
4486.39 32.0346 33.7109
4489.3 34.5039 35.857
4492.2 32.9365 34.8282
4495.11 36.1819 35.933
4498.01 31.362 32.6045
4500.92 37.2853 38.7016
4503.83 30.8323 33.5967
4506.73 38.1888 40.4742
4509.64 33.5998 34.9037
4512.54 34.2041 37.6688
4515.45 38.6333 39.4018
4518.35 35.3024 38.3767
4521.26 36.839 40.5034
4524.16 35 36.4023
4527.07 34.2437 39.0982
4529.97 31.2355 32.7436
4532.88 34.2293 38.2046
4535.79 35.8807 40.1108
4538.69 36.3112 38.6535
4541.6 32.6227 34.0744
4544.5 36.0099 36.7339
4547.41 33.2872 34.7704
4550.31 35.4821 36.8078
4553.22 37.4285 38.6316
4556.12 35.5227 37.0966
4559.03 36.619 38.98
4561.93 38.3491 39.0527
4564.84 38.501 39.3133
4567.74 34.1882 33.9703
4570.64 36.4993 36.6404
4573.55 40.0327 39.1734
4576.45 40.8841 38.6915
4579.36 39.599 40.4378
4582.26 41.843 42.0654
4585.17 32.0442 33.0644
4588.07 39.4215 39.5142
4590.98 37.2167 34.9043
4593.88 36.1999 35.2831
4596.78 34.8111 34.0821
4599.69 39.3057 36.9097
4602.59 38.8271 36.8234
4605.5 36.9255 31.3004
4608.4 40.0331 36.9847
4611.3 36.3231 33.7119
4614.21 38.6524 35.7577
4617.11 38.7726 35.2937
4620.02 38.8293 36.1082
4622.92 36.7058 33.8916
4625.82 39.3621 33.0972
4628.73 41.4207 34.3426
4631.63 39.2171 32.55
4634.53 37.6296 31.4964
4637.44 39.1798 34.524
4640.34 40.2308 35.1078
4643.24 45.9096 38.2076
4646.15 40.8956 35.2653
4649.05 42.1954 35.7412
4651.95 39.2199 32.4985
4654.86 43.5638 35.1208
4657.76 39.2779 33.6584
4660.66 40.6509 32.1608
4663.57 41.1243 33.4157
4666.47 38.5307 31.6247
4669.37 41.4398 33.1921
4672.28 40.0733 30.4095
4675.18 45.7965 35.7697
4678.08 41.2494 33.6557
4680.98 42.5451 32.7504
4683.89 47.394 39.1118
4686.79 42.9674 36.7559
4689.69 46.6265 35.4599
4692.59 43.9376 33.5676
4695.5 37.7837 35.0929
4698.4 38.6766 33.1038
4701.3 45.2568 40.731
4704.2 43.652 40.5664
4707.11 39.6837 35.5917
4710.01 41.5929 38.2822
4712.91 39.5917 38.0014
4715.81 39.5033 34.6747
4718.71 38.0935 36.1368
4721.62 40.5739 36.7488
4724.52 42.7579 39.33
4727.42 38.6564 35.829
4730.32 37.6068 34.3892
4733.22 34.901 32.2356
4736.12 37.8375 34.0298
4739.03 37.0222 34.2689
4741.93 41.4793 38.8401
4744.83 38.551 36.1301
4747.73 39.7098 35.5158
4750.63 39.736 37.5103
4753.53 38.6075 33.408
4756.43 36.5019 33.4258
4759.34 39.5465 36.9352
4762.24 38.9779 36.4915
4765.14 38.822 34.2767
4768.04 37.986 34.8374
4770.94 35.988 32.4959
4773.84 38.7335 37.2131
4776.74 35.1389 33.6431
4779.64 37.5028 35.7842
4782.54 35.9508 33.731
4785.44 36.4138 33.8188
4788.34 36.9543 36.1882
4791.24 42.2887 37.727
4794.15 39.1814 36.1144
4797.05 35.3216 31.6817
4799.95 38.446 36.2274
4802.85 36.6886 34.66
4805.75 40.8271 38.609
4808.65 39.225 36.3301
4811.55 38.4783 36.1284
4814.45 37.7814 34.9006
4817.35 37.5965 36.5813
4820.25 39.8402 36.4652
4823.15 37.9749 35.2723
4826.05 39.0697 35.8028
4828.95 40.2371 39.3123
4831.85 38.9551 37.3222
4834.75 39.8934 36.3145
4837.65 38.4656 34.7939
4840.54 42.2098 38.7572
4843.44 40.9875 37.6309
4846.34 38.6696 39.0076
4849.24 40.3171 37.0833
4852.14 41.298 38.5514
4855.04 39.4251 37.911
4857.94 43.9223 41.4748
4860.84 39.5778 36.9835
4863.74 41.8995 37.8461
4866.64 44.1028 41.4121
4869.54 43.2897 38.1578
4872.43 40.7161 37.5011
4875.33 39.4887 38.2859
4878.23 42.9796 40.3176
4881.13 40.7255 38.5801
4884.03 40.6007 40.5974
4886.93 44.1106 41.451
4889.83 44.6314 42.9013
4892.72 47.1137 44.3016
4895.62 40.5953 38.6938
4898.52 46.652 46.0037
4901.42 43.0734 42.7139
4904.32 45.1327 45.7583
4907.22 41.2106 40.0098
4910.11 42.4366 41.3431
4913.01 43.4704 41.4069
4915.91 43.1569 41.0939
4918.81 46.5942 45.5093
4921.7 39.795 38.2826
4924.6 39.5619 37.645
4927.5 40.9168 38.4755
4930.4 41.1383 38.3926
4933.29 44.2366 41.5455
4936.19 39.7369 39.0253
4939.09 38.4345 36.246
4941.99 38.9751 38.1374
4944.88 38.8849 35.9424
4947.78 38.9392 37.2704
4950.68 40.5981 37.7307
4953.57 39.2273 37.2892
4956.47 38.9107 37.5696
4959.37 35.2188 33.7297
4962.26 36.7379 34.5958
4965.16 40.9634 38.3899
4968.06 42.1148 39.1523
4970.95 45.4968 41.3305
4973.85 40.0589 37.2445
4976.75 39.3318 38.4707
4979.64 41.5289 39.3418
4982.54 42.4429 39.8656
4985.44 43.9714 41.2137
4988.33 43.043 41.6354
4991.23 38.9572 36.0429
4994.12 40.0345 37.1833
4997.02 41.9081 39.9148
4999.92 41.1928 39.1955
5002.81 43.6941 42.1889
5005.71 42.4772 40.4944
5008.6 43.0562 40.2997
5011.5 39.9282 38.5745
5014.39 40.264 39.9204
5017.29 45.0063 41.791
5020.18 45.2688 43.5268
5023.08 45.8369 43.7093
5025.97 43.8671 42.2018
5028.87 41.3111 39.115
5031.76 40.6893 38.848
5034.66 44.4866 43.6186
5037.55 45.8734 43.6184
5040.45 41.2576 39.9219
5043.34 43.3818 42.829
5046.24 44.3296 44.6033
5049.13 45.3831 43.4689
5052.03 45.4134 45.5575
5054.92 42.2068 40.7301
5057.82 42.0099 42.3176
5060.71 40.8556 41.739
5063.61 43.4537 42.6631
5066.5 44.4429 45.3691
5069.39 43.2988 42.6992
5072.29 43.1682 43.1308
5075.18 42.0911 41.95
5078.08 44.5028 44.0506
5080.97 42.5782 42.0914
5083.86 45.1811 44.168
5086.76 44.8957 43.0169
5089.65 43.3121 43.4578
5092.54 42.3835 43.3137
5095.44 43.3591 43.4481
5098.33 44.7854 44.4621
5101.22 43.6412 42.1771
5104.12 42.6182 42.7603
5107.01 43.8033 45.2015
5109.9 43.4543 43.1407
5112.8 41.6908 43.6175
5115.69 44.612 44.4042
5118.58 39.8944 40.1489
5121.47 41.3107 43.2306
5124.37 43.4029 45.4438
5127.26 43.5337 43.0156
5130.15 41.6432 40.8716
5133.04 44.3846 44.0308
5135.94 46.1263 46.5279
5138.83 43.7827 41.3731
5141.72 45.112 45.4933
5144.61 46.1923 44.5362
5147.51 44.6175 44.0935
5150.4 45.2386 45.8934
5153.29 45.2654 44.7621
5156.18 46.1115 46.0455
5159.07 45.6738 45.6215
5161.96 41.5678 42.2213
5164.86 42.3321 43.0957
5167.75 45.6216 44.979
5170.64 41.4197 41.1368
5173.53 44.9174 46.2852
5176.42 44.5158 45.6101
5179.31 43.2437 44.347
5182.2 44.4874 45.9771
5185.09 45.2854 47.3357
5187.99 47.1512 47.6814
5190.88 46.0153 46.6585
5193.77 48.9368 49.2902
5196.66 45.9562 45.1052
5199.55 47.0507 46.453
5202.44 45.4823 46.5634
5205.33 42.4585 44.0417
5208.22 44.1375 46.0113
5211.11 44.8066 44.6727
5214 46.9608 47.0064
5216.89 45.0336 46.5021
5219.78 46.2439 46.4416
5222.67 40.0955 41.6556
5225.56 42.442 43.2773
5228.45 43.988 45.8021
5231.34 43.7896 43.9117
5234.23 42.3917 43.2669
5237.12 43.5343 44.9671
5240.01 45.3008 45.6667
5242.9 45.0705 45.1881
5245.79 44.3059 45.1021
5248.68 42.1021 43.1688
5251.56 42.5847 42.1732
5254.45 41.4524 41.1565
5257.34 40.9625 42.6671
5260.23 42.4562 45.2588
5263.12 45.2887 45.5882
5266.01 43.7431 44.8383
5268.9 42.6909 42.7059
5271.79 44.1861 43.2736
5274.67 46.0835 46.5213
5277.56 41.5892 43.0094
5280.45 45.5363 46.3019
5283.34 44.8539 44.8793
5286.23 45.2148 45.6867
5289.12 45.9287 45.0039
5292 44.6495 44.4888
5294.89 44.6263 44.9121
5297.78 47.5308 49.0153
5300.67 46.6598 49.6155
5303.55 45.7332 46.6178
5306.44 45.3978 46.706
5309.33 44.6474 47.7472
5312.22 46.5899 49.0315
5315.1 47.0351 47.7345
5317.99 47.5908 47.9259
5320.88 47.8318 49.735
5323.76 48.429 49.1994
5326.65 47.6907 49.5938
5329.54 48.1136 50.0648
5332.43 41.9621 43.5022
5335.31 50.5552 51.7613
5338.2 47.6211 47.9809
5341.08 45.6536 45.3651
5343.97 45.9772 47.0154
5346.86 45.6778 46.9216
5349.74 46.0623 46.6904
5352.63 45.1793 47.0813
5355.52 41.7573 45.0461
5358.4 48.1009 49.2138
5361.29 49.3181 51.3344
5364.17 50.0238 50.8438
5367.06 48.3598 49.517
5369.94 50.0096 51.8507
5372.83 52.1307 54.2129
5375.72 48.5035 51.098
5378.6 45.2931 46.7268
5381.49 48.3586 48.6939
5384.37 48.187 49.3431
5387.26 50.8135 51.2008
5390.14 52.107 54.1081
5393.03 53.5856 54.0185
5395.91 50.2332 51.8499
5398.79 52.4006 54.179
5401.68 51.0115 53.133
5404.56 48.9683 49.5829
5407.45 47.485 48.8067
5410.33 47.9312 50.1114
5413.22 45.5224 46.837
5416.1 49.3411 51.8488
5418.98 47.4514 47.3693
5421.87 47.9048 49.8968
5424.75 50.117 51.1637
5427.64 48.7154 49.9817
5430.52 49.7869 51.7877
5433.4 49.9301 52.1831
5436.29 52.4638 54.446
5439.17 51.659 54.1028
5442.05 50.5242 52.1044
5444.94 51.1867 52.8918
5447.82 50.1399 52.0635
5450.7 52.7337 53.7478
5453.59 49.3833 50.9723
5456.47 50.5114 52.6438
5459.35 48.2209 51.767
5462.23 50.9917 52.6832
5465.12 51.5916 53.2739
5468 50.6424 52.9061
5470.88 49.8005 51.089
5473.76 51.0991 52.7616
5476.65 50.1099 52.1783
5479.53 47.9243 49.4838
5482.41 49.5627 52.0274
5485.29 49.1734 50.8342
5488.17 47.2011 48.8406
5491.05 52.6728 53.1879
5493.94 48.8535 51.8343
5496.82 51.483 53.1032
5499.7 47.2096 50.0888
5502.58 49.17 51.9355
5505.46 49.1525 51.738
5508.34 51.4642 52.6564
5511.22 54.027 57.1969
5514.1 49.8343 51.457
5516.99 49.4792 50.6277
5519.87 52.4132 55.0859
5522.75 52.0027 53.4941
5525.63 54.6665 55.4766
5528.51 50.7187 51.95
5531.39 48.4088 50.3388
5534.27 50.388 52.1849
5537.15 51.2187 53.6337
5540.03 49.7434 52.7137
5542.91 49.4732 50.8985
5545.79 51.168 52.1809
5548.67 48.756 52.1496
5551.55 49.8047 51.6912
5554.43 48.5287 51.1175
5557.31 50.2025 51.7563
5560.19 52.1013 53.7352
5563.07 52.134 54.3915
5565.94 53.1889 57.8124
5568.82 54.1857 59.3799
5571.7 56.3214 61.6065
5574.58 51.2312 53.7788
5577.46 56.981 55.0629
5580.34 57.7716 62.9781
5583.22 52.0922 55.9797
5586.1 52.0264 54.7141
5588.97 49.781 53.5541
5591.85 50.6598 51.6734
5594.73 49.0388 51.0162
5597.61 52.5451 54.9135
5600.49 50.3073 52.8012
5603.36 54.6556 55.5205
5606.24 56.5062 57.7143
5609.12 51.9588 54.0975
5612 52.9602 53.8992
5614.87 48.6111 50.6959
5617.75 52.5678 53.7245
5620.63 51.6423 54.7881
5623.51 54.513 56.3805
5626.38 51.0589 53.8217
5629.26 51.4426 53.2471
5632.14 56.0948 58.5556
5635.01 53.6978 57.7372
5637.89 52.0059 54.2737
5640.77 53.0556 55.1798
5643.64 53.2687 54.9295
5646.52 50.1917 53.4926
5649.39 53.3374 55.5137
5652.27 51.9311 54.1039
5655.15 51.4397 53.8875
5658.02 52.6673 54.1524
5660.9 52.3691 53.8424
5663.77 53.07 55.5101
5666.65 48.9407 51.7856
5669.53 49.5639 52.72
5672.4 49.3275 51.8022
5675.28 52.9135 55.812
5678.15 48.2224 51.7221
5681.03 51.4848 53.635
5683.9 50.0915 52.5428
5686.78 49.7029 51.8719
5689.65 53.3989 55.8542
5692.53 54.925 56.1286
5695.4 52.216 53.137
5698.27 52.8875 56.2907
5701.15 53.2678 56.3519
5704.02 52.6195 55.3593
5706.9 52.4266 55.0405
5709.77 51.791 56.1517
5712.64 50.1881 52.3913
5715.52 55.8394 58.5036
5718.39 50.9413 53.227
5721.27 55.0212 56.9205
5724.14 52.9059 54.6766
5727.01 52.6877 55.5988
5729.89 52.9293 55.6364
5732.76 51.4521 53.4157
5735.63 52.9742 56.2269
5738.5 52.9757 55.2058
5741.38 54.8362 56.3847
5744.25 51.973 55.198
5747.12 54.6147 56.5849
5749.99 52.1736 55.5793
5752.87 52.4611 54.6849
5755.74 54.6241 55.9549
5758.61 55.9737 57.6757
5761.48 58.1879 58.7914
5764.36 53.7292 54.4198
5767.23 54.1889 53.9406
5770.1 58.1939 60.2924
5772.97 55.1162 55.3719
5775.84 54.934 55.7798
5778.71 58.5515 57.9197
5781.58 53.723 53.5978
5784.46 54.3192 53.825
5787.33 57.4802 58.1957
5790.2 55.0854 55.0817
5793.07 55.3465 55.0163
5795.94 56.058 55.0431
5798.81 56.1279 55.9898
5801.68 57.5069 55.9581
5804.55 59.4546 57.5876
5807.42 56.2214 54.5483
5810.29 62.4308 59.8208
5813.16 58.6922 57.8256
5816.03 63.3363 62.1769
5818.9 61.6141 58.6935
5821.77 63.0059 60.6925
5824.64 60.63 57.1624
5827.51 61.4515 58.2193
5830.38 60.635 57.6881
5833.25 63.5685 59.6684
5836.12 61.5033 59.3291
5838.99 60.5639 57.1013
5841.85 59.8035 57.9083
5844.72 59.1609 58.1715
5847.59 62.2274 58.9747
5850.46 62.0657 59.1816
5853.33 60.8728 57.3237
5856.2 58.0506 55.7397
5859.07 63.9735 60.9658
5861.93 63.3332 63.4118
5864.8 61.7063 59.8314
5867.67 58.2676 55.9621
5870.54 60.3068 57.7049
5873.41 58.1937 57.2114
5876.27 62.3178 60.2731
5879.14 57.5502 55.2325
5882.01 60.5645 59.8625
5884.87 60.0507 57.9845
5887.74 65.2353 63.4739
5890.61 60.932 59.7131
5893.48 58.522 56.1056
5896.34 60.1306 61.3293
5899.21 56.6554 55.7985
5902.07 57.6635 55.9731
5904.94 60.0907 56.3239
5907.81 58.1804 57.2477
5910.67 59.9174 58.9003
5913.54 57.7266 57.0307
5916.41 58.7336 59.3999
5919.27 61.3129 60.4267
5922.14 63.5923 62.0386
5925 63.461 63.2074
5927.87 63.5464 61.0008
5930.73 63.5931 62.068
5933.6 57.2604 58.889
5936.46 58.5866 57.147
5939.33 59.1275 59.2115
5942.19 57.3716 58.0767
5945.06 57.2171 57.0232
5947.92 60.7106 59.5821
5950.79 61.2507 60.8865
5953.65 59.6811 57.1587
5956.52 59.4927 58.4175
5959.38 60.3448 59.4411
5962.24 61.0095 61.3222
5965.11 62.2552 61.6496
5967.97 61.3568 59.828
5970.83 59.6378 58.914
5973.7 59.005 57.3746
5976.56 52.605 52.1662
5979.43 49.5895 49.292
5982.29 51.7389 50.2875
5985.15 54.3824 54.4203
5988.01 53.196 52.5106
5990.88 55.5488 55.2812
5993.74 53.7176 53.6522
5996.6 55.1628 56.8481
5999.46 54.278 57.6525
6002.33 56.811 61.4991
6005.19 53.9709 59.2716
6008.05 53.1267 58.6119
6010.91 53.7211 55.5623
6013.77 55.6762 59.1952
6016.64 55.8311 60.8105
6019.5 56.3032 60.2605
6022.36 58.1973 62.1873
6025.22 54.2469 58.6149
6028.08 57.148 61.7664
6030.94 54.7044 59.4853
6033.8 56.1789 59.1022
6036.66 53.7909 59.3859
6039.53 53.5258 59.4572
6042.39 54.1559 59.5167
6045.25 53.7901 58.0805
6048.11 57.0568 60.6232
6050.97 54.5943 60.548
6053.83 58.8892 64.2639
6056.69 56.9553 60.6639
6059.55 53.5758 58.1545
6062.41 52.0877 57.261
6065.27 54.8242 58.4631
6068.13 56.1656 60.6413
6070.99 54.6076 59.0458
6073.84 56.9268 62.321
6076.7 53.1446 59.5627
6079.56 55.8247 61.7895
6082.42 55.3838 60.7211
6085.28 53.7477 58.7268
6088.14 54.3863 58.4205
6091 56.7009 62.6015
6093.86 53.2956 58.318
6096.71 57.906 62.3167
6099.57 52.8636 58.9873
6102.43 53.4702 58.7982
6105.29 57.0463 61.5905
6108.15 53.8898 58.9287
6111 55.7003 61.4394
6113.86 51.4764 56.4447
6116.72 55.8354 59.3785
6119.57 56.3797 61.237
6122.43 56.2745 60.6749
6125.29 58.9342 63.5166
6128.15 57.2291 61.5511
6131 58.8002 62.8145
6133.86 58.6698 62.9967
6136.71 58.3323 62.9273
6139.57 55.939 60.5991
6142.43 56.1166 61.6532
6145.28 56.2707 61.2957
6148.14 57.8272 63.4607
6151 58.9304 62.4324
6153.85 57.1603 62.3631
6156.71 57.0238 61.2683
6159.56 58.296 62.9928
6162.42 55.0215 59.5459
6165.27 57.3228 62.9639
6168.13 58.3225 62.0616
6170.98 59.723 64.3198
6173.84 55.7947 60.6353
6176.69 55.798 60.6298
6179.55 56.7883 62.9738
6182.4 58.4028 64.1602
6185.25 56.6755 62.6592
6188.11 56.7116 62.0938
6190.96 54.9326 58.372
6193.82 58.3674 62.3156
6196.67 54.1033 59.1645
6199.52 53.4073 58.1807
6202.38 56.9893 61.7927
6205.23 55.551 60.1744
6208.08 55.6371 61.0022
6210.94 57.4646 63.5294
6213.79 54.5902 59.9818
6216.64 54.9998 59.7669
6219.49 58.501 63.1082
6222.35 54.966 61.2638
6225.2 52.93 58.2341
6228.05 55.5768 61.9466
6230.9 55.1898 59.2322
6233.76 54.165 58.4347
6236.61 55.5047 60.1325
6239.46 58.1768 63.2231
6242.31 55.3263 61.2254
6245.16 55.9401 59.9004
6248.01 58.0438 60.358
6250.86 53.992 58.7523
6253.72 52.0929 56.1429
6256.57 52.4478 57.4492
6259.42 51.9303 56.667
6262.27 53.2382 58.8967
6265.12 52.6511 58.7487
6267.97 51.5484 57.3147
6270.82 55.46 59.9591
6273.67 55.3215 59.6353
6276.52 54.7288 59.7593
6279.37 54.9344 58.6482
6282.22 51.8727 57.6698
6285.07 54.87 59.7826
6287.92 50.6139 55.9483
6290.77 55.2928 61.677
6293.62 55.8088 57.7878
6296.46 52.7371 59.5873
6299.31 56.2932 60.0375
6302.16 56.9045 60.6787
6305.01 53.5001 58.6084
6307.86 50.1647 54.9325
6310.71 51.7104 57.1554
6313.56 53.3316 58.5183
6316.4 48.7064 55.7234
6319.25 55.0565 59.2392
6322.1 53.7553 59.0342
6324.95 53.4421 58.6293
6327.79 56.9044 61.2021
6330.64 49.2139 54.3849
6333.49 52.5767 57.9356
6336.34 55.749 60.2394
6339.18 54.7539 60.445
6342.03 50.2119 54.1611
6344.88 55.3142 58.2045
6347.72 55.7644 60.9772
6350.57 52.8313 57.4048
6353.41 54.4449 59.5267
6356.26 55.1925 58.3602
6359.11 56.3568 62.8692
6361.95 57.1242 63.4463
6364.8 55.3388 60.9533
6367.64 54.4539 59.8388
6370.49 53.6542 58.7982
6373.33 56.9985 63.3635
6376.18 53.077 57.8549
6379.02 54.0772 56.9023
6381.87 58.5944 63.1425
6384.71 57.2073 61.2195
6387.56 57.5266 60.6204
6390.4 54.5727 58.3455
6393.25 56.3381 60.7929
6396.09 55.1439 61.2551
6398.94 54.6591 60.1217
6401.78 57.5888 62.9933
6404.62 57.9814 62.5354
6407.47 56.4546 62.7131
6410.31 57.0561 62.3587
6413.15 55.7463 62.737
6416 52.9557 58.1037
6418.84 59.1882 64.0511
6421.68 56.6981 61.1503
6424.52 60.6236 67.0675
6427.37 54.61 58.5237
6430.21 57.9337 62.99
6433.05 52.6481 58.803
6435.89 57.2423 61.1
6438.74 58.4273 62.7117
6441.58 56.0715 60.7734
6444.42 56.6767 60.9269
6447.26 53.6862 59.0648
6450.1 56.378 61.3893
6452.94 56.0459 62.9005
6455.78 53.7875 60.0192
6458.63 56.5615 61.9921
6461.47 53.4943 58.2642
6464.31 55.4618 60.8689
6467.15 55.2248 61.708
6469.99 55.0964 62.1079
6472.83 60.0035 63.7492
6475.67 57.4632 61.9449
6478.51 58.343 62.1345
6481.35 59.3007 63.8121
6484.19 58.5329 63.4877
6487.03 57.7992 62.6781
6489.87 52.725 58.1357
6492.71 53.8452 59.137
6495.54 53.968 59.2969
6498.38 57.1669 63.2991
6501.22 57.2678 62.5306
6504.06 57.3202 62.4702
6506.9 56.0143 60.4835
6509.74 53.2125 57.5115
6512.58 51.1157 56.7742
6515.41 53.1637 57.0254
6518.25 54.2651 59.3632
6521.09 56.9902 61.3552
6523.93 55.2857 60.2517
6526.76 58.5812 64.3623
6529.6 52.8784 58.453
6532.44 57.7915 62.9505
6535.28 53.8264 58.6034
6538.11 54.2477 59.7243
6540.95 57.8425 63.7739
6543.79 56.4759 60.9338
6546.62 55.5468 59.8866
6549.46 54.3832 58.7489
6552.29 55.5211 61.2796
6555.13 53.5947 58.5956
6557.97 57.337 63.1633
6560.8 54.4752 60.3852
6563.64 56.0618 60.8713
6566.47 56.5228 61.7058
6569.31 56.0615 59.2285
6572.14 55.6724 58.4602
6574.98 57.1072 62.9285
6577.81 59.4924 63.5942
6580.65 53.7627 58.1383
6583.48 56.1138 60.3635
6586.32 58.7307 62.8328
6589.15 54.5406 58.6695
6591.98 52.9565 57.1057
6594.82 54.1803 58.9161
6597.65 57.7469 61.782
6600.48 54.6958 58.6777
6603.32 56.2658 60.6322
6606.15 57.112 62.4892
6608.98 55.1368 59.9548
6611.82 59.8488 64.6046
6614.65 55.3229 59.3104
6617.48 61.5771 67.7874
6620.31 58.7721 63.5479
6623.15 56.5735 62.6315
6625.98 60.0914 64.6245
6628.81 57.4761 61.7967
6631.64 58.7665 63.9569
6634.47 58.8857 64.109
6637.31 56.5377 61.4257
6640.14 61.0717 68.0357
6642.97 59.5564 65.8461
6645.8 64.6936 71.2553
6648.63 64.6518 69.7607
6651.46 61.8794 68.1515
6654.29 65.5193 71.4345
6657.12 82.5367 90.303
6659.95 96.4599 104.689
6662.78 100.56 108.754
6665.61 96.0239 101.853
6668.44 81.2121 86.7399
6671.27 73.6014 78.8832
6674.1 66.4655 72.1881
6676.93 67.4108 72.4682
6679.76 73.0688 79.112
6682.59 71.9542 78.5778
6685.42 73.9295 79.7631
6688.25 69.6356 76.045
6691.08 63.1024 68.9329
6693.9 63.2 67.2958
6696.73 61.2768 67.2648
6699.56 60.0556 65.9416
6702.39 58.7848 64.1408
6705.22 63.8871 70.3146
6708.04 59.1536 63.7496
6710.87 59.2614 64.8208
6713.7 60.6193 65.6631
6716.53 60.4668 66.2307
6719.35 62.8321 67.3978
6722.18 62.5728 68.7085
6725.01 61.295 68.0691
6727.83 60.055 66.2197
6730.66 62.2176 66.9326
6733.48 57.4744 63.1337
6736.31 57.8053 62.1303
6739.14 59.555 64.1315
6741.96 60.622 66.3381
6744.79 58.3113 64.4988
6747.61 58.1776 63.1819
6750.44 58.8765 64.3658
6753.26 58.2484 62.3612
6756.09 62.7722 68.5075
6758.91 61.2733 64.9186
6761.74 59.033 61.4525
6764.56 61.9944 67.9338
6767.39 57.5016 62.2638
6770.21 62.3477 67.0992
6773.03 60.5723 64.4726
6775.86 60.397 64.3542
6778.68 60.8766 62.3062
6781.51 61.3987 64.162
6784.33 63.9645 66.4984
6787.15 62.2927 66.6833
6789.97 64.6856 68.3787
6792.8 61.1585 64.2932
6795.62 63.3318 66.1245
6798.44 63.7838 65.8333
6801.26 66.3306 69.2195
6804.09 60.6836 62.8276
6806.91 62.3465 64.3658
6809.73 61.1315 63.827
6812.55 64.9864 66.8168
6815.37 67.6523 70.4512
6818.2 72.6431 74.3355
6821.02 69.3289 69.407
6823.84 66.8096 68.49
6826.66 67.9895 68.6688
6829.48 67.3366 67.5166
6832.3 65.0562 63.6638
6835.12 69.9921 68.7401
6837.94 68.6926 68.004
6840.76 64.0114 63.2332
6843.58 62.8779 61.2236
6846.4 60.9247 61.7672
6849.22 59.6442 59.9331
6852.04 64.7776 64.1578
6854.86 60.7156 60.8096
6857.68 61.1218 61.4155
6860.5 61.3644 61.7507
6863.31 57.6948 59.141
6866.13 49.8542 51.2717
6868.95 50.4795 51.4832
6871.77 51.1593 49.9517
6874.59 49.4846 49.3255
6877.41 49.4627 48.9338
6880.22 55.9519 55.7935
6883.04 57.5685 56.6008
6885.86 57.4948 57.0955
6888.68 55.2701 55.4764
6891.49 56.3715 57.0592
6894.31 56.3107 55.7344
6897.13 56.5 56.9191
6899.94 56.046 55.6739
6902.76 54.9823 55.7736
6905.58 58.662 58.4789
6908.39 60.4292 59.9201
6911.21 62.1062 61.5157
6914.02 64.0155 65.2428
6916.84 61.1011 61.3488
6919.65 61.1635 61.9842
6922.47 60.1095 58.3069
6925.28 64.1568 64.4238
6928.1 60.3843 60.5435
6930.91 60.541 59.6699
6933.73 60.0861 61.1343
6936.54 59.7774 58.7904
6939.36 60.1783 61.7384
6942.17 61.2416 60.5206
6944.98 61.3595 63.102
6947.8 58.4285 60.4331
6950.61 57.3712 58.3554
6953.43 61.0053 61.8263
6956.24 61.0037 61.9132
6959.05 60.9344 63.3856
6961.86 62.1119 63.7095
6964.68 62.1801 63.5755
6967.49 60.7466 63.5581
6970.3 59.9808 62.0889
6973.11 62.7667 64.2595
6975.93 62.3633 65.617
6978.74 62.8538 65.889
6981.55 61.6868 63.5473
6984.36 60.4793 64.7982
6987.17 63.2319 64.6629
6989.98 60.4035 62.9854
6992.79 64.1429 65.9965
6995.6 61.5617 64.0516
6998.42 61.554 63.9587
7001.23 63.266 65.7608
7004.04 58.8329 62.0448
7006.85 59.6164 61.8271
7009.66 63.5906 63.4854
7012.47 61.8818 65.0356
7015.28 65.6726 67.2217
7018.08 61.9007 63.9956
7020.89 63.8906 66.1011
7023.7 61.7732 65.0833
7026.51 60.3116 62.4763
7029.32 63.3422 65.3449
7032.13 58.7843 60.1027
7034.94 60.2911 63.0919
7037.75 64.3091 66.2674
7040.55 58.3633 61.9498
7043.36 63.0466 63.5386
7046.17 62.0853 64.9329
7048.98 59.2509 61.4933
7051.78 62.7446 64.1647
7054.59 62.1318 63.2197
7057.4 54.4039 63.428
7060.2 57.6231 64.8638
7063.01 56.162 62.0152
7065.82 60.0568 68.5653
7068.62 56.2701 64.2982
7071.43 58.5311 65.3142
7074.24 55.1579 63.0007
7077.04 58.8346 66.7356
7079.85 60.4373 69.6221
7082.65 60.0677 65.5667
7085.46 57.0955 66.2159
7088.26 56.7452 64.8931
7091.07 56.4175 65.9276
7093.87 58.5358 64.9455
7096.68 57.3345 65.4619
7099.48 58.5795 63.4878
7102.28 55.9359 62.8904
7105.09 55.1554 62.8518
7107.89 56.8697 65.8386
7110.7 59.1908 67.7565
7113.5 54.5707 59.4547
7116.3 58.2312 64.4452
7119.11 57.7819 64.7606
7121.91 58.7471 66.1781
7124.71 58.3463 64.1369
7127.51 57.4571 64.9963
7130.32 52.8681 61.4095
7133.12 58.8349 66.632
7135.92 57.8018 65.3723
7138.72 59.7749 65.9181
7141.52 59.1698 67.1745
7144.32 58.7078 64.9598
7147.13 54.9224 62.0345
7149.93 56.8018 61.2253
7152.73 58.5412 64.9606
7155.53 60.794 71.3282
7158.33 54.1611 64.6424
7161.13 60.7372 66.4538
7163.93 55.3736 62.0035
7166.73 53.1872 59.4211
7169.53 52.3686 57.7857
7172.33 52.7629 59.4437
7175.13 50.1463 53.2182
7177.93 51.1313 55.9913
7180.73 48.7968 55.846
7183.53 49.4543 56.7066
7186.32 47.4165 51.2976
7189.12 48.6447 55.7304
7191.92 46.7655 52.0099
7194.72 48.5506 52.2823
7197.52 49.8297 53.7006
7200.31 47.9017 53.903
7203.11 55.5473 61.5083
7205.91 50.0806 56.7052
7208.71 49.9732 55.0965
7211.5 55.9051 64.146
7214.3 55.149 60.3884
7217.1 56.3542 62.2102
7219.89 55.3191 61.463
7222.69 52.9741 56.4504
7225.49 53.1568 60.1157
7228.28 50.4741 57.3339
7231.08 49.2737 54.8639
7233.87 52.9644 56.6004
7236.67 54.1522 58.822
7239.46 45.9529 51.9107
7242.26 49.163 52.402
7245.05 47.4506 53.092
7247.85 47.1837 58.2519
7250.64 45.833 51.3304
7253.44 51.4539 58.2158
7256.23 50.4304 54.6599
7259.03 46.5081 52.0328
7261.82 50.4094 56.4122
7264.61 49.4856 54.8868
7267.41 45.6278 50.6766
7270.2 52.673 55.5944
7272.99 47.0144 52.4133
7275.78 47.9658 56.1054
7278.58 48.4927 58.0281
7281.37 51.6006 57.414
7284.16 52.6909 60.2921
7286.95 51.255 57.6597
7289.75 48.8204 58.4257
7292.54 53.4528 60.5966
7295.33 48.8933 55.6986
7298.12 54.9155 58.3975
7300.91 52.7227 54.618
7303.7 50.4051 56.8964
7306.49 48.3643 54.005
7309.28 53.6735 56.8524
7312.07 51.6281 54.6827
7314.86 49.0643 56.6744
7317.65 54.8516 60.7204
7320.44 52.9436 63.1288
7323.23 56.8675 64.7269
7326.02 54.5265 62.3906
7328.81 52.5445 58.8518
7331.6 54.7091 63.2333
7334.39 60.0122 64.933
7337.18 50.9943 55.782
7339.97 57.5978 63.3128
7342.76 54.4033 61.1711
7345.54 54.5065 64.9908
7348.33 55.3428 64.0115
7351.12 55.7173 60.6641
7353.91 51.9885 57.0261
7356.69 56.1321 62.3859
7359.48 56.0179 62.1005
7362.27 52.6312 56.0521
7365.05 55.6323 61.4619
7367.84 58.2476 59.5275
7370.63 59.7856 63.7417
7373.41 56.1756 64.7707
7376.2 52.0019 59.623
7378.99 58.3096 63.4497
7381.77 55.0931 61.6629
7384.56 52.2957 60.5849
7387.34 57.0517 60.6003
7390.13 55.2224 61.0816
7392.91 53.5238 60.0256
7395.7 57.1993 59.7468
7398.48 53.4472 62.1398
7401.26 52.1374 59.0141
7404.05 57.0556 66.5914
7406.83 59.8704 64.673
7409.62 56.2144 63.3351
7412.4 56.3389 60.6814
7415.18 56.2263 59.376
7417.97 57.8273 61.7622
7420.75 58.7856 62.9506
7423.53 56.7166 59.8991
7426.31 58.3182 62.8145
7429.1 57.8909 59.9214
7431.88 61.7876 67.3248
7434.66 59.3266 62.4636
7437.44 57.5902 63.123
7440.22 62.6251 66.5471
7443 59.1291 64.438
7445.79 61.9071 67.5635
7448.57 61.6636 65.3547
7451.35 61.8097 66.8041
7454.13 59.4571 63.6267
7456.91 61.2417 65.6223
7459.69 61.6174 64.3239
7462.47 61.2783 64.1017
7465.25 62.5879 67.4616
7468.03 63.9898 68.2796
7470.81 57.2128 58.491
7473.59 59.5205 64.8513
7476.36 63.6374 68.4906
7479.14 58.8067 64.5922
7481.92 63.1944 67.1665
7484.7 58.1426 64.4076
7487.48 60.0609 65.7952
7490.26 63.0218 69.2954
7493.03 58.0434 61.3341
7495.81 56.2691 63.3916
7498.59 55.959 61.661
7501.37 58.5191 64.9796
7504.14 59.113 64.1911
7506.92 57.7322 63.1652
7509.7 60.8774 67.6003
7512.47 57.4155 62.287
7515.25 61.1377 64.4464
7518.03 58.8037 63.3151
7520.8 61.3131 64.1766
7523.58 59.3349 61.0618
7526.35 53.5039 61.348
7529.13 61.6185 68.7402
7531.9 57.0341 63.2643
7534.68 59.0134 63.2859
7537.45 52.6918 56.4952
7540.23 54.3335 60.9316
7543 55.0688 59.9447
7545.77 52.1482 60.3439
7548.55 55.2194 59.6792
7551.32 54.4772 58.7817
7554.09 54.4817 57.604
7556.87 55.7011 58.767
7559.64 55.7535 58.9161
7562.41 57.4529 65.1417
7565.19 55.5012 60.7158
7567.96 58.6476 62.3891
7570.73 56.2567 59.0128
7573.5 57.0695 58.7293
7576.27 55.3233 62.0351
7579.05 54.0795 57.2963
7581.82 55.2979 62.2082
7584.59 53.7615 58.7821
7587.36 53.1189 58.1203
7590.13 45.8552 53.3446
7592.9 39.318 42.8082
7595.67 26.3508 27.6655
7598.44 24.6172 23.3507
7601.21 17.4912 16.8769
7603.98 15.0844 15.354
7606.75 18.4193 18.3582
7609.52 21.003 21.0427
7612.29 28.3857 28.6768
7615.06 37.2507 40.5259
7617.83 38.597 38.8331
7620.59 35.1704 38.5663
7623.36 35.8757 37.744
7626.13 30.4757 32.3787
7628.9 32.4515 31.4716
7631.67 33.444 33.9212
7634.43 32.1471 32.4702
7637.2 35.5996 36.147
7639.97 37.6425 40.6562
7642.74 36.0823 38.5057
7645.5 39.8114 41.9151
7648.27 41.2485 41.255
7651.03 43.7318 45.7549
7653.8 46.6456 50.0365
7656.57 48.8521 50.8809
7659.33 50.8051 53.279
7662.1 53.3698 54.8907
7664.86 51.7109 52.1553
7667.63 54.7973 56.4667
7670.39 58.1332 59.4294
7673.16 56.8339 56.137
7675.92 58.6422 58.9456
7678.69 56.5474 55.6308
7681.45 57.6727 59.0263
7684.21 56.4104 58.7497
7686.98 57.9121 58.2023
7689.74 63.2117 62.7659
7692.5 58.3638 58.1522
7695.27 56.3472 58.1346
7698.03 61.9464 61.3551
7700.79 59.6217 60.3325
7703.55 54.6761 55.8102
7706.32 61.4556 61.6125
7709.08 67.3929 62.7609
7711.84 62.4463 57.0662
7714.6 61.7166 60.7389
7717.36 57.1017 58.8404
7720.12 57.756 60.0727
7722.88 57.0922 61.2078
7725.64 59.8041 59.1127
7728.41 62.8516 62.6355
7731.17 62.094 60.4687
7733.93 61.3129 62.6023
7736.69 64.9239 62.0771
7739.44 61.5383 60.9383
7742.2 57.3066 62.2034
7744.96 65.0269 59.7435
7747.72 62.0117 57.6695
7750.48 62.5512 60.0246
7753.24 63.0224 66.8149
7756 63.0471 63.0385
7758.76 62.0451 66.3931
7761.51 58.7962 64.1584
7764.27 60.3168 65.0311
7767.03 64.794 65.2093
7769.79 66.2837 67.0735
7772.54 60.914 62.3897
7775.3 61.5285 58.9655
7778.06 55.587 54.7968
7780.81 57.5101 58.967
7783.57 58.2395 60.2663
7786.33 58.9851 60.9785
7789.08 65.7052 61.1433
7791.84 62.5522 58.0451
7794.59 63.7607 66.2343
7797.35 61.1615 61.4285
7800.1 58.0601 61.8096
7802.86 65.7302 65.5139
7805.61 55.5389 55.4901
7808.37 60.3877 62.0255
7811.12 58.6028 65.3491
7813.87 52.8149 57.1003
7816.63 55.6401 55.305
7819.38 63.3511 61.5218
7822.13 66.5187 60.9815
7824.89 61.4435 64.5279
7827.64 56.7253 58.4941
7830.39 60.7365 62.6929
7833.14 60.1355 63.7082
7835.9 56.4052 59.4385
7838.65 61.3436 64.3073
7841.4 60.1686 64.4433
7844.15 61.794 65.3991
7846.9 64.0804 65.4422
7849.65 63.9863 63.3541
7852.4 63.8774 62.5008
7855.15 54.3713 55.3454
7857.9 51.3496 55.3742
7860.65 59.0312 58.4637
7863.4 58.5006 62.0459
7866.15 59.7169 58.7934
7868.9 58.1055 56.9871
7871.65 58.4651 60.3183
7874.4 62.4286 66.6073
7877.15 56.8715 61.2199
7879.9 57.7469 63.762
7882.65 61.0385 64.9996
7885.4 55.5393 54.8971
7888.14 66.1313 67.5501
7890.89 58.1027 54.7079
7893.64 55.5263 63.1917
7896.39 54.0616 60.1867
7899.13 56.9226 63.5836
7901.88 60.5263 63.5425
7904.63 56.4177 58.3306
7907.37 54.0517 54.8923
7910.12 64.3846 65.3691
7912.87 52.0325 56.3733
7915.61 62.1589 62.6968
7918.36 64.1766 70.369
7921.1 59.0976 60.662
7923.85 64.3534 73.7914
7926.59 61.2673 66.8638
7929.34 58.2929 61.8819
7932.08 60.9491 68.6124
7934.83 67.0034 68.6762
7937.57 60.995 64.2626
7940.31 61.2543 64.4823
7943.06 59.2518 60.554
7945.8 64.9607 65.6219
7948.54 59.3837 61.7862
7951.29 53.2145 59.5658
7954.03 59.0273 62.7158
7956.77 59.3076 65.6408
7959.51 61.1724 65.2214
7962.26 60.0642 61.6921
7965 53.9636 62.8083
7967.74 51.3996 57.1377
7970.48 56.2411 65.6469
7973.22 48.9597 60.7784
7975.96 52.8281 61.0823
7978.7 57.0638 66.4739
7981.44 58.4978 66.9399
7984.18 47.7232 59.4338
7986.92 52.6002 66.183
7989.66 60.7841 61.1305
7992.4 61.2975 57.7314
7995.14 52.1026 61.2362
7997.88 53.2145 61.7399
8000.62 54.9517 63.1028
8003.36 54.2574 61.4316
8006.1 54.9883 62.5263
8008.84 53.7029 61.4702
8011.57 55.5518 66.0814
8014.31 52.3033 63.0234
8017.05 47.4021 58.4546
8019.79 50.7005 63.3848
8022.52 47.5548 55.6407
8025.26 59.9482 65.7638
8028 55.8394 59.6364
8030.73 52.3179 68.6933
8033.47 48.8789 56.8313
8036.21 52.7546 60.7826
8038.94 54.9788 61.0666
8041.68 54.3444 64.4741
8044.41 51.8107 61.7114
8047.15 51.2644 61.5264
8049.88 53.0522 59.0449
8052.62 57.0916 67.379
8055.35 53.6592 65.3665
8058.09 55.2378 60.0677
8060.82 49.9249 53.8373
8063.55 53.7527 62.4547
8066.29 49.4204 66.1598
8069.02 53.9192 67.5384
8071.75 56.5363 66.637
8074.49 52.7399 64.7866
8077.22 55.4756 61.1301
8079.95 54.5671 63.6855
8082.68 55.197 70.2996
8085.42 54.0568 70.1925
8088.15 53.765 67.7444
8090.88 59.1854 71.7954
8093.61 57.5271 66.2907
8096.34 56.3122 65.9829
8099.07 52.2679 64.5731
8101.8 48.1054 62.7491
8104.53 55.3871 64.6767
8107.26 56.3059 64.0868
8109.99 50.9046 62.3266
8112.72 57.0135 65.291
8115.45 54.1332 61.8246
8118.18 60.7335 69.759
8120.91 53.3282 61.1447
8123.64 54.8136 61.5855
8126.37 55.6626 63.4741
8129.09 51.8893 61.6295
8131.82 55.4562 65.0297
8134.55 50.9115 60.6061
8137.28 53.58 61.3455
8140 47.59 57.7032
8142.73 50.8824 60.1182
8145.46 49.2738 57.0818
8148.18 52.7624 63.3868
8150.91 48.7502 61.447
8153.64 49.3245 58.2378
8156.36 47.1917 55.9033
8159.09 52.4883 58.9635
8161.81 48.9283 59.4672
8164.54 48.7406 56.3509
8167.26 50.6921 58.7557
8169.99 50.4457 56.3754
8172.71 50.2418 59.1872
8175.44 45.542 58.1056
8178.16 48.4895 62.3587
8180.89 52.2162 63.765
8183.61 49.9207 59.1381
8186.33 48.7291 55.8357
8189.06 48.298 57.1224
8191.78 54.4084 62.7928
8194.5 50.8527 59.7709
8197.22 50.6406 59.7726
8199.95 51.307 64.2377
8202.67 55.3347 65.8506
8205.39 53.9021 60.5734
8208.11 52.6391 60.0649
8210.83 53.6247 64.5701
8213.55 51.8872 59.8326
8216.27 52.9766 64.8429
8218.99 51.4217 57.9834
8221.71 49.9419 53.8805
8224.43 46.9296 56.0052
8227.15 39.9797 44.7494
8229.87 46.9354 53.3916
8232.59 52.1121 60.0361
8235.31 53.5322 60.4394
8238.03 57.1179 61.6628
8240.75 67.9473 67.5526
8243.47 60.2924 67.493
8246.19 55.9109 67.2862
8248.9 55.4374 66.8667
8251.62 51.6276 63.7509
8254.34 48.1738 59.5524
8257.06 53.6464 63.0948
8259.77 52.9019 62.3365
8262.49 57.0821 63.1593
8265.21 51.2759 62.864
8267.92 52.74 64.7944
8270.64 54.9989 68.3443
8273.35 54.4847 64.0624
8276.07 54.1248 65.4972
8278.78 53.1939 58.6009
8281.5 46.069 49.7735
8284.21 53.18 60.0329
8286.93 48.8266 56.8629
8289.64 47.6261 66.3351
8292.36 45.9726 68.0249
8295.07 49.0012 58.0842
8297.78 52.2856 68.4673
8300.5 60.5672 71.5285
8303.21 48.7329 65.5337
8305.92 53.4749 73.6881
8308.64 56.385 65.097
8311.35 56.2963 67.8209
8314.06 51.8743 65.8612
8316.77 54.1216 59.3568
8319.48 53.8449 64.7375
8322.2 52.6868 67.5799
8324.91 56.1931 66.7621
8327.62 53.9856 68.3615
8330.33 53.5834 66.1718
8333.04 50.6757 59.5753
8335.75 48.5396 62.2323
8338.46 48.9838 62.6065
8341.17 51.0892 48.4591
8343.88 42.7581 56.0084
8346.59 61.5979 74.0068
8349.3 44.3135 70.5358
8352.01 59.1044 78.5239
8354.71 51.1477 50.702
8357.42 56.8337 76.7682
8360.13 50.1031 63.6134
8362.84 54.7126 62.6201
8365.55 61.3028 67.8301
8368.25 57.1222 76.6211
8370.96 56.2219 71.9252
8373.67 59.3567 73.8328
8376.37 53.7059 69.1002
8379.08 61.1239 70.8338
8381.79 61.5933 61.3604
8384.49 62.0064 62.5401
8387.2 56.0341 65.1057
8389.9 57.1584 69.3631
8392.61 56.2786 72.9319
8395.31 66.862 73.6983
8398.02 62.8451 66.9757
8400.72 59.9652 60.3527
8403.43 59.3599 71.6343
8406.13 51.1785 66.8554
8408.83 55.8376 68.1089
8411.54 61.3543 65.9919
8414.24 55.4839 63.7504
8416.94 52.9734 60.9956
8419.65 50.1472 65.7182
8422.35 57.881 71.7211
8425.05 50.5432 59.0399
8427.75 63.2473 65.8291
8430.45 52.5232 59.5641
8433.16 65.1518 65.5907
8435.86 51.3163 61.4301
8438.56 53.2609 69.6186
8441.26 56.3953 65.0241
8443.96 52.358 66.5504
8446.66 53.8984 70.2668
8449.36 55.1455 63.2327
8452.06 53.4108 68.4318
8454.76 52.8546 69.5132
8457.46 53.9694 76.8598
8460.16 50.6903 65.2352
8462.85 58.7742 57.5224
8465.55 57.493 57.1722
8468.25 51.3168 58.9513
8470.95 56.712 65.5729
8473.65 53.3065 70.1503
8476.34 52.8396 66.496
8479.04 58.3904 75.8829
8481.74 57.2562 65.0971
8484.44 50.243 64.0421
8487.13 56.6662 70.2135
8489.83 55.8901 72.8055
8492.52 57.3399 63.8625
8495.22 57.5535 65.5012
8497.92 52.3864 61.2479
8500.61 55.7105 71.6504
8503.31 63.7211 67.3051
8506 56.622 64.2797
8508.69 60.9211 68.4692
8511.39 55.8433 56.7838
8514.08 58.4614 66.7232
8516.78 57.6391 77.1704
8519.47 54.6488 65.6073
8522.16 56.0903 69.9472
8524.86 60.0228 70.1938
8527.55 53.6018 67.3294
8530.24 57.472 68.6109
8532.93 59.5728 73.1849
8535.63 63.1334 74.2934
8538.32 58.8139 70.456
8541.01 57.0763 66.6473
8543.7 59.1398 67.2533
8546.39 61.0926 73.7621
8549.08 61.907 70.5172
8551.77 62.5368 73.2316
8554.46 55.7178 67.0411
8557.15 59.8665 65.6331
8559.84 60.0555 67.325
8562.53 60.1165 71.1508
8565.22 59.0754 65.6465
8567.91 57.3969 66.5443
8570.6 64.0581 74.2803
8573.29 61.4851 67.1453
8575.97 61.6284 66.8184
8578.66 58.4157 66.0359
8581.35 56.8513 66.4135
8584.04 59.586 69.9177
8586.72 61.4583 67.8809
8589.41 66.1495 74.9812
8592.1 61.4755 74.5526
8594.78 60.1988 72.1355
8597.47 59.3197 66.3203
8600.16 62.8233 70.2936
8602.84 63.3469 70.6557
8605.53 56.5998 67.1147
8608.21 54.8892 63.2857
8610.9 59.1479 69.4575
8613.58 61.636 66.7836
8616.27 64.0158 70.2476
8618.95 62.6754 77.779
8621.63 58.3374 63.8165
8624.32 62.0109 71.3311
8627 57.4474 65.9869
8629.68 52.7209 64.9232
8632.37 54.5648 65.7277
8635.05 56.6379 67.5547
8637.73 65.8115 81.1469
8640.41 62.474 76.7163
8643.09 57.0597 71.5275
8645.78 56.0682 69.3338
8648.46 54.4465 62.7658
8651.14 65.5376 81.6065
8653.82 57.6533 69.8324
8656.5 59.6527 75.9815
8659.18 63.6065 72.0922
8661.86 59.1132 75.5406
8664.54 58.4429 69.2822
8667.22 53.5074 69.6069
8669.9 53.0636 62.8119
8672.58 52.9639 68.0019
8675.26 48.5529 59.1806
8677.93 53.2807 68.6765
8680.61 49.461 57.8641
8683.29 49.4012 64.5834
8685.97 51.1105 65.3155
8688.64 59.7784 70.1478
8691.32 61.2052 78.884
8694 58.4569 75.2132
8696.68 57.8947 70.1316
8699.35 60.5688 72.5538
8702.03 66.6918 83.7623
8704.7 59.9503 71.6498
8707.38 59.8066 74.67
8710.05 63.1531 73.5354
8712.73 54.8207 69.8994
8715.4 58.9693 73.6412
8718.08 57.3158 69.2151
8720.75 65.42 82.0708
8723.43 57.8477 70.6779
8726.1 62.203 75.1118
8728.77 64.6937 80.5137
8731.45 57.9084 66.8921
8734.12 58.6854 71.8117
8736.79 60.9121 74.3743
8739.46 58.1149 71.4702
8742.14 58.0617 69.9931
8744.81 65.9641 82.6417
8747.48 62.0076 77.7072
8750.15 58.5758 77.7929
8752.82 59.6063 75.0557
8755.49 59.0794 80.923
8758.16 61.6436 96.9658
8760.83 59.3329 77.0004
8763.5 57.3838 96.7995
8766.17 63.8389 98.1966
8768.84 61.2654 95.8587
8771.51 55.5044 81.0774
8774.18 58.3123 103.013
8776.85 46.7063 76.4681
8779.52 53.8997 66.5518
8782.19 54.3303 74.2179
8784.85 44.6127 86.9711
8787.52 48.7546 85.8871
8790.19 53.1618 72.4933
8792.86 52.0392 72.3247
8795.52 47.8473 65.9687
8798.19 43.8793 57.7927
8800.86 44.476 71.0197
8803.52 49.8276 72.6081
8806.19 50.3317 77.0301
8808.85 50.816 77.1873
8811.52 50.2975 77.8832
8814.18 53.7392 77.581
8816.85 51.8732 74.0457
8819.51 45.7786 84.5463
8822.18 47.726 108.101
8824.84 54.4939 120.373
8827.5 64.5088 113.826
8830.17 68.5477 71.3736
8832.83 49.2038 55.9081
8835.49 45.71 92.8697
8838.16 55.3001 62.0763
8840.82 51.386 61.0203
8843.48 50.1864 74.7699
8846.14 46.6074 79.237
8848.8 56.3522 87.5349
8851.46 50.0528 83.1534
8854.13 50.8209 86.3427
8856.79 53.9028 82.8944
8859.45 50.4138 65.8222
8862.11 47.4644 80.6046
8864.77 58.3099 99.8831
8867.43 62.5841 97.6059
8870.09 57.6057 85.244
8872.74 53.0326 65.0566
8875.4 60.0897 82.634
8878.06 53.1768 94.543
8880.72 60.7843 117.308
8883.38 56.4798 123.241
8886.04 65.9477 103.143
8888.69 65.0883 94.7406
8891.35 56.2874 65.0369
8894.01 46.4199 60.0581
8896.66 54.7309 84.5424
8899.32 54.3352 106.822
8901.98 55.5095 95.5495
8904.63 60.7142 92.0117
8907.29 58.831 72.8758
8909.94 53.2615 75.0515
8912.6 54.3434 108.393
8915.25 49.1021 98.6888
8917.91 65.4014 130.62
8920.56 66.5571 94.724
8923.21 61.1787 69.3865
8925.87 55.0839 37.3293
8928.52 49.4181 27.8412
8931.17 55.9138 75.1888
8933.83 53.1099 63.7219
8936.48 50.9126 85.66
8939.13 48.4013 77.114
8941.78 55.2627 90.5663
8944.44 53.4437 98.5763
8947.09 47.3695 65.1468
8949.74 48.1103 68.0316
8952.39 47.4083 88.5392
8955.04 43.5347 96.7886
8957.69 48.3322 103.09
8960.34 56.9718 102.915
8962.99 63.8337 65.5377
8965.64 30.1483 4.07969
8968.29 32.5474 14.386
8970.94 46.2178 44.866
8973.59 45.4417 53.9713
8976.24 43.8166 71.3482
8978.88 46.0328 66.5491
8981.53 46.7731 80.9602
8984.18 47.1326 79.0725
8986.83 46.1068 70.4169
8989.47 44.2801 94.8262
8992.12 40.206 73.8403
8994.77 39.8295 58.686
8997.41 49.0498 84.7573
9000.06 48.044 96.8802
9002.7 46.9377 97.985
9005.35 47.1207 109.463
9007.99 45.4647 48.5701
9010.64 39.2313 16.1273
9013.28 49.345 50.7036
9015.93 48.4181 53.522
9018.57 51.9122 58.9318
9021.22 47.7603 73.5607
9023.86 51.374 75.5769
9026.5 50.6386 81.6493
9029.15 52.2241 90.7015
9031.79 49.0801 83.674
9034.43 52.2907 81.9326
9037.07 52.9505 94.6746
9039.71 55.239 103.488
9042.36 51.3773 80.3612
9045 51.9566 73.7712
9047.64 52.7788 81.1745
9050.28 48.9069 88.9364
9052.92 51.5506 88.0002
9055.56 52.962 85.0004
9058.2 48.6157 63.0561
9060.84 49.8153 50.2276
9063.48 51.8347 70.459
9066.12 57.8588 88.6623
