wavelength spectrum_sum 3smoothed_sum spectrum_optimal 3smoothed_optimal spectrum_snr
3507.1 19.5165 13.36 36.9578 20.4449 nan
3510.01 20.5635 31.5849 24.3769 34.488 nan
3512.93 54.6746 32.5663 42.1293 34.2411 nan
3515.85 22.4607 41.2737 36.2172 35.9412 nan
3518.76 46.6859 32.6047 29.4769 33.328 nan
3521.68 28.6677 35.1206 34.2897 27.3826 nan
3524.6 30.0081 34.7756 18.3811 26.3457 nan
3527.51 45.6508 33.0125 26.3662 24.5007 nan
3530.43 23.3786 36.4141 28.7548 25.6645 nan
3533.35 40.213 30.3733 21.8726 29.3265 20.48
3536.26 27.5284 37.6577 37.3522 22.6492 9.71428
3539.18 45.2317 33.2693 8.72278 28.1901 7.86638
3542.1 27.0479 29.4095 38.4954 27.7764 3.96849
3545.02 15.9489 15.9775 36.1111 33.5788 2.68633
3547.93 4.93563 20.3609 26.1298 33.4951 0.707473
3550.85 40.1982 31.2383 38.2444 40.9189 6.32504
3553.77 48.5812 41.7887 58.3825 46.6722 6.36505
3556.68 36.5867 39.6188 43.3896 46.81 5.65174
3559.6 33.6884 37.0334 38.6579 42.3196 5.77911
3562.52 40.825 40.2717 44.9115 40.5005 7.759
3565.43 46.3016 45.9942 37.9321 39.8659 70.4929
3568.35 50.8562 52.9781 36.754 44.9659 13.4279
3571.27 61.7765 56.1871 60.2116 40.4074 13.3512
3574.18 55.9287 47.6424 24.2566 40.5089 nan
3577.1 25.2218 40.4681 37.0584 34.609 15.6078
3580.02 40.2537 35.4567 42.5119 38.7384 nan
3582.93 40.8946 42.6431 36.645 42.5726 nan
3585.85 46.7812 48.3602 48.5609 43.8674 nan
3588.77 57.4048 46.8918 46.3962 48.8563 nan
3591.68 36.4894 48.5026 51.612 48.5476 nan
3594.6 51.6137 46.8115 47.6348 49.0957 nan
3597.52 52.3313 50.8537 48.0402 53.8895 11.9425
3600.44 48.616 63.5286 65.9935 59.3882 13.9597
3603.35 89.6385 63.1517 64.1308 60.1155 26.8914
3606.27 51.2006 79.0694 50.2222 57.9291 15.5226
3609.19 96.3691 69.5156 59.4344 49.635 14.0817
3612.1 60.9772 83.1491 39.2485 50.7303 11.1862
3615.02 92.101 74.6434 53.5081 53.114 15.1636
3617.94 70.8519 86.3847 66.5854 56.1916 9.46013
3620.85 96.2013 76.459 48.4814 59.4267 12.7121
3623.77 62.3239 70.6291 63.2134 49.5395 8.4649
3626.69 53.3622 48.3914 36.9236 45.4976 6.61834
3629.6 29.488 50.5936 36.3558 44.9655 4.00297
3632.52 68.9306 53.8174 61.6171 48.0221 6.84434
3635.44 63.0336 62.2082 46.0935 52.9997 7.34634
3638.35 54.6605 62.7325 51.2886 53.6184 7.13339
3641.27 70.5033 57.9494 63.4731 45.4118 7.9509
3644.18 48.6843 64.0645 21.4738 46.5353 6.79087
3647.1 73.0058 61.7137 54.6589 42.1328 8.76518
3650.02 63.451 60.2586 50.2657 49.0198 7.4515
3652.93 44.3189 56.0631 42.1347 46.1507 5.19083
3655.85 60.4195 48.8903 46.0516 40.5728 7.245
3658.77 41.9326 63.1877 33.5322 53.3053 5.10895
3661.68 87.2111 71.6843 80.3321 61.2219 8.93864
3664.6 85.9093 82.0689 69.8014 70.9678 8.84642
3667.52 73.0863 73.0298 62.7699 65.5605 8.35483
3670.43 60.0938 64.1713 64.1104 55.2861 7.62661
3673.35 59.3336 62.6186 38.9781 49.4998 7.45919
3676.27 68.4283 70.4582 45.4108 42.9546 9.92837
3679.18 83.6126 79.0562 44.475 47.5524 11.1622
3682.1 85.1277 86.1514 52.7716 54.953 10.7854
3685.02 89.714 93.4011 67.6124 64.0778 9.79303
3687.93 105.362 90.1834 71.8494 64.3575 11.5802
3690.85 75.4744 94.2107 53.6106 58.8955 8.16626
3693.76 101.796 90.0988 51.2266 59.9058 9.60757
3696.68 93.0261 95.4456 74.8801 54.0665 8.07354
3699.6 91.5148 96.7567 36.0927 65.7557 8.7087
3702.51 105.729 108.043 86.2944 66.7586 8.60924
3705.43 126.886 105.763 77.8887 75.7751 10.8229
3708.35 84.6754 99.9418 63.142 61.7164 7.97172
3711.26 88.2642 98.9653 44.1185 63.0834 7.9386
3714.18 123.956 100.967 81.9895 55.2258 11.0641
3717.1 90.681 109.797 39.5694 65.0883 8.44312
3720.01 114.752 94.6276 73.706 59.3797 10.7952
3722.93 78.4494 84.4394 64.8638 68.9988 6.96693
3725.84 60.1165 66.3744 68.4267 63.5136 5.26098
3728.76 60.5574 73.1928 57.2504 66.8466 5.09313
3731.68 98.9047 80.9933 74.8627 61.7189 7.53069
3734.59 83.5178 89.2515 53.0435 65.1513 6.72293
3737.51 85.332 82.2781 67.5477 55.6857 6.67493
3740.42 77.9844 91.4221 46.466 67.6611 6.26755
3743.34 110.95 86.3622 88.9695 63.6125 8.35084
3746.26 70.1525 98.9291 55.4019 81.9762 6.0194
3749.17 115.685 96.9847 101.557 85.179 8.91995
3752.09 105.116 110.737 98.5778 87.8725 8.32421
3755 111.408 109.184 63.4823 89.5094 9.29381
3757.92 111.029 125.918 106.468 99.6848 8.5657
3760.84 155.316 146.471 129.104 108.346 10.8265
3763.75 173.067 134.599 89.465 97.4618 12.4035
3766.67 75.415 116.635 73.8161 83.8478 6.05745
3769.58 101.424 109.242 88.2622 93.1471 7.72255
3772.5 150.887 136.81 117.363 106.258 10.6579
3775.42 158.12 139.33 113.149 114.598 10.773
3778.33 108.984 152.124 113.28 117.761 7.27111
3781.25 189.267 150.782 126.854 132.071 12.4052
3784.16 154.095 162.793 156.077 138.878 10.1864
3787.08 145.016 132.434 133.702 134.359 9.64673
3790 98.1915 133.159 113.297 124.131 6.90209
3792.91 156.269 123.177 125.394 116.686 10.8406
3795.83 115.072 139.317 111.366 110.172 8.09366
3798.74 146.609 115.254 93.7567 94.512 10.4853
3801.66 84.0799 116.199 78.4133 94.3475 6.23969
3804.57 117.908 115.608 110.873 96.6204 8.30813
3807.49 144.836 119.1 100.576 99.7299 9.85497
3810.41 94.5577 123.059 87.7417 92.0671 6.91177
3813.32 129.783 114.51 87.8842 100.899 8.82646
3816.24 119.189 126.11 127.07 115.773 7.46744
3819.15 129.358 142.568 132.366 131.71 8.34492
3822.07 179.157 159.129 135.696 129.273 11.5686
3824.98 168.872 170.4 119.758 120.364 10.4888
3827.9 163.173 159.063 105.64 123.237 10.151
3830.82 145.145 159.54 144.313 124.54 9.13679
3833.73 170.303 158.038 123.668 134.015 10.3773
3836.65 158.665 182.518 134.065 145.533 9.47435
3839.56 218.585 198.35 178.866 157.597 12.0615
3842.48 217.801 210.799 159.859 167.372 12.6874
3845.39 196.01 181.665 163.392 147.89 11.5757
3848.31 131.185 169.784 120.419 143.801 8.04397
3851.22 182.156 160.221 147.594 129.946 10.7785
3854.14 167.321 180.724 121.825 138.741 10.6229
3857.05 192.694 187.195 146.804 133.218 11.5843
3859.97 201.57 198.371 131.024 140.344 12.0148
3862.89 200.848 172.446 143.204 137.603 11.9165
3865.8 114.918 172.318 138.58 145.485 7.42224
3868.72 201.187 160.725 154.671 142.471 12.1364
3871.63 166.068 181.474 134.163 145.406 10.3294
3874.55 177.167 177.097 147.385 134.597 10.8361
3877.46 188.055 165.486 122.242 133.26 12.0215
3880.38 131.237 172.218 130.153 130.457 9.40536
3883.29 197.363 181.724 138.976 146.571 12.4684
3886.21 216.572 184.813 170.584 141.176 13.0232
3889.12 140.503 166.318 113.968 135.952 9.04373
3892.04 141.88 152.957 123.305 116.723 9.46324
3894.95 176.49 157.72 112.896 125.732 10.3407
3897.87 154.79 162.127 140.995 120.479 9.06202
3900.78 155.1 162.833 107.546 130.965 8.87972
3903.7 178.608 175.824 144.354 133.71 9.1356
3906.61 193.764 199.807 149.229 168.335 10.0485
3909.53 227.05 207.452 211.422 177.066 10.9758
3912.44 201.544 225.163 170.546 207.11 10.07
3915.36 246.895 225.718 239.363 210.077 11.605
3918.27 228.715 240.404 220.321 219.697 11.4435
3921.19 245.603 238.94 199.405 206.925 12.5816
3924.1 242.502 230.708 201.049 184.477 12.9952
3927.02 204.019 210.146 152.976 177.479 11.5483
3929.93 183.918 202.875 178.413 165.98 10.5946
3932.85 220.688 191.563 166.552 163.97 12.8122
3935.76 170.085 200.797 146.946 161.667 9.54533
3938.68 211.618 179.769 171.502 152.714 11.6657
3941.59 157.603 187.651 139.694 153.552 9.11195
3944.51 193.732 189.58 149.46 157.443 10.3137
3947.42 217.406 219.268 183.174 179.772 11.3552
3950.33 246.666 241.031 206.683 204.82 12.359
3953.25 259.022 231.101 224.604 198.748 12.7594
3956.16 187.615 223.913 164.957 190.835 9.83139
3959.08 225.102 218.939 182.943 183.423 12.0289
3961.99 244.101 218.53 202.369 184.653 13.3051
3964.91 186.387 212.838 168.647 184.714 10.5603
3967.82 208.026 232.721 183.125 188.783 11.8466
3970.74 303.751 242.783 214.576 197.63 15.4288
3973.65 216.572 254.711 195.189 203.732 11.28
3976.56 243.81 236.559 201.43 201.431 12.0955
3979.48 249.293 217.174 207.673 193.427 11.9799
3982.39 158.418 207.13 171.178 182.362 7.99697
3985.31 213.678 175.941 168.234 162.699 10.3811
3988.22 155.727 191.446 148.686 159.639 7.73521
3991.14 204.933 191.183 161.997 165.923 10.185
3994.05 212.89 230.943 187.086 181.348 10.1596
3996.96 275.005 231.786 194.962 186.768 12.166
3999.88 207.462 237.733 178.257 188.074 9.52307
4002.79 230.733 226.125 191.002 189.748 10.2629
4005.71 240.182 235.915 199.984 192.245 10.4025
4008.62 236.831 259.167 185.75 206.944 10.2747
4011.53 300.489 269.38 235.098 220.46 12.5854
4014.45 270.819 275.12 240.534 222.017 11.1977
4017.36 254.053 257.766 190.419 210.976 10.8529
4020.28 248.426 259.434 201.975 198.004 10.4085
4023.19 275.822 240.81 201.62 186.214 11.5419
4026.1 198.183 220.756 155.048 174.922 8.75131
4029.02 188.264 198.146 168.098 167.454 8.46315
4031.93 207.99 217.604 179.216 181.518 8.99705
4034.85 256.559 253.067 197.239 209.676 10.8642
4037.76 294.651 274.857 252.572 216.284 11.9091
4040.67 273.361 302.745 199.039 240.426 11.2308
4043.59 340.223 307.643 269.667 233.51 13.7215
4046.5 309.346 309.608 231.825 252.589 12.3102
4049.41 279.253 291.693 256.275 254.773 11.1158
4052.33 286.479 312.626 276.218 281.247 11.3819
4055.24 372.146 323.197 311.247 281.786 14.27
4058.16 310.965 329.649 257.892 284.076 12.0205
4061.07 305.837 323.361 283.089 269.433 11.8252
4063.98 353.283 341.536 267.318 277.851 13.3906
4066.9 365.488 358.701 283.145 277.837 13.8677
4069.81 357.334 351.787 283.048 287.905 13.6459
4072.72 332.539 357.709 297.523 305.532 12.5161
4075.64 383.254 352.066 336.025 308.337 14.4479
4078.55 340.406 376.796 291.462 319.1 12.6942
4081.46 406.729 378.085 329.813 318.598 15.3282
4084.38 387.121 373.873 334.519 339.661 14.2828
4087.29 327.769 362.481 354.652 332.665 12.2847
4090.2 372.551 349.822 308.825 325.861 13.9089
4093.12 349.144 381.04 314.106 317.246 13.4461
4096.03 421.423 398.157 328.807 325.89 15.6033
4098.94 423.904 406.775 334.758 313.981 16.054
4101.86 374.998 411.198 278.378 323.666 14.5954
4104.77 434.692 376.26 357.863 313.855 15.9543
4107.68 319.089 412.678 305.326 333.463 12.2226
4110.59 484.255 392.597 337.202 332.281 17.7885
4113.51 374.448 418.459 354.317 335.344 13.8032
4116.42 396.674 391.423 314.514 331.863 14.591
4119.33 403.147 374.258 326.757 304.225 14.6879
4122.25 322.953 393.575 271.406 316.08 12.3694
4125.16 454.625 377.742 350.079 305.896 16.1828
4128.07 355.649 416.096 296.205 334.576 13.0749
4130.98 438.015 388.011 357.443 308.942 15.3469
4133.9 370.369 418.931 273.177 335.211 13.7176
4136.81 448.411 413.439 375.012 344.283 15.6828
4139.72 421.537 412.258 384.66 363.303 14.9732
4142.63 366.827 397.254 330.238 361.307 13.5401
4145.55 403.397 386.537 369.023 346.606 14.4717
4148.46 389.386 405.2 340.556 350.534 13.8354
4151.37 422.817 402.767 342.023 339.28 14.9779
4154.28 396.097 416.722 335.262 350.573 14.0402
4157.2 431.252 385.135 374.433 337.842 14.8
4160.11 328.055 404.185 303.829 350.51 11.83
4163.02 453.247 396.716 373.267 331.505 15.2318
4165.93 408.845 445.03 317.417 350.573 14.0899
4168.85 472.999 443.099 361.033 346.138 16.1434
4171.76 447.453 441.603 359.964 361.381 15.0783
4174.67 404.357 438.961 363.146 362.583 13.9134
4177.58 465.073 434.767 364.639 368.54 15.8679
4180.5 434.871 459.794 377.836 374.2 14.8078
4183.41 479.439 456.2 380.126 372.231 16.2216
4186.32 454.292 452.515 358.732 367.562 15.4342
4189.23 423.814 445.233 363.827 370.162 14.5107
4192.14 457.594 444.808 387.928 381.71 15.4056
4195.06 453.018 457.549 393.373 375.888 15.9958
4197.97 462.035 445.569 346.362 371.567 15.9538
4200.88 421.654 457.732 374.965 373.011 14.4322
4203.79 489.508 483.645 397.705 399.113 16.5536
4206.7 539.774 499.448 424.67 398.119 18.1363
4209.61 469.064 488.289 371.981 395.745 15.8549
4212.53 456.031 484.161 390.585 399.991 15.4779
4215.44 527.387 484.301 437.408 401.831 17.4301
4218.35 469.485 481.075 377.501 410.642 16.1346
4221.26 446.352 482.016 417.017 409.31 15.2107
4224.17 530.209 472.253 433.411 405.571 17.6079
4227.08 440.197 492.849 366.285 395.5 15.4553
4230 508.141 474.257 386.805 382.888 17.0167
4232.91 474.434 486.874 395.574 398.65 16.2146
4235.82 478.046 484.463 413.572 405.2 16.4265
4238.73 500.911 512.831 406.454 423.217 16.9373
4241.64 559.538 506.281 449.624 427.734 18.6151
4244.55 458.395 508.633 427.125 431.051 15.4366
4247.46 507.967 503.718 416.404 426.776 16.8973
4250.38 544.792 514.978 436.798 416.73 17.8905
4253.29 492.173 518.076 396.988 419.547 16.3162
4256.2 517.264 514.387 424.856 407.215 16.9747
4259.11 533.724 539.237 399.802 406.905 17.4512
4262.02 566.724 536.294 396.058 399.146 18.4661
4264.93 508.434 545.357 401.579 419.572 16.658
4267.84 560.912 528.024 461.08 420.736 18.3151
4270.75 514.725 518.056 399.548 415.942 16.9532
4273.66 478.531 501.356 387.199 407.894 16.2056
4276.57 510.813 477.742 436.936 408.055 16.5964
4279.49 443.883 469.213 400.03 403.388 14.6979
4282.4 452.943 460.191 373.2 422.527 15.3044
4285.31 483.748 506.505 494.352 447.894 15.9735
4288.22 582.824 526.16 476.131 481.993 18.7174
4291.13 511.907 546.454 475.497 465.887 16.9353
4294.04 544.632 527.454 446.034 453.306 17.7734
4296.95 525.823 530.435 438.387 440.873 17.2976
4299.86 520.849 546.142 438.197 458.267 17.5267
4302.77 591.752 556.985 498.216 463.235 19.4964
4305.68 558.354 577.201 453.292 472.826 18.5337
4308.59 581.495 571.88 466.971 458.377 18.9969
4311.5 575.789 592.816 454.868 479.484 18.8173
4314.41 621.163 598.62 516.614 479.703 19.3311
4317.32 598.908 580.597 467.626 485.151 18.8058
4320.23 521.72 547.38 471.214 465.081 16.2983
4323.14 521.513 560.976 456.404 481.398 16.5772
4326.05 639.695 561.189 516.576 473.276 19.6797
4328.96 522.358 593.704 446.848 493.757 16.3853
4331.87 619.059 574.319 517.847 488.649 19.0846
4334.78 581.539 593.606 501.253 502.629 18.1372
4337.69 580.221 585.006 488.788 484.081 18.0818
4340.6 593.258 589.174 462.201 467.232 18.4232
4343.51 594.043 576.917 450.706 454.804 18.4713
4346.42 543.451 562.607 451.504 449.616 16.8147
4349.33 550.327 554.506 446.637 453.146 16.9297
4352.24 569.741 570.773 461.296 469.324 17.7724
4355.15 592.25 577.583 500.039 495.056 18.1254
4358.06 570.76 565.15 523.834 489.744 17.429
4360.97 532.441 552.476 445.359 476.315 16.5184
4363.88 554.227 522.014 459.753 448.871 17.1966
4366.79 479.375 522.833 441.501 459.275 14.9513
4369.7 534.897 509.076 476.57 451.352 16.498
4372.61 512.955 522.282 435.986 453.364 15.9319
4375.52 518.995 516.688 447.536 446.57 16.2738
4378.43 518.115 548.236 456.188 481.955 16.3428
4381.34 607.598 603.534 542.142 508.133 18.2906
4384.25 684.888 629.793 526.069 523.644 20.5269
4387.15 596.893 617.486 502.72 509.07 18.1242
4390.06 570.676 608.122 498.422 511.896 17.3445
4392.97 656.796 611.704 534.546 523.007 19.4512
4395.88 607.641 637.296 536.054 521.72 17.8946
4398.79 647.45 623.236 494.56 510.283 19.0986
4401.7 614.617 616.073 500.235 504.375 18.2811
4404.61 586.152 617.36 518.329 520.999 17.0624
4407.52 651.312 631.14 544.432 537.754 18.8468
4410.43 655.956 633.021 550.502 540.353 18.4783
4413.34 591.794 602.57 526.125 510.985 16.9963
4416.24 559.962 616.046 456.329 512.655 16.2353
4419.15 696.384 618.694 555.509 523.768 19.4216
4422.06 599.738 648.423 559.465 575.472 16.872
4424.97 649.146 619.586 611.442 573.704 18.2253
4427.88 609.875 637.004 550.204 573.945 17.1842
4430.79 651.991 654.077 560.19 571.4 18.1459
4433.7 700.365 670.477 603.805 568.624 19.2162
4436.6 659.075 700.662 541.877 586.202 18.6141
4439.51 742.545 697.337 612.924 579.979 20.4278
4442.42 690.391 692.824 585.135 590.484 19.1248
4445.33 645.536 631.137 573.394 554.63 18.1439
4448.24 557.484 624.278 505.361 529.671 15.732
4451.14 669.814 637.34 510.257 525.863 18.9883
4454.05 684.721 666.751 561.97 559.857 19.4377
4456.96 645.719 668.095 607.342 581.845 18.0938
4459.87 673.844 640.315 576.222 589.624 18.9601
4462.78 601.38 662.176 585.306 596.412 17.1078
4465.68 711.304 639.55 627.707 564.937 19.8441
4468.59 605.964 662.083 481.799 562.861 17.4265
4471.5 668.979 664.795 579.078 541.024 18.7524
4474.41 719.443 703.785 562.196 592.464 20.235
4477.32 722.934 715.159 636.117 607.368 20.0212
4480.22 703.1 720.486 623.79 638.438 19.1937
4483.13 735.426 698.665 655.406 614.91 20.1332
4486.04 657.47 698.706 565.533 608.133 18.3811
4488.95 703.223 671.992 603.459 585.676 19.3519
4491.85 655.283 707.837 588.035 600.055 17.9696
4494.76 765.005 703.562 608.671 583.602 20.629
4497.67 690.398 755.068 554.099 607.553 18.9166
4500.58 809.801 723.519 659.89 596.244 21.5485
4503.48 670.358 745.288 574.743 643.104 18.5282
4506.39 755.707 698.944 694.68 623.49 20.1796
4509.3 670.769 742.568 601.046 648.836 18.1303
4512.2 801.229 755.023 650.781 644.92 21.3199
4515.11 793.071 767.132 682.934 667.005 20.6834
4518.02 707.096 759.075 667.3 685.583 19.0302
4520.92 777.057 754.21 706.516 670.258 20.6805
4523.83 778.478 761.982 636.959 676.569 20.8525
4526.74 730.41 715.705 686.232 633.205 19.7449
4529.65 638.229 699.411 576.423 645.73 17.7097
4532.55 729.594 695.699 674.537 653.731 19.2823
4535.46 719.274 735.446 710.233 690.376 19.3243
4538.37 757.469 734.132 686.358 667.775 20.0302
4541.27 725.652 747.042 606.734 649.657 19.0997
4544.18 758.005 741.917 655.878 628.372 19.8638
4547.08 742.094 756.868 622.505 646.376 19.6451
4549.99 770.505 787.503 660.745 659.529 20.3029
4552.9 849.909 784.083 695.337 675.187 22.0317
4555.8 731.836 809.598 669.478 690.05 19.6333
4558.71 847.049 806.807 705.334 694.444 21.679
4561.62 841.537 848.409 708.519 709.667 21.4285
4564.52 856.642 819.157 715.148 681.09 22.1068
4567.43 759.291 805.084 619.603 668.284 19.9234
4570.33 799.32 806.252 670.101 669.361 20.6396
4573.24 860.146 860.706 718.379 699.991 22.0053
4576.15 922.651 905.951 711.494 725.187 23.5227
4579.05 935.055 913.08 745.688 745.027 23.7138
4581.96 881.532 864.101 777.901 712.27 22.2861
4584.86 775.715 855.662 613.22 708.706 20.0346
4587.77 909.74 845.301 734.998 666.475 23.0991
4590.67 850.449 862.316 651.208 682.169 21.583
4593.58 826.758 812.457 660.301 650.447 21.4561
4596.49 760.163 816.289 639.833 665.1 19.7023
4599.39 861.945 825.347 695.164 676.945 21.9954
4602.3 853.934 869.027 695.838 661.497 21.6386
4605.2 891.201 889.732 593.49 664.343 22.7665
4608.11 924.06 873.176 703.703 646.963 23.5142
4611.01 804.269 873.406 643.695 677.534 20.7247
4613.92 891.89 843.3 685.203 669.214 22.3655
4616.82 833.743 850.922 678.745 686.958 21.3854
4619.73 827.132 830.576 696.928 677.394 20.8337
4622.63 830.853 839.393 656.508 665.622 21.1729
4625.54 860.195 892.606 643.429 656.657 21.6617
4628.44 986.772 899.239 670.034 650.256 24.4372
4631.35 850.75 890.466 637.305 642.055 21.3612
4634.25 833.876 837.002 618.826 645.589 21.2404
4637.16 826.379 875.24 680.638 664.641 20.9575
4640.06 965.466 932.224 694.461 711.111 24.0344
4642.97 1004.83 956.691 758.234 718.251 24.695
4645.87 899.781 943.686 702.056 724.661 22.7088
4648.77 926.45 879.673 713.692 688.859 23.3248
4651.68 812.788 907.685 650.828 689.941 20.6608
4654.58 983.818 888.3 705.301 677.945 24.1642
4657.49 868.294 914.351 677.705 677.384 21.8887
4660.39 890.941 908.569 649.146 667.625 22.3339
4663.3 966.473 925.204 676.024 655.435 23.9449
4666.2 918.198 945.684 641.136 663.786 22.6428
4669.1 952.381 930.175 674.197 644.688 23.6517
4672.01 919.944 953.691 618.73 673.932 22.7032
4674.91 988.747 950.032 728.868 678.085 23.9596
4677.82 941.405 939.458 686.657 694.807 23.0259
4680.72 888.223 969.942 668.896 718.362 21.6788
4683.62 1080.2 965.438 799.533 740.119 25.8431
4686.53 927.891 1003.81 751.929 759.107 23.0305
4689.43 1003.35 999.36 725.86 721.755 24.0727
4692.33 1066.84 999.033 687.476 710.788 25.7183
4695.24 926.912 972.748 719.028 695.011 22.9783
4698.14 924.495 978.978 678.528 744.236 22.6412
4701.04 1085.53 1017.48 835.151 781.912 26.2833
4703.95 1042.42 1022.08 832.058 799.163 25.4552
4706.85 938.294 975.406 730.28 782.71 23.0676
4709.75 945.505 956.939 785.792 765.485 23.2568
4712.66 987.017 925.723 780.384 759.543 24.0137
4715.56 844.647 908.247 712.452 745.271 20.8406
4718.46 893.076 912.032 742.976 737.193 22.2471
4721.37 998.373 938.283 756.151 769.715 24.4991
4724.27 923.401 912.252 810.018 768.301 22.1604
4727.17 814.983 876.034 738.735 752.912 20.2051
4730.08 889.718 841.832 709.982 705.087 22.2528
4732.98 820.794 888.014 666.543 693.807 20.8212
4735.88 953.53 912.091 704.895 694.249 23.5495
4738.78 961.948 971.308 711.309 741.427 23.9876
4741.69 998.445 968.059 808.077 757.691 24.0863
4744.59 943.784 975.718 753.687 768.28 23.2752
4747.49 984.924 958.815 743.078 761.391 24.0132
4750.39 947.736 975.563 787.407 744.768 23.2632
4753.29 994.028 938.284 703.819 732.711 24.0737
4756.2 873.087 941.389 706.908 731.679 21.8599
4759.1 957.051 907.503 784.309 756.46 23.3954
4762 892.373 912.198 778.163 765.53 21.9509
4764.9 887.171 925.849 734.116 753.905 21.9029
4767.81 998.002 931.887 749.436 728.583 24.6133
4770.71 910.487 946.135 702.196 753.123 22.5885
4773.61 929.916 921.446 807.737 747.812 22.6516
4776.51 923.934 920.831 733.502 774.947 22.8857
4779.41 908.643 919.104 783.601 752.967 22.4177
4782.31 924.734 935.784 741.798 757.4 22.6627
4785.22 973.975 941.689 746.801 763.626 23.556
4788.12 926.357 975.951 802.279 796.199 22.8525
4791.02 1027.52 991.34 839.518 816.079 24.6228
4793.92 1020.14 1000.41 806.44 785.225 24.4568
4796.82 953.555 997.166 709.718 776.681 23.0165
4799.72 1017.8 973.059 813.884 768.079 24.5036
4802.62 947.822 1027.62 780.635 821.983 23.1139
4805.52 1117.23 1007.57 871.43 824.488 26.1356
4808.43 957.644 1035.45 821.398 836.896 22.7763
4811.33 1031.47 977.983 817.86 809.975 24.3624
4814.23 944.832 942.995 790.667 812.488 22.5185
4817.13 852.68 914.065 828.937 815.213 20.4253
4820.03 944.684 912.162 826.035 817.754 22.1057
4822.93 939.123 959.959 798.29 811.154 22.306
4825.83 996.071 981.9 809.137 831.392 23.6298
4828.73 1010.51 980.649 886.749 845.256 24.0226
4831.63 935.368 996.122 839.881 847.201 22.3997
4834.53 1042.49 970.772 814.971 811.1 24.4653
4837.43 934.457 1023.56 778.448 819.213 22.16
4840.33 1093.73 1026.24 864.219 826.25 25.2822
4843.23 1050.54 1027.33 836.084 854.564 24.85
4846.13 937.717 1015.85 863.389 839.015 22.5286
4849.03 1059.28 1002.35 817.573 842.496 24.8772
4851.93 1010.06 989.599 846.525 831.062 24.2405
4854.83 899.456 988.433 829.087 859.656 21.9484
4857.73 1055.78 999.691 903.356 844.924 25.2371
4860.63 1043.83 1044.71 802.329 841.187 25.6532
4863.53 1034.51 1035.31 817.876 837.283 25.2797
4866.43 1027.6 1046.93 891.646 842.754 24.8064
4869.33 1078.67 1025.29 818.742 837.501 26.02
4872.23 969.595 983.124 802.115 812.483 24.0905
4875.13 901.105 963.985 816.592 825.517 21.9581
4878.03 1021.25 962.731 857.843 831.233 24.5951
4880.93 965.835 959.454 819.263 845.986 23.3999
4883.83 891.273 967.462 860.852 852.765 21.4912
4886.73 1045.28 995.135 878.18 882.571 24.8961
4889.63 1048.85 1055.43 908.679 908.533 24.9199
4892.53 1072.15 1039.51 938.741 889.421 25.0452
4895.42 997.521 1075.71 820.844 912.418 23.9686
4898.32 1157.47 1051.42 977.67 902.82 26.8579
4901.22 999.269 1074.12 909.946 955.106 23.5431
4904.12 1065.61 978.539 977.703 915.168 25.0925
4907.02 870.735 971.085 857.856 908.496 20.7066
4909.92 976.906 930.709 889.93 880.989 23.2622
4912.82 944.486 995.629 895.181 892.569 22.5459
4915.72 1065.5 1053.24 892.597 927.079 25.2729
4918.61 1149.75 1072.67 993.459 908.714 26.7445
4921.51 1002.76 1061.72 840.086 888.053 24.2457
4924.41 1032.64 1033.73 830.614 841.471 24.7119
4927.31 1065.78 1028.77 853.713 847.028 25.3575
4930.21 987.887 1043.26 856.758 880.981 23.3428
4933.1 1076.11 1038.24 932.471 890.074 25.0185
4936 1050.72 1024.72 880.994 878.814 24.9836
4938.9 947.339 992.105 822.979 858.279 22.8407
4941.8 978.26 972.523 870.863 839.718 23.1984
4944.7 991.971 975.003 825.311 852.209 23.5
4947.59 954.777 998.973 860.452 853.799 22.5306
4950.49 1050.17 973.442 875.634 868.593 24.4657
4953.39 915.378 1012.06 869.693 875.229 21.6758
4956.29 1070.64 944.42 880.361 847.969 25.0924
4959.18 847.243 972.338 793.853 830.576 20.3935
4962.08 999.132 963.294 817.514 840.613 23.4974
4964.98 1043.51 1026.2 910.473 886.514 24.2342
4967.88 1035.96 1076.69 931.555 942.732 23.9002
4970.77 1150.59 1074.99 986.169 936.202 26.1031
4973.67 1038.41 1077.5 890.883 933.083 23.8351
4976.57 1043.51 1060.24 922.195 919.299 24.1009
4979.46 1098.79 1094.19 944.819 941.973 25.3001
4982.36 1140.27 1090 958.906 965.458 26.1094
4985.26 1030.93 1108.02 992.65 985.154 23.5322
4988.15 1152.87 1082.44 1003.91 955.47 26.3934
4991.05 1063.53 1106.04 869.853 923.932 24.6409
4993.95 1101.71 1101.3 898.036 910.822 25.2744
4996.84 1138.65 1083.59 964.576 936.752 25.9631
4999.74 1010.41 1115.06 947.643 977.541 23.2712
5002.64 1196.14 1112.6 1020.4 982.589 27.2895
5005.53 1131.26 1188.67 979.719 991.797 26.3682
5008.43 1238.61 1160.47 975.267 962.911 28.2037
5011.32 1111.55 1156.54 933.747 958.528 25.4487
5014.22 1119.47 1131.92 966.57 970.822 25.8362
5017.12 1164.73 1155.01 1012.15 1011.09 26.8016
5020.01 1180.82 1166.04 1054.55 1042.04 27.1184
5022.91 1152.56 1164.09 1059.42 1045.79 26.3531
5025.8 1158.9 1154.74 1023.42 1010.68 26.7118
5028.7 1152.75 1151.05 949.192 972.031 26.5305
5031.59 1141.48 1187.56 943.482 984.359 26.7031
5034.49 1268.44 1217.97 1060.4 1021.85 28.7233
5037.39 1244 1213.24 1061.67 1031.72 28.3297
5040.28 1127.29 1199.83 973.08 1026.79 25.903
5043.18 1228.19 1188.03 1045.63 1036.54 28.2968
5046.07 1208.6 1199.05 1090.92 1067.27 27.3635
5048.97 1160.36 1208.03 1065.27 1091.67 26.3121
5051.86 1255.14 1173.86 1118.83 1062.21 28.4707
5054.76 1106.08 1152.49 1002.53 1055.15 25.2389
5057.65 1096.25 1139.42 1044.08 1026.32 25.1284
5060.55 1215.94 1160.39 1032.34 1044.77 27.4899
5063.44 1168.98 1144 1057.89 1072.72 26.5058
5066.34 1047.09 1151.16 1127.92 1083.39 23.9897
5069.23 1237.4 1158.28 1064.36 1090.1 28.0497
5072.12 1190.35 1185.09 1078.01 1064.57 26.967
5075.02 1127.52 1176.64 1051.32 1078.76 25.7403
5077.91 1212.04 1189.62 1106.94 1072.93 27.6056
5080.81 1229.3 1220.05 1060.53 1094.42 27.7591
5083.7 1218.8 1214.66 1115.78 1088.6 27.7489
5086.6 1195.89 1203.29 1089.51 1102.91 26.8876
5089.49 1195.17 1173.44 1103.44 1098.47 26.8166
5092.38 1129.26 1190.59 1102.45 1104.78 26.0199
5095.28 1247.35 1200.94 1108.45 1115.91 27.8931
5098.17 1226.21 1201.17 1136.83 1108.64 27.5901
5101.06 1129.96 1188.74 1080.65 1105.07 25.1998
5103.96 1210.04 1181.06 1097.72 1113.61 27.4388
5106.85 1203.19 1206.51 1162.45 1123.8 27.2106
5109.74 1206.32 1191.58 1111.23 1132.93 27.1881
5112.64 1165.23 1205.39 1125.11 1127.72 26.4106
5115.53 1244.62 1162.56 1146.83 1103.33 27.6509
5118.42 1077.82 1158.13 1038.05 1101.22 24.8432
5121.32 1151.94 1122.5 1118.77 1111.26 26.3791
5124.21 1137.74 1162.12 1176.98 1136.86 25.797
5127.1 1196.66 1134.11 1114.83 1117.22 26.9344
5130 1067.93 1173.45 1059.84 1105.64 24.1988
5132.89 1255.75 1203.74 1142.26 1136.52 27.7752
5135.78 1287.54 1288.01 1207.45 1141.22 28.3013
5138.67 1320.75 1278.07 1073.95 1154.17 29.1336
5141.57 1225.9 1276.94 1181.11 1137.15 27.2186
5144.46 1284.15 1237.22 1156.39 1160.82 28.2783
5147.35 1201.61 1244.06 1144.96 1164.35 27.0344
5150.24 1246.41 1246.26 1191.71 1166.33 27.402
5153.14 1290.77 1289.02 1162.31 1183.2 28.3485
5156.03 1329.89 1289.41 1195.58 1180.8 29.0762
5158.92 1247.59 1262.53 1184.5 1158.75 27.7809
5161.81 1210.1 1241.25 1096.15 1133.15 27.3223
5164.7 1266.07 1240.66 1118.79 1127.53 28.841
5167.6 1245.8 1229.39 1167.64 1118.11 27.9293
5170.49 1176.3 1222.31 1067.89 1145.71 27.086
5173.38 1244.81 1225.62 1201.58 1151.21 28.294
5176.27 1255.73 1219.87 1184.15 1179.09 28.5593
5179.16 1159.06 1202.71 1151.52 1176.59 26.6223
5182.05 1193.34 1227.02 1194.1 1191.79 27.0926
5184.94 1328.66 1269.18 1229.74 1221 29.3576
5187.84 1285.54 1295.3 1239.17 1227.34 28.515
5190.73 1271.72 1310.66 1213.11 1244.82 28.0767
5193.62 1374.72 1299.7 1282.17 1223.08 29.8488
5196.51 1252.66 1264.63 1173.96 1221.97 27.5615
5199.4 1166.53 1199.94 1209.78 1199.07 25.4707
5202.29 1180.63 1154.81 1213.46 1190.6 25.718
5205.18 1117.29 1160.16 1148.56 1187.62 24.8851
5208.07 1182.56 1193.67 1200.83 1172.07 26.3016
5210.96 1281.16 1239.05 1166.82 1198.82 28.2666
5213.85 1253.43 1236.35 1228.79 1204.09 27.534
5216.74 1174.48 1244.81 1216.65 1220.53 25.8505
5219.63 1306.53 1225.02 1216.14 1174.86 28.3608
5222.52 1194.04 1243.96 1091.8 1147.76 26.4145
5225.41 1231.3 1229.12 1135.35 1143.29 27.2276
5228.3 1262.03 1257.31 1202.71 1164.07 27.6421
5231.19 1278.61 1270.17 1154.16 1165.05 28.4245
5234.08 1269.86 1248.93 1138.29 1158.86 27.8088
5236.97 1198.31 1255.44 1184.14 1175.38 26.3793
5239.86 1298.16 1241.95 1203.7 1193.35 28.2016
5242.75 1229.38 1262.74 1192.2 1195.64 27.004
5245.64 1260.69 1236.13 1191.03 1174.75 27.7436
5248.53 1218.31 1230.99 1141.01 1149.24 27.1231
5251.42 1213.98 1233.24 1115.68 1115.47 26.8994
5254.31 1267.42 1214.35 1089.72 1112.02 27.6285
5257.2 1161.63 1203.95 1130.66 1140.23 25.7703
5260.09 1182.81 1206.94 1200.31 1180.32 26.5611
5262.98 1276.39 1216.13 1210 1200.44 28.3355
5265.86 1189.19 1229.79 1191.01 1178.74 26.863
5268.75 1223.79 1213.91 1135.22 1159.13 27.9405
5271.64 1228.76 1267.77 1151.16 1174.94 27.5616
5274.53 1350.75 1276.96 1238.45 1178.46 29.4533
5277.42 1251.35 1319.12 1145.78 1206.2 27.4616
5280.31 1355.25 1301.09 1234.37 1192.48 29.4314
5283.2 1296.65 1302.16 1197.29 1217.12 28.8547
5286.08 1254.59 1264.3 1219.69 1206.43 27.4338
5288.97 1241.66 1225.45 1202.31 1203.8 27.0701
5291.86 1180.1 1208.34 1189.39 1197.76 26.0665
5294.75 1203.25 1233.09 1201.57 1234.42 26.2412
5297.64 1315.93 1284.68 1312.3 1281.08 28.3208
5300.52 1334.87 1314.6 1329.35 1297.21 28.6427
5303.41 1292.99 1323.75 1249.97 1277.54 28.1374
5306.3 1343.4 1315.12 1253.3 1261.84 28.9037
5309.19 1308.96 1289.66 1282.25 1284.45 28.1471
5312.07 1216.62 1288.32 1317.81 1294.69 25.7551
5314.96 1339.38 1296.3 1284.02 1297.37 28.5176
5317.85 1332.89 1312.27 1290.28 1304.83 28.5983
5320.74 1264.54 1315.1 1340.18 1319.14 27.016
5323.62 1347.88 1323.59 1326.97 1335.34 28.6901
5326.51 1358.36 1367.35 1338.89 1339.6 29.1526
5329.4 1395.8 1312.95 1352.95 1289.55 29.821
5332.28 1184.69 1293.57 1176.81 1310.49 26.0432
5335.17 1300.21 1282.52 1401.71 1293.09 27.4026
5338.06 1362.66 1321.35 1300.75 1311.22 29.0392
5340.94 1301.18 1341.08 1231.2 1269.8 27.8914
5343.83 1359.4 1331.25 1277.44 1261.67 28.9519
5346.72 1333.17 1329.72 1276.37 1275.13 28.7172
5349.6 1296.59 1299.75 1271.57 1277.23 27.9656
5352.49 1269.48 1226.9 1283.75 1261.69 27.3525
5355.38 1114.63 1262 1229.74 1286.21 24.2456
5358.26 1401.9 1280.04 1345.15 1326.58 29.8875
5361.15 1323.59 1353.65 1404.84 1381.04 28.2118
5364.03 1335.45 1369.68 1393.13 1385.48 28.2729
5366.92 1450 1373.71 1358.46 1391.95 30.6757
5369.8 1335.68 1439.04 1424.25 1424.57 28.1241
5372.69 1531.43 1369.37 1490.99 1440.77 31.8762
5375.58 1241 1382.66 1407.07 1395.45 26.3996
5378.46 1375.55 1339.76 1288.29 1346.51 29.2506
5381.35 1402.74 1387.08 1344.18 1332.08 29.7306
5384.23 1382.96 1422.86 1363.76 1374.92 29.4362
5387.12 1482.87 1436.88 1416.82 1426.54 31.1436
5390 1444.8 1452.82 1499.06 1471.41 30.2552
5392.89 1430.78 1456.36 1498.35 1479.09 29.7444
5395.77 1493.51 1487.03 1439.87 1481.5 31.3779
5398.66 1536.79 1509.03 1506.27 1475 32.2728
5401.54 1496.78 1494.67 1478.85 1455.56 31.6093
5404.42 1450.43 1452.47 1381.56 1407.27 31.0227
5407.31 1410.2 1435.74 1361.41 1380.75 30.1641
5410.19 1446.57 1401.58 1399.29 1356.64 30.7247
5413.08 1347.98 1400.48 1309.23 1386.45 28.8882
5415.96 1406.89 1382.32 1450.82 1362.29 29.6975
5418.85 1392.1 1390.67 1326.82 1392.22 29.7149
5421.73 1373.03 1416.83 1399.02 1387.27 29.2275
5424.61 1485.35 1432.7 1435.96 1413.05 31.1115
5427.5 1439.71 1450.98 1404.16 1432.14 30.5714
5430.38 1427.9 1435.08 1456.3 1443.09 30.0214
5433.26 1437.62 1434.89 1468.82 1486.36 30.2472
5436.15 1439.16 1459.48 1533.97 1509.5 29.7179
5439.03 1501.66 1463.34 1525.73 1510.15 30.7893
5441.91 1449.19 1499.41 1470.74 1496.94 30.084
5444.8 1547.38 1503.64 1494.35 1479.13 31.8586
5447.68 1514.34 1539.78 1472.3 1495.99 31.3696
5450.56 1557.62 1493.84 1521.32 1479.23 31.9028
5453.45 1409.57 1468.34 1444.08 1486.06 29.5172
5456.33 1437.83 1377.05 1492.79 1468.71 29.7738
5459.21 1283.75 1415.78 1469.26 1486.22 26.752
5462.09 1525.76 1435.54 1496.62 1493.55 31.433
5464.98 1497.1 1510.12 1514.78 1505.7 30.7015
5467.86 1507.51 1487.42 1505.69 1491.92 31.261
5470.74 1457.66 1493.72 1455.3 1488.44 30.2015
5473.62 1516 1467.6 1504.32 1482.89 31.0373
5476.51 1429.15 1420.64 1489.06 1468.95 29.6001
5479.39 1316.76 1383.3 1413.46 1463.33 27.5489
5482.27 1403.98 1395.38 1487.48 1451.88 29.2167
5485.15 1465.4 1407.98 1454.7 1447.04 30.6407
5488.03 1354.54 1457.71 1398.93 1459.49 28.5484
5490.91 1553.18 1419.66 1524.84 1470.39 31.4175
5493.8 1351.26 1478.51 1487.39 1512.47 28.1354
5496.68 1531.09 1436.45 1525.18 1484.16 31.1468
5499.56 1426.99 1462.49 1439.9 1486.47 29.5199
5502.44 1429.39 1445.38 1494.32 1474.73 29.5649
5505.32 1479.77 1489.52 1489.96 1500.67 30.498
5508.2 1559.4 1546.09 1517.74 1552.58 31.8396
5511.08 1599.12 1571.85 1650.05 1551.18 32.2551
5513.96 1557.02 1547.14 1485.74 1532.94 31.6691
5516.84 1485.27 1529.42 1463.04 1514 30.2969
5519.73 1545.96 1508.3 1593.21 1534.9 31.1796
5522.61 1493.65 1564.84 1548.45 1582.93 30.2177
5525.49 1654.9 1559.82 1607.14 1553.92 33.1399
5528.37 1530.9 1545.8 1506.18 1524.64 31.3295
5531.25 1451.59 1462.85 1460.61 1494.04 29.9971
5534.13 1406.06 1467.67 1515.34 1511.51 28.9781
5537.01 1545.35 1481.21 1558.58 1535.63 31.0872
5539.89 1492.22 1478.82 1532.97 1524.26 30.0713
5542.77 1398.9 1446.8 1481.24 1511.28 27.9702
5545.65 1449.29 1445.72 1519.62 1506.87 28.7853
5548.53 1488.97 1485.24 1519.74 1515.58 29.4562
5551.41 1517.46 1498.44 1507.38 1506.25 30.3203
5554.28 1488.9 1463.81 1491.62 1503.41 29.9513
5557.16 1385.08 1485.84 1511.22 1524.27 27.7401
5560.04 1583.54 1511.31 1569.98 1557.11 31.1375
5562.92 1565.32 1522.15 1590.13 1617.09 30.5318
5565.8 1417.59 1534.21 1691.16 1673.11 27.3288
5568.68 1619.71 1595.18 1738.05 1744.5 26.8031
5571.56 1748.24 1664.5 1804.29 1706.1 22.439
5574.44 1625.53 1743.82 1575.96 1664.93 17.723
5577.32 1857.68 1755.09 1614.53 1679.39 18.8365
5580.19 1782.07 1680.21 1847.69 1701.85 19.4686
5583.07 1400.87 1550.28 1643.32 1699.37 17.5797
5585.95 1467.89 1469.99 1607.1 1608.12 21.0746
5588.83 1541.2 1532.51 1573.94 1566.86 23.7331
5591.71 1588.45 1483.92 1519.56 1531.54 25.7533
5594.59 1322.11 1448.79 1501.12 1545.81 22.8899
5597.46 1435.8 1373.37 1616.76 1557.8 26.1108
5600.34 1362.21 1458.93 1555.51 1602.96 26.1009
5603.22 1578.78 1488.76 1636.62 1631.5 30.6112
5606.1 1525.29 1542.38 1702.35 1645.22 29.4721
5608.97 1523.07 1550.7 1596.68 1630.3 30.1741
5611.85 1603.75 1487.48 1591.86 1562.26 31.6415
5614.73 1335.61 1532.27 1498.24 1559.64 26.9577
5617.61 1657.46 1449.7 1588.82 1569.48 32.2782
5620.48 1356.05 1549.52 1621.39 1626.63 26.8808
5623.36 1635.06 1470.68 1669.68 1628.7 31.9354
5626.24 1420.95 1537.05 1595.02 1614.6 28.1916
5629.11 1555.15 1544.75 1579.11 1637.3 30.9819
5631.99 1658.15 1611.84 1737.77 1677.19 32.4873
5634.87 1622.23 1620.23 1714.69 1688.48 32.3357
5637.74 1580.32 1625.69 1612.96 1656.23 31.2577
5640.62 1674.54 1636.75 1641.03 1629.56 32.5768
5643.49 1655.4 1633.7 1634.7 1622.91 32.2965
5646.37 1571.15 1622.37 1593.01 1627.33 30.9952
5649.25 1640.55 1604.27 1654.28 1620.2 32.3096
5652.12 1601.1 1538.12 1613.3 1625.14 31.5117
5655 1372.71 1509.61 1607.84 1612.62 27.4089
5657.87 1555.02 1520.78 1616.7 1610.97 31.0625
5660.75 1634.6 1557.89 1608.36 1628.04 32.2828
5663.63 1484.04 1542.96 1659.07 1605.33 29.4342
5666.5 1510.23 1527.83 1548.54 1594.95 29.9832
5669.38 1589.22 1539.72 1577.23 1558.74 31.4277
5672.25 1519.71 1552.5 1550.45 1599.6 30.0411
5675.13 1548.58 1467.3 1671.13 1590.26 30.2599
5678 1333.63 1468.13 1549.22 1609.12 26.5453
5680.88 1522.18 1484.68 1607.02 1576.98 30.1191
5683.75 1598.24 1568.22 1574.71 1578.89 31.1542
5686.62 1584.25 1614.88 1554.94 1601.41 30.8774
5689.5 1662.13 1629.72 1674.59 1637.51 32.0186
5692.37 1642.79 1641.76 1683.01 1650.34 31.686
5695.25 1620.37 1613.79 1593.42 1654.82 31.4809
5698.12 1578.2 1592.68 1688.04 1657.11 30.6407
5701 1579.47 1600.41 1689.86 1679.3 30.9162
5703.87 1643.55 1615.79 1660.02 1666.74 32.1676
5706.74 1624.37 1624.99 1650.33 1664.61 31.8834
5709.62 1607.07 1593.37 1683.47 1634.77 31.5701
5712.49 1548.67 1633.83 1570.52 1669.15 30.327
5715.36 1745.75 1624.97 1753.47 1639.68 33.6394
5718.24 1580.48 1664.59 1595.04 1684.63 31.048
5721.11 1667.54 1629.04 1705.39 1646.08 32.4359
5723.98 1639.08 1581.59 1637.82 1669.43 31.8519
5726.86 1438.15 1523.02 1665.08 1656.25 28.3486
5729.73 1491.82 1502.24 1665.83 1643.3 29.2913
5732.6 1576.76 1580.87 1598.97 1649.18 31.1995
5735.48 1674.04 1644.42 1682.73 1644.5 32.7732
5738.35 1682.47 1653.27 1651.79 1673.74 32.6215
5741.22 1603.3 1589.5 1686.68 1663.1 30.9511
5744.09 1482.73 1571.14 1650.82 1676.49 29.545
5746.97 1627.39 1545.93 1691.95 1668.11 32.2056
5749.84 1527.67 1585.91 1661.56 1662.68 30.2039
5752.71 1602.67 1570.94 1634.53 1656.1 31.8527
5755.58 1582.47 1634.12 1672.23 1676.73 31.363
5758.45 1717.21 1634.53 1723.43 1717.41 33.6985
5761.33 1603.9 1617.72 1756.58 1701.95 31.2582
5764.2 1532.04 1585.02 1625.83 1664.61 30.1936
5767.07 1619.13 1606.9 1611.42 1679.45 31.7836
5769.94 1669.52 1616.83 1801.11 1688.88 32.5219
5772.81 1561.85 1593.87 1654.1 1707.17 30.7203
5775.68 1550.26 1564.28 1666.3 1683.56 30.5056
5778.55 1580.73 1590.48 1730.28 1665.95 30.8806
5781.43 1640.45 1567.57 1601.25 1646.56 32.5355
5784.3 1481.52 1581.3 1608.15 1649.43 29.4355
5787.17 1621.91 1568.31 1738.89 1664.35 31.859
5790.04 1601.5 1609.42 1646.02 1676.39 31.6672
5792.91 1604.86 1627.36 1644.27 1645.2 31.7957
5795.78 1675.72 1608.16 1645.3 1654.48 32.9125
5798.65 1543.91 1629.86 1673.86 1664.12 30.5233
5801.52 1669.94 1557.77 1673.2 1689.77 32.6948
5804.39 1459.47 1582.34 1722.24 1675.71 28.6522
5807.26 1617.61 1581.86 1631.67 1714.56 31.5797
5810.13 1668.51 1659.87 1789.76 1717.29 32.1199
5813 1693.48 1693.35 1730.45 1793.77 32.6704
5815.87 1718.04 1715.24 1861.1 1782.94 32.8294
5818.74 1734.19 1731.5 1757.26 1811.98 33.3242
5821.61 1742.27 1718.67 1817.57 1762.38 33.1799
5824.48 1679.57 1668.69 1712.3 1758.1 32.3644
5827.34 1584.23 1651.86 1744.43 1728.57 30.4333
5830.21 1691.8 1651.66 1728.99 1754.09 32.55
5833.08 1678.97 1699.86 1788.85 1765.67 32.3339
5835.95 1728.81 1693.09 1779.19 1760.31 33.0426
5838.82 1671.48 1671.26 1712.88 1743.22 32.2896
5841.69 1613.48 1606.61 1737.6 1732.17 31.1586
5844.56 1534.88 1607.73 1746.02 1751.43 29.8643
5847.43 1674.84 1628.79 1770.66 1764.7 31.8415
5850.29 1676.66 1691.96 1777.41 1756.73 32.0714
5853.16 1724.38 1648.37 1722.13 1724.86 32.9093
5856.03 1544.06 1644.08 1675.05 1743.28 29.9267
5858.9 1663.8 1602.39 1832.65 1804.81 31.0052
5861.77 1599.31 1650.95 1906.74 1846.33 28.9695
5864.63 1689.75 1636.43 1799.61 1796.69 30.0451
5867.5 1620.23 1664.72 1683.72 1739.99 28.8934
5870.37 1684.17 1635.08 1736.65 1714.22 29.9868
5873.24 1600.83 1664.2 1722.28 1757.96 29.1711
5876.1 1707.58 1623.84 1814.94 1733.61 30.9781
5878.97 1563.1 1665.6 1663.6 1760.69 29.18
5881.84 1726.13 1571.8 1803.52 1738.16 29.4828
5884.7 1426.19 1574.8 1747.37 1821.38 22.1895
5887.57 1572.1 1591.2 1913.25 1820.31 22.215
5890.44 1775.31 1678.96 1800.3 1801.82 24.229
5893.3 1689.48 1724.94 1691.9 1780.67 23.4648
5896.17 1710.04 1658.61 1849.8 1741.67 24.7474
5899.04 1576.3 1645.7 1683.3 1740.65 24.5461
5901.9 1650.75 1628.92 1688.86 1690.63 26.8598
5904.77 1659.7 1603.29 1699.72 1705.48 28.3143
5907.63 1499.41 1644.23 1727.85 1735.18 26.2267
5910.5 1773.57 1660.27 1777.96 1742.51 30.7783
5913.37 1707.83 1667.33 1721.73 1764.38 30.0333
5916.23 1520.58 1641.5 1793.44 1779.92 27.1185
5919.1 1696.09 1612.33 1824.61 1830.49 30.4293
5921.96 1620.3 1708.27 1873.43 1868.96 28.913
5924.83 1808.43 1720.07 1908.85 1874.86 31.9591
5927.69 1731.49 1802.64 1842.31 1875.26 30.2372
5930.56 1868.01 1755.6 1874.62 1831.87 32.3034
5933.42 1667.3 1738.7 1778.66 1793.12 29.6781
5936.29 1680.79 1717.89 1726.08 1764.4 30.0856
5939.15 1805.59 1681.38 1788.45 1756.23 32.8715
5942.02 1557.77 1658.52 1754.17 1754.99 28.9663
5944.88 1612.2 1595.89 1722.33 1758.7 29.4854
5947.74 1617.69 1664.05 1799.58 1786.95 29.1758
5950.61 1762.26 1690.75 1838.92 1788.25 31.5773
5953.47 1692.3 1727.96 1726.26 1776.46 30.1374
5956.34 1729.3 1662.61 1764.19 1761.82 31.3583
5959.2 1566.24 1688.48 1795 1803.62 28.5994
5962.06 1769.9 1711.88 1851.68 1836.03 32.4956
5964.93 1799.5 1750.2 1861.43 1839.79 32.7488
5967.79 1681.2 1694.6 1806.28 1815.41 31.167
5970.65 1603.11 1676.04 1778.53 1772.23 29.2306
5973.52 1743.83 1611.29 1731.89 1694.97 31.9903
5976.38 1486.94 1538.26 1574.51 1598 28.1043
5979.24 1384.02 1471.69 1487.6 1526.53 26.5976
5982.11 1544.12 1419.5 1517.47 1549.02 29.5551
5984.97 1330.36 1478.55 1641.99 1581.21 25.8146
5987.83 1561.16 1509.51 1584.18 1631.24 30.1243
5990.69 1636.99 1602.98 1667.56 1623.32 31.1757
5993.56 1610.77 1635.41 1618.22 1666.72 30.8384
5996.42 1658.46 1654.39 1714.4 1690.35 31.5279
5999.28 1693.95 1717.23 1738.44 1769.01 31.774
6002.14 1799.29 1729.17 1854.2 1793.15 33.3092
6005 1694.27 1692.14 1786.82 1802.58 32.1193
6007.86 1582.88 1647.55 1766.72 1742.71 30.339
6010.73 1665.51 1636.42 1674.6 1741.74 31.6926
6013.59 1660.86 1693.86 1783.89 1763.62 31.7594
6016.45 1755.21 1707.3 1832.37 1810.63 33.7018
6019.31 1705.85 1739.09 1815.61 1840.49 32.7823
6022.17 1756.2 1650.59 1873.48 1818.26 33.8001
6025.03 1489.73 1664.01 1765.7 1833.22 28.9679
6027.89 1746.09 1621.1 1860.48 1805.94 32.8746
6030.75 1627.48 1688.23 1791.64 1810.71 31.2332
6033.61 1691.11 1652.15 1779.99 1786.69 32.5082
6036.47 1637.87 1657.99 1788.44 1786.31 31.5711
6039.33 1645 1663.92 1790.51 1790.4 31.8053
6042.2 1708.88 1653.35 1792.25 1777.24 33.1253
6045.06 1606.16 1673.46 1748.97 1788.92 31.398
6047.92 1705.34 1652.54 1825.53 1799.26 33.2104
6050.77 1646.11 1706.1 1823.28 1861.34 32.0312
6053.63 1766.84 1708.63 1935.21 1861.78 33.9257
6056.49 1712.94 1670.34 1826.85 1837.8 33.201
6059.35 1531.23 1614.22 1751.34 1767.56 29.9896
6062.21 1598.49 1599.23 1724.5 1745.54 31.4279
6065.07 1667.97 1650.69 1760.78 1770.58 32.2949
6067.93 1685.62 1682.29 1826.47 1788.58 33.0574
6070.79 1693.29 1716.72 1778.5 1827.4 33.1125
6073.65 1771.26 1711.22 1877.24 1816.66 34.3534
6076.51 1669.12 1680.83 1794.24 1844.29 32.6264
6079.37 1602.1 1634.33 1861.4 1828.31 31.1125
6082.22 1631.76 1618.13 1829.29 1819.98 32.1348
6085.08 1620.54 1630.56 1769.27 1786.21 32.2195
6087.94 1639.38 1670.92 1760.09 1805.15 32.1788
6090.8 1752.84 1706.38 1886.09 1801.08 34.2045
6093.66 1726.92 1751.86 1757.05 1840.22 33.6985
6096.51 1775.83 1707.66 1877.52 1803.92 34.6671
6099.37 1620.23 1648.7 1777.18 1808.71 31.9732
6102.23 1550.03 1629.97 1771.43 1801.36 30.5193
6105.09 1719.65 1632.73 1855.47 1800.69 33.513
6107.94 1628.52 1689.76 1775.17 1827.1 32.1471
6110.8 1721.1 1628.37 1850.65 1775.28 33.6699
6113.66 1535.5 1659.01 1700.03 1779.62 30.8394
6116.52 1720.42 1638.56 1788.17 1777.36 33.9088
6119.37 1659.76 1700.35 1843.87 1819.56 32.5855
6122.23 1720.88 1678.34 1826.64 1860.78 33.9674
6125.09 1654.39 1717.71 1911.83 1863.59 32.5734
6127.94 1777.85 1714.78 1852.28 1884.66 35.0405
6130.8 1712.11 1752.97 1889.87 1879.01 33.395
6133.65 1768.96 1740.11 1894.88 1892.35 33.9291
6136.51 1739.26 1719.28 1892.29 1869.65 33.2089
6139.37 1649.62 1697.35 1821.76 1855.65 31.4505
6142.22 1703.17 1671.42 1852.89 1838.74 32.57
6145.08 1661.47 1670.57 1841.56 1866.81 32.0298
6147.93 1647.06 1677.18 1905.97 1873.99 31.8844
6150.79 1723 1689.69 1874.43 1884.03 33.4972
6153.64 1699 1680.99 1871.67 1861.41 33.3233
6156.5 1620.98 1709.57 1838.12 1866.3 31.7928
6159.35 1808.74 1683.42 1889.12 1837.42 35.1825
6162.21 1620.55 1696.77 1785.03 1853.62 32.1683
6165.06 1661.02 1676.69 1886.71 1843.54 31.8323
6167.92 1748.52 1732.6 1858.88 1890.42 33.2438
6170.77 1788.27 1733.5 1925.68 1866.37 33.5142
6173.63 1663.72 1687.9 1814.56 1851.27 31.8668
6176.48 1611.72 1661.7 1813.57 1836.98 31.3824
6179.33 1709.65 1679.41 1882.81 1871.25 33.2944
6182.19 1716.87 1716.75 1917.38 1890.61 33.2947
6185.04 1723.73 1716.66 1871.63 1880.95 33.7965
6187.9 1709.38 1689.86 1853.84 1822.45 33.6689
6190.75 1636.47 1713.95 1741.87 1818.11 32.5885
6193.6 1795.99 1689.41 1858.63 1788.09 35.0915
6196.46 1635.77 1678.54 1763.77 1785.33 32.492
6199.31 1603.86 1663.03 1733.58 1779.21 31.2605
6202.16 1749.44 1662.9 1840.29 1788.36 33.4031
6205.01 1635.39 1695.27 1791.21 1815.49 31.7325
6207.87 1700.99 1679.46 1814.96 1831.8 33.1144
6210.72 1702 1638.71 1889.23 1829.02 33.0642
6213.57 1513.14 1647.74 1782.88 1815.92 29.4876
6216.43 1728.09 1668.57 1775.66 1810.87 33.2778
6219.28 1764.47 1737.71 1874.07 1822.74 33.7579
6222.13 1720.56 1646.65 1818.48 1806.78 33.0448
6224.98 1454.91 1598.51 1727.8 1794.49 28.5227
6227.83 1620.04 1570.36 1837.18 1773.65 30.2378
6230.68 1636.11 1609.46 1755.97 1774.94 29.5345
6233.54 1572.24 1638.99 1731.66 1756.32 27.1816
6236.39 1708.61 1668.67 1781.32 1795.07 28.9557
6239.24 1725.15 1702.52 1872.23 1822.01 29.7107
6242.09 1673.8 1690.69 1812.49 1819.15 29.3726
6244.94 1673.1 1660.78 1772.74 1790.34 30.4921
6247.79 1635.43 1599.93 1785.8 1765.47 30.6756
6250.64 1491.26 1521.16 1737.87 1728 27.7161
6253.49 1436.79 1490.61 1660.33 1698.95 26.1593
6256.34 1543.77 1497.56 1698.65 1678.08 27.4269
6259.19 1512.13 1573.36 1675.27 1704.96 27.0954
6262.04 1664.18 1610.05 1740.98 1717.57 29.7532
6264.89 1653.85 1634.11 1736.45 1723.79 30.0786
6267.74 1584.31 1622.63 1693.95 1734.14 29.5474
6270.59 1629.74 1590.51 1772.02 1742.79 30.6084
6273.44 1557.47 1590.55 1762.39 1766.8 29.7008
6276.29 1584.44 1585.27 1766.01 1753.85 30.7822
6279.14 1613.89 1543.33 1733.14 1734.45 30.9253
6281.99 1431.67 1588.95 1704.19 1734.64 27.014
6284.84 1721.31 1517.39 1766.58 1708 31.1535
6287.69 1399.2 1581.29 1653.22 1747.41 25.7478
6290.54 1623.36 1559.4 1822.41 1727.67 28.3654
6293.39 1655.63 1536.33 1707.38 1763.39 25.2812
6296.24 1330 1582.67 1760.39 1747.08 18.1423
6299.08 1762.37 1586.34 1773.48 1775.34 22.4849
6301.93 1666.66 1656.59 1792.15 1765.44 21.9261
6304.78 1540.73 1547.77 1730.68 1714.86 22.1177
6307.63 1435.92 1522.18 1621.76 1679.79 22.6546
6310.48 1589.89 1531.74 1686.92 1678.42 26.7442
6313.32 1569.4 1516.84 1726.58 1685.66 27.9688
6316.17 1391.22 1494.31 1643.49 1705.49 25.9281
6319.02 1522.32 1505.6 1746.41 1709.79 28.3437
6321.87 1603.27 1581.56 1739.48 1737.48 29.834
6324.71 1619.09 1632.01 1726.55 1755.72 29.752
6327.56 1673.67 1583.08 1801.14 1709.01 30.2286
6330.41 1456.47 1569.65 1599.34 1700.95 27.0757
6333.25 1578.82 1555.25 1702.37 1690.07 30.112
6336.1 1630.47 1606.41 1768.49 1747.9 31.4956
6338.95 1609.93 1574.16 1772.83 1709.41 31.6457
6341.79 1482.08 1564.34 1586.9 1687.75 29.4475
6344.64 1601.01 1579.81 1703.53 1691.03 31.0573
6347.49 1656.34 1615.48 1782.67 1720.82 32.162
6350.33 1589.09 1626.96 1676.26 1731.68 30.3998
6353.18 1635.45 1623.15 1736.12 1704.12 30.3229
6356.02 1644.91 1681 1699.98 1755.03 29.3378
6358.87 1762.63 1698.29 1829 1790.8 29.6742
6361.71 1687.32 1692.57 1843.42 1813.7 27.9773
6364.56 1627.75 1599.89 1768.68 1782.06 27.5759
6367.4 1484.6 1565.47 1734.08 1734.82 26.2962
6370.25 1584.07 1540.27 1701.7 1755.74 29.8682
6373.09 1552.15 1571.63 1831.45 1734.41 29.53
6375.94 1578.68 1550.69 1670.08 1714.01 30.819
6378.78 1521.22 1626.05 1640.51 1709.58 29.7463
6381.63 1778.23 1605.72 1818.16 1739.78 34.19
6384.47 1517.72 1641.97 1760.67 1773.42 29.6282
6387.32 1629.97 1597.53 1741.41 1725.42 32.0216
6390.16 1644.89 1630.45 1674.19 1719.39 32.8237
6393 1616.5 1621.27 1742.56 1723.6 32.5535
6395.85 1602.42 1615.37 1754.05 1738.86 32.6489
6398.69 1627.18 1667.08 1719.98 1758.2 33.2166
6401.53 1771.63 1695.94 1800.58 1768.88 35.892
6404.38 1689.03 1702.36 1786.09 1792.19 34.573
6407.22 1646.44 1680.22 1789.89 1784.88 33.5362
6410.06 1705.19 1660.07 1778.64 1785.65 34.5122
6412.91 1628.57 1621.59 1788.41 1740.85 32.9108
6415.75 1531.02 1606.95 1655.49 1756.01 31.3907
6418.59 1661.25 1594.46 1824.13 1740.15 33.3037
6421.43 1591.11 1670.31 1740.84 1824.54 32.3777
6424.28 1758.55 1603.12 1908.65 1771.51 35.0388
6427.12 1459.68 1625.66 1665.03 1788.45 30.1788
6429.96 1658.75 1537.78 1791.67 1709.65 33.5992
6432.8 1494.89 1619.21 1672.25 1733.74 31.2003
6435.64 1703.97 1636.38 1737.3 1730.82 34.7093
6438.49 1710.28 1678.5 1782.91 1749.29 35.298
6441.33 1621.26 1653.77 1727.65 1747.49 33.297
6444.17 1629.78 1595.23 1731.91 1712.83 33.7331
6447.01 1534.66 1611.34 1678.92 1718.6 31.7984
6449.85 1669.58 1594.16 1744.97 1737.27 34.3471
6452.69 1578.23 1605.84 1787.93 1746.32 32.235
6455.53 1569.69 1558.83 1706.06 1752.06 31.7421
6458.37 1528.57 1496.59 1762.19 1708.17 29.827
6461.21 1391.5 1469.56 1656.28 1716.28 26.5726
6464.05 1488.62 1518.92 1730.39 1713.66 26.9086
6466.89 1676.63 1545.8 1754.31 1750.15 30.0848
6469.73 1472.16 1566.47 1765.74 1777.5 27.0851
6472.57 1550.62 1521.46 1812.45 1779.79 28.7921
6475.41 1541.62 1593.37 1761.18 1780.07 29.6284
6478.25 1687.88 1655.41 1766.58 1780.68 32.8288
6481.09 1736.75 1708.7 1814.27 1795.29 34.6243
6483.93 1701.48 1691.3 1805.02 1800.42 34.5882
6486.77 1635.68 1632.02 1781.96 1746.58 33.8136
6489.61 1558.91 1600.1 1652.76 1705.29 31.9842
6492.45 1605.72 1564.19 1681.15 1673.17 30.883
6495.29 1527.92 1611.48 1685.6 1722 28.4224
6498.12 1700.79 1630.8 1799.25 1754.04 30.0462
6500.96 1663.7 1694.55 1777.27 1783.97 29.8344
6503.8 1719.17 1655.92 1775.4 1757.15 31.7686
6506.64 1584.9 1634.44 1718.77 1709.44 30.3177
6509.48 1599.24 1537.06 1634.14 1655.31 31.3204
6512.31 1427.02 1519.21 1613 1622.36 29.1866
6515.15 1531.36 1487.6 1619.93 1639.68 30.8416
6517.99 1504.4 1555.1 1686.11 1682.82 30.0005
6520.83 1629.53 1569.89 1742.43 1713.12 32.4024
6523.66 1575.73 1644.48 1710.82 1760.16 31.1398
6526.5 1728.17 1611.08 1827.23 1732.41 33.0009
6529.34 1529.34 1649.62 1659.17 1757.63 29.0004
6532.17 1691.35 1581.27 1786.49 1702.82 31.416
6535.01 1523.12 1585.58 1662.79 1714.51 28.906
6537.85 1542.27 1584.08 1694.24 1721.92 29.8022
6540.68 1686.84 1617.58 1808.72 1743.58 32.0811
6543.52 1623.64 1616.39 1727.77 1744.72 31.177
6546.36 1538.69 1552.36 1697.67 1696.81 29.0376
6549.19 1494.76 1499.45 1665 1699.65 27.642
6552.03 1464.89 1461.1 1736.27 1687.01 26.6319
6554.86 1423.66 1529 1659.77 1728.23 26.3881
6557.7 1698.45 1537.37 1788.65 1719.3 31.4031
6560.53 1490 1543.09 1709.48 1740.28 28.1614
6563.37 1440.83 1497.14 1722.72 1726 27.2904
6566.2 1560.58 1551.49 1745.79 1714.56 29.93
6569.04 1653.06 1625.99 1675.16 1691.28 31.6414
6571.87 1664.34 1655.43 1652.88 1702.21 31.4348
6574.71 1648.9 1674.85 1778.6 1742.76 30.4565
6577.54 1711.3 1638.26 1796.78 1739.14 31.382
6580.38 1554.59 1603.95 1642.03 1714.35 30.2476
6583.21 1545.94 1597.07 1704.24 1706.51 30.6351
6586.04 1690.68 1594.52 1773.27 1710.88 33.7281
6588.88 1546.95 1569.14 1655.12 1679.58 31.5779
6591.71 1469.79 1521.48 1610.35 1642.06 30.3435
6594.54 1547.71 1546.52 1660.71 1670.6 31.7264
6597.38 1622.07 1574.52 1740.75 1684.67 31.9214
6600.21 1553.76 1602.58 1652.56 1700.05 30.7284
6603.04 1631.91 1606.93 1706.84 1705.9 31.8786
6605.88 1635.11 1609.38 1758.31 1717.12 32.1896
6608.71 1561.12 1649.36 1686.21 1753.54 31.9355
6611.54 1751.85 1629.07 1816.11 1722.93 35.4054
6614.37 1574.25 1688.25 1666.47 1795.43 33.1749
6617.21 1738.65 1659.4 1903.7 1784.63 35.3121
6620.04 1665.3 1675 1783.73 1814.84 34.4894
6622.87 1621.05 1669.87 1757.09 1784.29 33.2794
6625.7 1723.27 1647.55 1812.04 1766.98 34.7367
6628.53 1598.34 1656.87 1731.81 1778.4 32.5429
6631.37 1649.01 1660.63 1791.36 1772.59 32.7528
6634.2 1734.55 1681.99 1794.61 1768.16 34.7565
6637.03 1662.42 1708.84 1718.51 1805.15 33.7839
6639.86 1729.53 1699.55 1902.33 1820.29 35.1769
6642.69 1706.69 1742.02 1840.02 1910.77 34.9594
6645.52 1789.83 1761.64 1989.98 1925.68 36.4122
6648.35 1788.4 1762.36 1947.05 1946 36.0643
6651.18 1708.85 1807.2 1900.96 1946.43 34.8009
6654.01 1924.36 2004.12 1991.28 2135.96 38.405
6656.84 2379.16 2326.5 2515.65 2473.82 43.8964
6659.67 2675.99 2594.22 2914.52 2818.63 47.1854
6662.5 2727.52 2710.16 3025.71 2924.03 47.2748
6665.33 2726.97 2574.07 2831.86 2755.87 47.5988
6668.16 2267.73 2348.85 2410.04 2477.38 41.9757
6670.99 2051.85 2054.94 2190.26 2201.09 39.7029
6673.82 1845.23 1933.33 2002.99 2067.54 36.8316
6676.65 1902.9 1889.85 2009.37 2068.13 37.9956
6679.48 1921.42 1936.61 2192.05 2125.71 37.6609
6682.31 1985.5 2006.66 2175.71 2191.57 38.6333
6685.13 2113.07 2029.4 2206.95 2161.74 40.9732
6687.96 1989.62 1946.68 2102.56 2071.35 39.0509
6690.79 1737.36 1807.4 1904.53 1955.01 35.1277
6693.62 1695.22 1721.48 1857.94 1872.73 35.0932
6696.45 1731.85 1707.84 1855.71 1843.83 35.5855
6699.27 1696.46 1716.61 1817.85 1813.48 35.0459
6702.1 1721.52 1715.93 1766.89 1840.09 35.2455
6704.93 1729.81 1687.9 1935.52 1818.64 35.2442
6707.76 1612.36 1672.1 1753.52 1823.58 33.5299
6710.58 1674.12 1672.07 1781.69 1779.59 34.412
6713.41 1729.73 1701.13 1803.56 1801.05 35.5544
6716.24 1699.54 1731.27 1817.89 1823.38 34.7271
6719.06 1764.55 1727.69 1848.69 1850 36.378
6721.89 1718.99 1750 1883.43 1865.62 35.5535
6724.72 1766.45 1709.97 1864.76 1853.75 36.137
6727.54 1644.48 1724.75 1813.05 1836.46 34.1329
6730.37 1763.31 1685.92 1831.58 1790.47 35.9218
6733.19 1649.97 1662.97 1726.77 1752.3 34.8747
6736.02 1575.63 1622.42 1698.56 1725.97 32.9283
6738.85 1641.68 1646.12 1752.57 1754.46 34.1539
6741.67 1721.05 1692.38 1812.25 1775.44 35.5802
6744.5 1714.41 1677.07 1761.5 1766.3 35.2865
6747.32 1595.74 1620.57 1725.15 1747.95 33.5139
6750.15 1551.56 1574.95 1757.2 1728.23 32.3649
6752.97 1577.54 1637.68 1702.33 1776.54 33.264
6755.8 1783.94 1647.2 1870.09 1781.55 36.645
6758.62 1580.12 1677.05 1772.24 1773.4 33.1683
6761.44 1667.09 1674.15 1677.87 1768.46 35.107
6764.27 1775.23 1685.73 1855.27 1744.7 36.6911
6767.09 1614.87 1686.56 1700.98 1796.7 34.3371
6769.92 1669.57 1599.7 1833.84 1765.92 34.8026
6772.74 1514.65 1621.8 1762.93 1785.82 32.1858
6775.56 1681.16 1616.07 1760.7 1743.13 35.3396
6778.39 1652.4 1692.42 1705.75 1741.4 34.8521
6781.21 1743.71 1715.83 1757.77 1762.21 36.4694
6784.03 1751.39 1731.59 1823.12 1803.5 36.2592
6786.86 1699.69 1728.13 1829.6 1843.45 35.1892
6789.68 1733.32 1698.13 1877.62 1824.7 36.1627
6792.5 1661.39 1682.46 1766.89 1821.08 35.1474
6795.32 1652.67 1669.94 1818.73 1799.28 34.5478
6798.15 1695.75 1693.29 1812.23 1845.99 35.3793
6800.97 1731.45 1686.8 1907.02 1817.19 35.6966
6803.79 1633.19 1665.33 1732.33 1805.16 34.355
6806.61 1631.35 1626.08 1776.14 1757.02 34.5107
6809.43 1613.72 1637.3 1762.6 1795.08 33.9302
6812.25 1666.85 1695.26 1846.48 1852.43 34.4971
6815.08 1805.2 1805.75 1948.21 1950.52 37.0739
6817.9 1945.21 1853.76 2056.87 1975.53 38.0942
6820.72 1810.86 1855.63 1921.53 1958.47 34.0962
6823.54 1810.82 1799.32 1897.02 1907.08 31.2307
6826.36 1776.29 1823.81 1902.69 1890.34 27.7631
6829.18 1884.31 1794 1871.3 1846.28 28.3743
6832 1721.41 1823.76 1764.84 1847.28 26.2501
6834.82 1865.57 1812.73 1905.7 1851.92 29.4994
6837.64 1851.21 1772.57 1885.21 1847.86 31.1666
6840.46 1600.92 1701.29 1752.66 1778.11 28.9633
6843.28 1651.74 1589.38 1696.47 1719.99 31.72
6846.1 1515.49 1549.51 1710.84 1688.83 30.4722
6848.92 1481.3 1546.52 1659.18 1715.01 30.4831
6851.74 1642.76 1570.68 1775.02 1705.12 33.6264
6854.56 1587.98 1565.95 1681.15 1717.55 31.4814
6857.37 1467.12 1567.75 1696.48 1693.92 25.7606
6860.19 1648.15 1559.9 1704.14 1677.02 26.9279
6863.01 1564.42 1467.03 1630.44 1582.16 24.9393
6865.83 1188.54 1347.19 1411.9 1486.11 20.6008
6868.65 1288.62 1278.83 1416 1400 24.5068
6871.47 1359.33 1274.04 1372.09 1380.37 27.5164
6874.28 1174.18 1218.2 1353.01 1355.13 24.7928
6877.1 1121.1 1269.04 1340.3 1406.39 24.2883
6879.92 1511.85 1345.57 1525.84 1470.52 31.5958
6882.74 1403.76 1451.46 1545.42 1542.52 28.7544
6885.55 1438.76 1418.61 1556.3 1537.08 29.224
6888.37 1413.33 1397.24 1509.52 1538.54 28.9214
6891.19 1339.64 1420.01 1549.78 1523.42 27.626
6894 1507.07 1416.21 1510.96 1533.61 30.8087
6896.82 1401.93 1451.71 1540.1 1518.16 28.46
6899.64 1446.14 1427.94 1503.43 1515.53 29.7563
6902.45 1435.75 1450.23 1503.06 1526.39 29.6095
6905.27 1468.79 1496.7 1572.69 1561.26 29.7053
6908.08 1585.57 1544.08 1608.04 1609.34 30.9035
6910.9 1577.86 1582.75 1647.29 1666.2 30.1364
6913.72 1584.81 1566.68 1743.27 1675.38 30.2369
6916.53 1537.36 1552.76 1635.57 1675.88 28.4895
6919.35 1536.12 1532.35 1648.79 1610.6 27.4706
6922.16 1523.59 1541.28 1547.43 1634.02 26.9915
6924.98 1564.14 1536.43 1705.84 1617.55 29.0063
6927.79 1521.55 1531.29 1599.37 1625.94 29.8528
6930.6 1508.17 1504.97 1572.62 1593.14 30.4186
6933.42 1485.18 1533.48 1607.43 1574.07 29.4014
6936.23 1607.08 1545.8 1542.17 1588.43 31.3582
6939.05 1545.14 1567.22 1615.68 1579.32 30.0015
6941.86 1549.44 1563.31 1580.09 1613.13 28.6892
6944.67 1595.34 1580.01 1643.62 1598.04 28.2142
6947.49 1595.25 1551.33 1570.41 1575.64 27.5966
6950.3 1463.42 1533.42 1512.89 1560.82 26.6359
6953.11 1541.6 1498.88 1599.16 1569.93 29.4388
6955.93 1491.61 1536.02 1597.74 1609.65 30.0326
6958.74 1574.86 1533.47 1632.03 1622.16 32.6425
6961.55 1533.93 1547.4 1636.7 1632.79 31.7332
6964.37 1533.4 1517.7 1629.64 1630.66 31.5889
6967.18 1485.78 1528.79 1625.66 1613.33 29.8145
6969.99 1567.18 1550.09 1584.7 1615.68 30.5334
6972.8 1597.31 1577.44 1636.68 1629.74 30.2458
6975.61 1567.83 1578.36 1667.84 1658.65 28.7593
6978.42 1569.94 1569.46 1671.43 1649.4 29.0041
6981.24 1570.59 1504.93 1608.92 1639.29 30.7
6984.05 1374.24 1503.7 1637.53 1625.87 28.0721
6986.86 1566.28 1477.74 1631.17 1618.26 32.6718
6989.67 1492.71 1555.92 1586.1 1625.47 32.4931
6992.48 1608.78 1548.53 1659.15 1617.63 34.5226
6995.29 1544.12 1550.09 1607.66 1623.21 33.4494
6998.1 1497.38 1535.58 1602.82 1618.66 31.8226
7000.91 1565.25 1486.52 1645.5 1599.52 32.5044
7003.72 1396.94 1496.18 1550.25 1579.46 29.0541
7006.53 1526.35 1466.37 1542.62 1558.23 31.1654
7009.34 1475.84 1496.09 1581.81 1580.89 29.9473
7012.15 1486.08 1489.15 1618.25 1623.5 30.6573
7014.96 1505.53 1458.38 1670.44 1625.64 31.7009
7017.77 1383.53 1481.92 1588.22 1632.35 30.3559
7020.58 1556.7 1475.25 1638.38 1612.57 34.005
7023.39 1485.52 1498.93 1611.12 1598.05 33.0032
7026.2 1454.55 1514.46 1544.65 1589.78 32.6485
7029 1603.3 1517.54 1613.56 1546.83 35.1786
7031.81 1494.77 1549.1 1482.27 1549.96 33.5481
7034.62 1549.24 1556.55 1554.05 1555.51 33.7975
7037.43 1625.64 1541.93 1630.22 1568.78 34.8337
7040.24 1450.9 1551.04 1522.08 1570.47 31.2005
7043.04 1576.58 1519.52 1559.11 1557.48 32.5807
7045.85 1531.08 1484.68 1591.24 1551.76 31.4668
7048.66 1346.4 1481.52 1504.94 1554.79 28.2415
7051.47 1567.09 1480.43 1568.18 1538.68 32.9067
7054.27 1527.8 1527.25 1542.92 1552.29 32.6625
7057.08 1486.85 1523.99 1545.77 1555.7 32.4616
7059.89 1557.31 1522.35 1578.42 1543.66 33.7493
7062.69 1522.89 1568.47 1506.8 1582.86 33.2527
7065.5 1625.21 1549.64 1663.35 1575.84 35.0837
7068.31 1500.82 1548.45 1557.36 1600.04 32.6506
7071.11 1519.33 1479.32 1579.41 1552.58 33.1041
7073.92 1417.8 1480.19 1520.97 1569.62 31.1222
7076.72 1503.43 1490.45 1608.48 1601.57 32.6932
7079.53 1550.13 1527.52 1675.25 1619.59 32.9443
7082.33 1528.99 1535.53 1575.03 1612.74 32.4121
7085.14 1527.45 1497.97 1587.95 1572.2 32.4468
7087.94 1437.46 1490.32 1553.62 1572.44 30.7616
7090.75 1506.07 1478.99 1575.74 1559.68 32.7793
7093.55 1493.46 1460.32 1549.69 1561.62 32.8528
7096.36 1381.44 1452.59 1559.43 1539.69 30.9597
7099.16 1482.87 1424.18 1509.94 1520.9 33.3351
7101.97 1408.23 1445.45 1493.33 1497.77 31.719
7104.77 1445.26 1445.59 1490.05 1513.94 32.5493
7107.57 1483.28 1457.44 1558.45 1549.97 32.9272
7110.38 1443.79 1438.62 1601.42 1521 31.8368
7113.18 1388.8 1437.51 1403.15 1507.78 31.5976
7115.98 1479.93 1431.91 1518.77 1482.01 33.6454
7118.79 1426.99 1480.91 1524.11 1532.77 32.3129
7121.59 1535.81 1465.44 1555.43 1528.37 34.2866
7124.39 1433.53 1464.86 1505.57 1528.31 32.4046
7127.19 1425.23 1418.22 1523.94 1489.25 31.3907
7130 1395.91 1423.64 1438.23 1507.02 31.5835
7132.8 1449.78 1429.88 1558.9 1508.35 32.1151
7135.6 1443.95 1481.41 1527.91 1542.01 32.0168
7138.4 1550.48 1485.99 1539.22 1544.76 33.6452
7141.2 1463.52 1485.28 1567.16 1540.19 31.7383
7144 1441.83 1419.91 1514.21 1508.74 31.4533
7146.81 1354.38 1398.78 1444.85 1461.32 30.3693
7149.61 1400.14 1399.65 1424.9 1460.15 31.5958
7152.41 1444.44 1479.46 1510.71 1531.07 32.1816
7155.21 1593.81 1475.23 1657.6 1556.5 34.7492
7158.01 1387.45 1490.52 1501.18 1566.99 31.3279
7160.81 1490.3 1422.63 1542.19 1493.77 33.1273
7163.61 1390.13 1390.6 1437.94 1452.42 31.7089
7166.41 1291.36 1341.94 1377.13 1384.47 29.9431
7169.21 1344.33 1304.34 1338.33 1363.75 31.5372
7172.01 1277.34 1294.7 1375.8 1315 29.8291
7174.81 1262.43 1267.29 1230.87 1300.25 30.0131
7177.61 1262.11 1267.35 1294.1 1271.59 30.4158
7180.41 1277.52 1263.74 1289.81 1297.54 30.849
7183.2 1251.61 1265.28 1308.71 1260.5 30.5681
7186 1266.72 1254.3 1182.96 1258.61 31.2714
7188.8 1244.57 1223 1284.14 1221.5 30.5863
7191.6 1157.71 1201 1197.39 1228.04 29.8292
7194.4 1200.73 1214.31 1202.58 1211.33 30.3494
7197.2 1284.5 1213.47 1234.03 1224.68 31.5224
7199.99 1155.17 1274.38 1237.44 1294 29.3633
7202.79 1383.46 1248.88 1410.54 1315.64 32.7326
7205.59 1208.01 1282.97 1298.95 1323.37 29.618
7208.39 1257.44 1294.66 1260.63 1341.83 30.9947
7211.18 1418.54 1329.91 1465.91 1368.28 33.419
7213.98 1313.74 1375.06 1378.29 1420.73 31.5439
7216.78 1392.9 1362.89 1418 1398.45 32.587
7219.57 1382.03 1359.84 1399.06 1366.73 32.366
7222.37 1304.59 1325.27 1283.14 1348.88 30.6541
7225.17 1289.2 1284.42 1364.45 1315.65 29.9407
7227.96 1259.47 1249.91 1299.35 1301.74 29.5188
7230.76 1201.06 1293.89 1241.43 1273.15 25.5747
7233.55 1421.12 1362.82 1278.67 1282.25 24.8689
7236.35 1466.27 1254.45 1326.66 1258.04 21.8902
7239.14 875.964 1212.28 1168.8 1224.42 11.8573
7241.94 1294.61 1128.9 1177.8 1179.26 17.3757
7244.73 1216.13 1241.13 1191.18 1224.51 17.2599
7247.53 1212.64 1181.46 1304.55 1214.37 19.2351
7250.32 1115.6 1146.22 1147.39 1250.24 19.9563
7253.12 1110.41 1148.9 1298.8 1221.09 21.701
7255.91 1220.68 1157.91 1217.08 1224.05 25.6864
7258.71 1142.65 1186.94 1156.26 1208.12 26.174
7261.5 1197.49 1180.09 1251.02 1207.31 27.5663
7264.29 1200.13 1168.06 1214.66 1194.93 27.7968
7267.09 1106.55 1124.99 1119.1 1186.27 23.2679
7269.88 1068.28 992.403 1225.05 1165.53 17.9576
7272.67 802.383 909.153 1152.42 1202.78 12.0925
7275.47 856.798 972.978 1230.86 1217.82 12.2393
7278.26 1259.75 1056.27 1270.17 1251.64 18.5034
7281.05 1052.27 1171.88 1253.88 1279.26 16.1764
7283.84 1203.61 1093.12 1313.73 1273.7 19.8153
7286.63 1023.47 1136.15 1253.49 1278.14 18.9777
7289.43 1181.38 1167.26 1267.21 1277.32 23.6757
7292.22 1296.92 1228.65 1311.27 1260.33 26.429
7295.01 1207.65 1274.43 1202.51 1257.22 25.207
7297.8 1318.71 1254.02 1257.89 1211.4 26.2476
7300.59 1235.71 1268.21 1173.8 1217.23 24.4078
7303.38 1250.2 1208.03 1220 1183.07 24.9484
7306.17 1138.18 1213.68 1155.41 1196.35 23.2675
7308.96 1252.67 1133.17 1213.64 1177.94 22.1123
7311.76 1008.66 1174.94 1164.78 1194.35 16.2116
7314.55 1263.48 1164.25 1204.62 1219.1 19.4069
7317.34 1220.61 1245.48 1287.91 1276.26 19.8378
7320.13 1252.34 1276.17 1336.25 1330.5 22.3082
7322.92 1355.55 1317.98 1367.34 1339.67 24.4574
7325.7 1346.05 1334.88 1315.43 1307.09 24.5246
7328.49 1303.04 1302.04 1238.49 1294.07 24.0424
7331.28 1257.04 1270.14 1328.29 1309.47 23.3423
7334.07 1250.35 1256.8 1361.63 1285.91 20.428
7336.86 1263.02 1175.72 1167.8 1284.27 18.915
7339.65 1013.8 1145.42 1323.37 1255.95 14.4486
7342.44 1159.45 1071.96 1276.68 1318.17 17.9402
7345.23 1042.64 1121.79 1354.45 1321.1 18.4761
7348.01 1163.28 1124.04 1332.19 1315.82 22.8023
7350.8 1166.19 1193.01 1260.83 1258.9 23.6422
7353.59 1249.55 1245.02 1183.67 1245.92 24.4809
7356.38 1319.31 1279.97 1293.27 1254.22 24.5876
7359.16 1271.06 1286.49 1285.73 1246.02 23.7112
7361.95 1269.11 1262.67 1159.05 1238.03 22.4247
7364.74 1247.86 1218 1269.33 1218.74 20.504
7367.52 1137.05 1224.97 1227.83 1270.07 17.82
7370.31 1289.99 1232.3 1313.07 1291.14 21.2662
7373.1 1269.85 1246.63 1332.53 1290.19 23.4652
7375.88 1180.05 1247.63 1224.98 1286.43 24.487
7378.67 1292.98 1232.72 1301.79 1263.36 28.9289
7381.46 1225.12 1245.02 1263.31 1268.15 28.5807
7384.24 1216.95 1251.25 1239.35 1246.79 27.4626
7387.03 1311.68 1308.67 1237.71 1240.84 27.3336
7389.81 1397.38 1307.72 1245.46 1234.98 27.8924
7392.6 1214.08 1308.96 1221.78 1227.03 23.7478
7395.38 1315.41 1291.73 1213.84 1231.86 24.0716
7398.17 1345.69 1302.11 1259.97 1222.63 23.5647
7400.95 1245.23 1332.53 1194.09 1266.16 21.7987
7403.73 1406.67 1322.61 1344.4 1280.36 25.8834
7406.52 1315.92 1345.44 1302.58 1306.47 26.8082
7409.3 1313.74 1299.19 1272.42 1263.63 28.9516
7412.09 1267.92 1263.5 1215.89 1224.92 29.5145
7414.87 1208.84 1237.1 1186.46 1210.98 29.1037
7417.65 1234.53 1248.12 1230.61 1222.56 29.4746
7420.44 1300.99 1276.52 1250.61 1222.55 30.5812
7423.22 1294.05 1298.91 1186.42 1225.8 29.4039
7426 1301.71 1302.28 1240.37 1202.12 28.1058
7428.78 1311.1 1280.56 1179.58 1247.05 27.7854
7431.57 1228.87 1275.87 1321.21 1240.93 25.1132
7434.35 1287.63 1276.36 1222.01 1258.11 25.427
7437.13 1312.59 1334.22 1231.1 1249.01 25.7933
7439.91 1402.45 1329.14 1293.92 1258.06 28.4261
7442.69 1272.4 1339.12 1249.15 1282.98 27.9632
7445.48 1342.52 1292.13 1305.88 1271.54 30.8373
7448.26 1261.48 1309.79 1259.59 1283.16 29.8198
7451.04 1325.38 1275.57 1283.99 1254.43 31.4543
7453.82 1239.86 1313.22 1219.71 1252.85 29.7132
7456.6 1374.41 1301.08 1254.84 1233.9 31.6203
7459.38 1288.97 1322.04 1227.15 1234.09 28.3307
7462.16 1302.73 1320.99 1220.28 1243.06 27.723
7464.94 1371.27 1321.93 1281.73 1265.68 27.5934
7467.72 1291.78 1295.8 1295.01 1228.14 24.8513
7470.5 1224.35 1273.14 1107.68 1209.76 23.3753
7473.28 1303.29 1312.54 1226.58 1209.46 24.3052
7476.06 1409.98 1351.91 1294.13 1246.77 25.5271
7478.84 1342.47 1369.75 1219.59 1260.44 24.0356
7481.62 1356.8 1304.31 1267.61 1234.16 24.7789
7484.39 1213.67 1228.36 1215.27 1241.44 24.1746
7487.17 1114.63 1172.51 1241.45 1254.82 23.3076
7489.95 1189.24 1182.26 1307.76 1235.72 26.0216
7492.73 1242.9 1198.17 1157.96 1221.06 27.9082
7495.51 1162.37 1192.84 1197.47 1173.68 27.2953
7498.28 1173.24 1187.12 1165.6 1197.48 28.6178
7501.06 1225.75 1229.51 1229.36 1203.52 29.4598
7503.84 1289.56 1246.36 1215.59 1214.12 31.2816
7506.62 1223.76 1249.16 1197.41 1231.97 30.0773
7509.39 1234.17 1228.43 1282.92 1221.27 29.9444
7512.17 1227.36 1250.52 1183.47 1230.8 29.3684
7514.95 1290.03 1217.35 1225.99 1205.14 27.8076
7517.72 1134.67 1231.69 1205.96 1218.61 21.2769
7520.5 1270.37 1171.34 1223.88 1198.58 21.3004
7523.27 1108.98 1150.92 1165.91 1187.52 17.8016
7526.05 1073.41 1118.98 1172.77 1218.09 18.4377
7528.83 1174.54 1137.72 1315.59 1233.48 21.2398
7531.6 1165.2 1192.99 1212.09 1247.13 23.3604
7534.38 1239.24 1188.86 1213.71 1170.08 26.8794
7537.15 1162.12 1208.47 1084.44 1156.22 26.7987
7539.93 1224.04 1204.77 1170.5 1135.74 28.7545
7542.7 1228.16 1212.81 1152.27 1161.09 29.4398
7545.47 1186.23 1193.75 1160.5 1153.62 29.0413
7548.25 1166.86 1204.31 1148.08 1146.52 28.1264
7551.02 1259.84 1197.68 1130.99 1129.13 29.3384
7553.8 1166.34 1205.75 1108.33 1123.28 26.4407
7556.57 1191.08 1180.45 1130.53 1123.97 26.4699
7559.34 1183.93 1232.76 1133.05 1171.93 26.989
7562.12 1323.26 1248.41 1252.21 1183.9 29.4458
7564.89 1238.03 1277.32 1166.43 1205.44 25.6239
7567.66 1270.68 1209.36 1197.69 1165.33 23.8894
7570.43 1119.37 1204.28 1131.88 1151.62 20.2096
7573.21 1222.8 1165.56 1125.3 1148.15 23.2052
7575.98 1154.51 1167.44 1187.28 1135.92 24.2833
7578.75 1125.01 1162.07 1095.18 1156.62 24.8773
7581.52 1206.69 1146.97 1187.4 1134.29 26.5035
7584.29 1109.22 1154.94 1120.29 1137.84 24.5258
7587.07 1148.89 1097.96 1105.85 1079.77 25.8993
7589.84 1035.77 1015.27 1013.19 976.858 25.4969
7592.61 861.16 796.664 811.537 782.716 22.3351
7595.38 493.062 630.901 523.422 591.939 13.7258
7598.15 538.479 471.364 440.856 427.402 15.9326
7600.92 382.549 412.229 317.926 349.116 13.6869
7603.69 315.659 370.924 288.566 316.895 13.283
7606.46 414.564 382.323 344.192 342.095 17.1639
7609.23 416.745 475.372 393.526 424.202 16.5772
7612 594.808 594.768 534.888 560.754 19.0436
7614.77 772.751 742.048 753.848 669.688 21.4394
7617.54 858.586 806.843 720.329 729.164 22.3677
7620.31 789.193 776.513 713.314 709.888 20.7906
7623.08 681.76 713.122 696.02 668.194 18.0256
7625.84 668.414 680.287 595.249 622.673 18.1327
7628.61 690.687 674.831 576.749 597.209 19.1304
7631.38 665.391 673.979 619.63 595.85 19.5045
7634.15 665.857 680.267 591.17 622.23 20.9029
7636.92 709.552 726.502 655.888 660.74 22.566
7639.68 804.095 744.877 735.16 694.957 25.0258
7642.45 720.985 770.751 693.823 727.18 23.2825
7645.22 787.174 788.299 752.557 728.127 23.9146
7647.99 856.737 816.875 738.002 768.678 24.4364
7650.75 806.713 854.747 815.475 813.968 22.4321
7653.52 900.79 866.292 888.427 867.957 23.9233
7656.28 891.373 932.468 899.969 909.049 22.1248
7659.05 1005.24 950.584 938.752 934.027 23.99
7661.82 955.137 1003.71 963.361 937.951 22.7734
7664.58 1050.76 1003.88 911.739 952.752 25.6
7667.35 1005.74 1056.46 983.155 975.155 25.7655
7670.11 1112.88 1068.72 1030.57 994.41 28.9634
7672.88 1087.53 1098.22 969.505 1004.64 29.0387
7675.64 1094.24 1089.2 1013.84 978.738 28.9304
7678.41 1085.84 1097.23 952.867 991.179 28.4298
7681.17 1111.61 1076.76 1006.83 985.876 28.3024
7683.94 1032.84 1092.5 997.931 996.411 26.4549
7686.7 1133.05 1149.85 984.473 1013.2 27.8028
7689.47 1283.65 1171.51 1057.2 1005.68 30.7427
7692.23 1097.84 1143.1 975.358 1001.16 26.8333
7694.99 1047.8 1065.56 970.927 988.89 25.4682
7697.76 1051.04 1051.29 1020.38 996.813 24.8228
7700.52 1055.04 1035.98 999.128 979.948 25.8631
7703.28 1001.86 1058.83 920.33 977.057 23.8502
7706.04 1119.6 1141.37 1011.71 986.092 21.5268
7708.81 1302.65 1205.08 1026.23 989.049 20.2096
7711.57 1193.01 1108.21 929.201 980.103 15.8979
7714.33 828.987 886.998 984.875 954.735 10.6572
7717.09 638.999 700.795 950.13 967.012 8.63385
7719.85 634.4 759.915 966.03 965.471 9.79514
7722.62 1006.35 848.51 980.255 963.049 17.592
7725.38 904.782 987.307 942.863 972.715 17.6449
7728.14 1050.79 998.296 995.027 964.894 22.4743
7730.9 1039.32 1081.27 956.792 979.496 23.798
7733.66 1153.7 1086.01 986.67 972.69 27.0026
7736.42 1065.01 1104.68 974.609 971.46 25.7206
7739.18 1095.32 1035.91 953.102 965.652 26.7517
7741.94 947.413 1086.09 969.245 949.947 20.993
7744.7 1215.55 1087.46 927.494 929.603 20.4294
7747.46 1099.41 1190.91 892.071 914.931 16.2594
7750.22 1257.77 1019.36 925.228 947.882 17.7392
7752.98 700.886 929.466 1026.35 972.223 10.4898
7755.74 829.743 853.163 965.092 1001.52 13.533
7758.5 1028.86 944.681 1013.13 984.717 18.1468
7761.25 975.44 995.575 975.927 991.732 19.2057
7764.01 982.426 991.826 986.136 982.637 21.5437
7766.77 1017.61 1042.87 985.849 994.341 22.9822
7769.53 1128.57 1074.85 1011.04 978.209 25.5823
7772.29 1078.37 1053.99 937.738 944.183 23.8817
7775.04 955.018 1006.68 883.772 880.178 19.9514
7777.8 986.64 968.116 819.025 860.592 20.8265
7780.56 962.689 935.395 878.979 864.655 20.3766
7783.31 856.857 940.127 895.962 893.041 19.2435
7786.07 1000.84 915.762 904.183 901.484 20.9869
7788.83 889.594 995.338 904.306 888.265 15.7051
7791.58 1095.58 1043.37 856.307 911.765 17.815
7794.34 1144.92 1012.2 974.681 910.903 18.4077
7797.1 796.09 964.227 901.72 927.165 14.4844
7799.85 951.667 940.334 905.093 921.269 19.7418
7802.61 1073.24 1011.05 956.993 890.231 22.124
7805.36 1008.25 1073.41 808.608 889.084 20.9061
7808.12 1138.73 1009.23 901.65 885.976 22.4992
7810.87 880.728 925.079 947.669 891.787 18.6107
7813.63 755.781 798.275 826.043 857.277 15.3579
7816.38 758.316 885.083 798.119 836.608 12.7612
7819.13 1141.15 991.661 885.663 853.167 17.473
7821.89 1075.51 1077.03 875.72 895.237 16.4571
7824.64 1014.43 998.376 924.329 878.611 17.6497
7827.4 905.185 984.171 835.784 884.534 18.9664
7830.15 1032.9 979.855 893.489 878.295 24.1302
7832.9 1001.48 985.157 905.612 880.599 25.1472
7835.65 921.09 968.238 842.696 885.871 21.0706
7838.41 982.141 976.806 909.305 886.926 20.9123
7841.16 1027.19 1023.95 908.778 912.609 20.9802
7843.91 1062.52 1062.32 919.743 915.442 21.2124
7846.66 1097.25 1099.81 917.806 907.86 18.9992
7849.42 1139.66 1067.88 886.031 891.817 16.9588
7852.17 966.734 971.786 871.613 842.415 13.2426
7854.92 808.965 897.361 769.601 802.987 11.1516
7857.67 916.384 892.297 767.748 781.842 13.6159
7860.42 951.543 920.421 808.176 810.344 15.3845
7863.17 893.338 860.24 855.109 823.696 15.3844
7865.92 735.84 819.084 807.803 814.487 12.4762
7868.67 828.072 770.484 780.55 803.974 13.9438
7871.42 747.539 885.585 823.569 836.879 13.0572
7874.17 1081.14 859.948 906.519 853.523 19.3024
7876.92 751.163 837.9 830.481 866.366 13.8567
7879.67 681.395 693.961 862.099 856.151 12.8447
7882.42 649.324 756.478 875.873 825.06 12.2409
7885.17 938.716 874.251 737.209 839.02 17.1087
7887.92 1034.71 977.131 903.978 790.238 18.194
7890.67 957.963 933.838 729.528 824.377 17.6981
7893.42 808.837 865.438 839.625 788.642 16.9106
7896.16 829.514 812.488 796.772 825.009 19.5535
7898.91 799.114 852.759 838.629 823.447 20.8191
7901.66 929.65 853.233 834.941 812.374 24.8732
7904.41 830.936 860.115 763.552 771.434 20.5298
7907.15 819.759 909.228 715.809 776.171 15.1765
7909.9 1076.99 776.495 849.152 764.811 15.6916
7912.65 432.737 894.805 729.471 795.599 5.79676
7915.39 1174.69 881.651 808.174 813.737 15.1978
7918.14 1037.53 1017.65 903.566 829.224 14.6617
7920.89 840.745 877.732 775.933 873.25 13.3874
7923.63 754.923 849.335 940.25 854.975 13.3252
7926.38 952.338 912.565 848.743 857.177 17.9811
7929.12 1030.43 962.4 782.537 831.9 19.5881
7931.87 904.429 988.428 864.42 836.331 17.9521
7934.62 1030.42 921.906 862.035 843.392 22.1414
7937.36 830.867 935.351 803.721 823.122 20.075
7940.1 944.765 889.485 803.609 786.452 24.2113
7942.85 892.824 965.333 752.026 789.281 21.7921
7945.59 1058.41 960.453 812.208 775.484 23.0535
7948.34 930.125 931.876 762.22 768.969 20.0904
7951.08 807.094 865.442 732.48 754.516 18.4227
7953.83 859.106 790.461 768.847 767.887 21.3303
7956.57 705.182 814.019 802.334 788.714 16.7497
7959.31 877.769 863.563 794.962 782.408 16.6896
7962.05 1007.74 943.319 749.926 768.816 16.3655
7964.8 944.449 813.965 761.56 734.209 14.5112
7967.54 489.709 784.641 691.14 748.32 8.45083
7970.28 919.764 759.816 792.26 738.439 18.2653
7973.02 869.976 873.52 731.917 752.745 18.0396
7975.77 830.82 886.531 734.059 754.418 16.6498
7978.51 958.796 910.674 797.279 777.563 18.4464
7981.25 942.405 882.573 801.351 769.61 18.8506
7983.99 746.518 841.893 710.2 767.003 16.5449
7986.73 836.755 899.42 789.459 742.535 16.3958
7989.47 1114.99 1023.21 727.945 734.574 18.0728
7992.21 1117.89 1043.78 686.319 713.684 16.6736
7994.95 898.462 951.632 726.789 714.894 14.0261
7997.69 838.539 847.419 731.574 734.958 15.6337
8000.43 805.255 815.65 746.511 734.548 18.221
8003.17 803.155 823.525 725.558 736.447 21.2448
8005.91 862.165 856.275 737.272 728.812 23.7902
8008.65 903.506 900.976 723.605 745.811 22.2985
8011.39 937.258 882.82 776.558 746.492 21.3389
8014.13 807.697 826.267 739.314 733.445 17.57
8016.87 733.846 811.747 684.464 721.519 16.5591
8019.61 893.697 793.51 740.78 691.41 17.9468
8022.34 752.986 830.581 648.985 718.408 13.3763
8025.08 845.06 826.191 765.457 702.351 13.8887
8027.82 880.528 862.211 692.611 751.34 15.3583
8030.56 861.046 796.526 795.951 715.152 17.2829
8033.29 648.004 741.916 656.894 717.869 16.1554
8036.03 716.698 736.293 700.762 686.605 20.0706
8038.77 844.177 790.434 702.157 714.064 24.9312
8041.51 810.428 832.858 739.274 715.666 24.2188
8044.24 843.97 804.614 705.565 715.399 24.2174
8046.98 759.443 824.99 701.359 692.649 20.0464
8049.71 871.558 849.356 671.023 711.908 21.335
8052.45 917.067 875.23 763.341 724.182 21.807
8055.18 837.065 854.619 738.182 725.886 19.6182
8057.92 809.727 826.99 676.134 672.774 17.7769
8060.65 834.178 802.217 604.005 659.494 17.6407
8063.39 762.745 815.401 698.343 679.87 16.1849
8066.12 849.279 820.017 737.263 728.556 20.2087
8068.86 848.027 850.034 750.062 741.613 22.4651
8071.59 852.795 844.388 737.515 734.046 23.9967
8074.33 832.341 841.326 714.561 707.995 24.7593
8077.06 838.842 841.818 671.91 694.687 24.768
8079.79 854.272 851.557 697.591 712.301 25.0949
8082.53 861.558 849.814 767.402 742.87 25.4499
8085.26 833.61 858.312 763.616 755.172 24.3785
8087.99 879.768 875.789 734.498 757.98 25.1699
8090.73 913.988 900.742 775.825 741.437 24.9893
8093.46 908.469 881.958 713.988 732.731 24.172
8096.19 823.418 845.795 708.38 704.474 21.5386
8098.92 805.497 791.989 691.053 689.631 20.6436
8101.65 747.051 807.615 669.458 682.816 18.9276
8104.38 870.297 810.749 687.935 679.011 22.1909
8107.12 814.9 806.696 679.639 675.541 22.5503
8109.85 734.891 791.721 659.049 675.703 22.0159
8112.58 825.372 777.878 688.42 665.835 25.3836
8115.31 773.373 835.373 650.036 689.96 24.453
8118.04 907.375 817.031 731.426 673.603 27.8496
8120.77 770.346 818.271 639.349 670.996 24.8565
8123.5 777.092 782.836 642.213 647.231 24.6398
8126.23 801.071 771.341 660.13 647.196 25.4315
8128.96 735.861 789.1 639.244 657.366 23.6788
8131.69 830.369 768.389 672.724 645.758 25.7373
8134.42 738.938 788.707 625.305 643.097 23.0154
8137.14 796.814 751.822 631.262 616.262 23.8691
8139.87 719.715 760.362 592.218 612.949 21.6477
8142.6 764.559 740.028 615.367 596.771 22.763
8145.33 735.81 762.541 582.729 614.486 22.0689
8148.06 787.254 718.848 645.362 617.336 23.4837
8150.78 633.48 715.215 623.916 619.662 20.2932
8153.51 724.91 679.224 589.708 592.708 23.8973
8156.24 679.282 719.286 564.5 582.643 23.1248
8158.97 753.665 698.527 593.72 585.099 25.5167
8161.69 662.634 699.367 597.076 584.975 23.2595
8164.42 681.804 688.634 564.129 582.551 23.6515
8167.15 721.464 718.818 586.449 570.517 24.6003
8169.87 753.187 726.488 560.973 578.184 25.7458
8172.6 704.814 713.95 587.129 574.228 23.9196
8175.32 683.849 683.885 574.582 592.131 23.4933
8178.05 662.991 708.785 614.681 605.262 22.4624
8180.77 779.515 704.747 626.522 606.797 25.8063
8183.5 671.736 709.76 579.188 583.596 22.3078
8186.22 678.031 683.49 545.078 560.032 22.0289
8188.95 700.704 703.087 555.829 569.981 22.5291
8191.67 730.526 708.972 609.035 580.91 23.2896
8194.4 695.685 712.612 577.867 587.65 21.8818
8197.12 711.626 709.341 576.047 590.347 22.8232
8199.84 720.711 731.828 617.126 607.945 23.5263
8202.57 763.148 758.818 630.663 608.716 24.7382
8205.29 792.597 761.36 578.359 593.606 26.042
8208.01 728.335 739.157 571.798 587.687 23.9963
8210.73 696.541 705.404 612.905 583.681 22.7599
8213.46 691.338 719.44 566.339 597.113 23.188
8216.18 770.441 717.984 612.096 574.784 25.4559
8218.9 692.172 719.987 545.916 554.678 23.6718
8221.62 697.348 674.277 506.022 525.556 24.3566
8224.34 633.311 619.233 524.731 483.03 22.8879
8227.06 527.038 600.272 418.336 480.385 20.3084
8229.79 640.466 634.693 498.087 491.806 23.4034
8232.51 736.574 700.679 558.995 539.615 25.8908
8235.23 724.998 731.315 561.762 564.326 24.9015
8237.95 732.372 781.69 572.221 586.653 24.2425
8240.67 887.698 814.667 625.976 607.603 27.6626
8243.39 823.93 815.874 624.613 624.186 26.1188
8246.11 735.994 759.601 621.969 621.34 23.5616
8248.83 718.879 722.051 617.439 609.17 23.0499
8251.54 711.281 705.285 588.101 584.809 23.1438
8254.26 685.697 707.395 548.887 572.685 23.1271
8256.98 725.206 716.55 581.066 567.868 24.1292
8259.7 738.746 743.981 573.65 578.507 24.8892
8262.42 767.99 744.314 580.806 577.382 25.3098
8265.14 726.207 746.531 577.691 584.508 24.529
8267.85 745.395 750.617 595.028 599.972 24.8075
8270.57 780.249 736.244 627.199 603.24 25.189
8273.29 683.088 753.814 587.493 604.968 19.4916
8276.01 798.106 738.418 600.211 574.767 18.0791
8278.72 734.059 729.116 536.596 530.73 14.0781
8281.44 655.181 720.888 455.381 513.573 11.5463
8284.16 773.422 562 548.741 507.787 12.402
8286.87 257.397 572.319 519.24 557.68 4.1714
8289.59 686.139 544.511 605.059 581.334 11.2389
8292.3 689.998 706.29 619.703 584.393 11.6071
8295.02 742.733 661.975 528.418 590.017 12.0539
8297.73 553.195 728.211 621.929 599.66 8.61505
8300.45 888.706 693.516 648.633 621.24 14.3699
8303.16 638.647 751.886 593.159 635.796 12.086
8305.88 728.304 694.924 665.596 615.146 15.8289
8308.59 717.82 725.166 586.685 620.687 16.5139
8311.31 729.374 736.071 609.782 595.713 17.0392
8314.02 761.021 733.025 590.672 577.129 19.1023
8316.73 708.68 712.351 530.933 566.358 19.8928
8319.45 667.353 702.83 577.47 569.835 20.3935
8322.16 732.457 703.654 601.103 590.222 23.4424
8324.87 711.152 710.162 592.092 599.22 23.7641
8327.58 686.878 716.397 604.464 593.293 23.2809
8330.3 751.162 696.483 583.323 570.448 25.5124
8333.01 651.41 658.38 523.559 550.699 22.0545
8335.72 572.568 631.277 545.217 538.524 17.8942
8338.43 669.852 688.427 546.798 504.648 14.2235
8341.14 822.862 769.271 421.931 484.968 11.9882
8343.85 815.099 859.131 486.174 516.193 10.1671
8346.56 939.432 606.989 640.474 578.429 11.1153
8349.28 66.4348 549.264 608.637 641.578 0.876778
8351.99 641.924 460.989 675.623 573.1 9.70532
8354.7 674.608 678.763 435.038 589.202 11.6739
8357.41 719.758 644.721 656.943 544.992 14.5794
8360.12 539.795 663.266 542.995 577.728 12.3803
8362.82 730.245 695.203 533.245 550.857 17.3134
8365.53 815.569 792.804 576.332 586.428 19.4068
8368.24 832.598 797.143 649.709 611.605 20.9494
8370.95 743.263 761.598 608.773 627.461 21.0398
8373.66 708.932 704.712 623.9 605.247 21.4498
8376.37 661.941 748.985 583.068 601.301 18.5743
8379.08 876.081 781.077 596.935 565.509 20.0809
8381.78 805.209 847.355 516.523 546.467 16.7594
8384.49 860.775 797.967 525.943 529.84 17.9758
8387.2 727.917 733.528 547.054 551.799 16.9515
8389.91 611.893 676.416 582.399 580.475 16.3539
8392.61 689.438 769.638 611.971 604.142 17.0434
8395.32 1007.58 876.67 618.055 597.141 17.7357
8398.03 932.989 962.237 561.398 561.703 13.8255
8400.73 946.138 760.549 505.657 555.661 13.1704
8403.44 402.521 587.509 599.929 555.09 6.31604
8406.14 413.866 526.732 559.684 576.522 8.51252
8408.85 763.807 671.566 569.952 560.548 18.5973
8411.55 837.023 797.319 552.009 551.662 18.9236
8414.26 791.127 788.234 533.025 531.593 16.1861
8416.96 736.551 727.968 509.745 530.56 14.3739
8419.67 656.226 661.718 548.911 552.444 14.2964
8422.37 592.375 643.508 598.677 546.686 14.1618
8425.08 681.923 755.563 492.47 546.598 13.4149
8427.78 992.39 834.699 548.648 512.36 14.7037
8430.48 829.786 890.269 495.962 530.052 11.0559
8433.19 848.632 689.563 545.545 517.27 11.4468
8435.89 390.273 641.9 510.302 544.45 6.53339
8438.59 686.795 599.331 577.503 542.112 15.2763
8441.29 720.926 700.096 538.531 555.414 20.5504
8444 692.568 684.288 550.207 556.189 22.0175
8446.7 639.368 699.642 579.83 550.255 18.4655
8449.4 766.989 702.246 520.727 554.297 17.6688
8452.1 700.38 723.836 562.333 550.998 14.5322
8454.8 704.138 678.031 569.935 586.988 14.2194
8457.5 629.575 664.931 628.695 576.984 14.2874
8460.2 661.08 728.076 532.321 543.081 13.9667
8462.91 893.574 739.307 468.227 488.251 15.111
8465.61 663.268 732.874 464.204 469.953 10.1153
8468.31 641.78 637.657 477.428 490.441 9.79561
8471.01 607.923 646.5 529.69 524.109 11.2486
8473.7 689.798 632.44 565.209 543.1 16.0274
8476.4 599.598 669.281 534.401 569.303 17.1104
8479.1 718.447 660.919 608.298 554.413 22.9024
8481.8 664.712 685.088 520.539 546.566 22.7038
8484.5 672.107 671.873 510.861 530.059 23.0287
8487.2 678.799 690.948 558.778 549.245 21.5399
8489.9 721.939 710.17 578.096 547.624 19.3779
8492.59 729.771 736.861 505.998 534.007 17.5784
8495.29 758.874 727.933 517.928 502.435 17.3314
8497.99 695.154 737.561 483.38 521.936 16.3032
8500.69 758.653 747.325 564.499 525.771 16.3968
8503.38 788.167 773.848 529.434 532.958 15.2225
8506.08 774.725 760.347 504.94 523.861 14.1661
8508.78 718.149 715.376 537.21 495.741 13.9252
8511.47 653.255 667.284 445.072 501.604 15.544
8514.17 630.448 658.843 522.53 523.839 18.0249
8516.86 692.825 658.882 603.916 546.526 22.2854
8519.56 653.375 687.496 513.132 554.626 22.1384
8522.25 716.287 692.431 546.829 536.177 24.05
8524.95 707.632 708.442 548.569 540.484 23.7265
8527.64 701.405 706.807 526.054 536.867 24.3371
8530.34 711.384 727.094 535.978 544.562 24.4386
8533.03 768.493 757.747 571.655 562.641 25.7164
8535.73 793.364 768.782 580.291 567.422 23.3771
8538.42 744.489 723.785 550.319 550.399 20.7464
8541.11 633.502 719.971 520.586 532.083 17.4286
8543.81 781.923 720.661 525.344 540.716 20.6095
8546.5 746.559 762.873 576.216 550.816 18.2366
8549.19 760.139 743.095 550.888 566.402 17.7463
8551.89 722.587 710.302 572.101 548.906 16.6259
8554.58 648.179 694.803 523.727 536.173 17.0225
8557.27 713.643 687.578 512.689 520.75 21.4425
8559.96 700.912 717.306 525.832 531.371 22.8424
8562.65 737.361 701.48 555.592 531.292 24.9795
8565.34 666.165 686.134 512.453 529.097 23.0244
8568.03 654.874 702.313 519.247 537.001 23.2099
8570.73 785.899 730.004 579.304 540.621 25.8177
8573.42 749.239 758.203 523.313 540.99 25.0156
8576.11 739.471 736.585 520.353 519.15 24.3833
8578.8 721.045 704.463 513.785 516.774 24.1841
8581.49 652.872 684.306 516.184 524.253 22.2878
8584.17 679.002 687.885 542.789 528.427 22.0817
8586.86 731.78 714.743 526.309 549.886 22.5734
8589.55 733.447 732.25 580.56 561.086 21.7439
8592.24 731.523 731.259 576.389 571.259 21.0441
8594.93 728.808 706.319 556.828 548.103 20.633
8597.62 658.627 705.199 511.09 536.228 18.3809
8600.31 728.161 716.298 540.765 531.473 20.3655
8602.99 762.106 729.351 542.564 532.575 22.518
8605.68 697.785 712.241 514.397 513.688 22.1878
8608.37 676.833 704.136 484.102 509.58 22.2351
8611.06 737.79 707.999 530.239 507.704 23.1796
8613.74 709.375 745.884 508.771 524.344 20.7601
8616.43 790.486 750.573 534.023 544.264 21.3014
8619.11 751.858 696.649 589.998 535.68 18.8766
8621.8 547.601 686.699 483.019 537.234 12.8298
8624.49 760.637 660.103 538.686 506.302 16.2553
8627.17 672.07 680.512 497.201 507.986 13.9034
8629.86 608.828 662.491 488.071 492.751 12.2812
8632.54 706.576 600.449 492.981 495.523 14.3606
8635.23 485.944 680.021 505.517 534.776 9.9997
8637.91 847.544 651.184 605.829 560.926 17.7652
8640.6 620.063 717.482 571.432 569.607 14.1968
8643.28 684.839 692.549 531.559 539.02 16.9984
8645.96 772.746 717.048 514.071 503.313 19.6403
8648.65 693.56 740.447 464.309 526.894 16.8689
8651.33 755.035 713.559 602.304 526.948 16.6107
8654.01 692.082 681.247 514.23 558.257 14.5374
8656.69 596.625 706.48 558.237 533.642 12.0694
8659.38 830.732 707.648 528.458 546.391 16.4622
8662.06 695.588 703.252 552.479 528.831 14.0937
8664.74 583.435 643.033 505.557 521.603 12.0687
8667.42 650.076 595.989 506.775 489.533 13.7801
8670.1 554.457 611.807 456.267 485.297 12.1892
8672.79 630.888 592.357 492.848 459.019 14.2122
8675.47 591.726 627.341 427.943 472.093 14.1321
8678.15 659.409 636.575 495.487 446.653 16.1625
8680.83 658.591 643.28 416.531 458.621 17.2079
8683.51 611.839 645.155 463.844 449.47 16.7036
8686.19 665.035 683.209 468.036 477.801 18.5059
8688.87 772.751 734.66 501.524 510.753 22.1185
8691.55 766.193 757.083 562.699 533.171 22.3028
8694.23 732.306 733.223 535.29 531.991 22.1252
8696.9 701.17 727.601 497.983 515.76 21.3839
8699.58 749.328 760.777 514.006 534.68 22.5768
8702.26 831.833 769.659 592.05 537.11 24.1437
8704.94 727.817 766.609 505.274 540.894 21.9221
8707.62 740.178 737.764 525.357 515.604 22.4085
8710.29 745.298 721.477 516.181 510.353 22.6135
8712.97 678.956 715.539 489.522 506.746 21.7439
8715.65 722.363 691.453 514.536 495.516 23.2746
8718.33 673.039 740.429 482.492 522.607 22.3932
8721 825.885 757.283 570.792 514.57 26.4406
8723.68 772.924 785.459 490.425 527.073 25.5429
8726.35 757.568 769.631 520.002 522.187 24.6273
8729.03 778.403 745.595 556.135 512.379 25.3904
8731.71 700.816 717 461.001 503.645 23.3463
8734.38 671.783 703.152 493.8 488.364 22.5785
8737.06 736.857 717.315 510.29 497.794 24.3884
8739.73 743.306 738.604 489.291 492.573 24.0524
8742.41 735.648 764.151 478.139 510.257 24.0354
8745.08 813.5 762.996 563.341 523.357 25.212
8747.75 739.84 755.798 528.592 540.005 23.6288
8750.43 714.055 736.432 528.083 521.715 23.2863
8753.1 755.401 729.111 508.47 527.894 23.6723
8755.77 717.878 782.975 547.13 569.975 19.0886
8758.45 875.644 805.455 654.325 573.356 16.6416
8761.12 822.842 892.516 518.614 607.901 12.4728
8763.79 979.061 939.746 650.763 609.45 12.6884
8766.46 1017.33 991.411 658.973 650.634 11.9713
8769.14 977.837 911.386 642.167 614.458 11.6622
8771.81 738.987 805.37 542.235 624.075 9.32543
8774.48 699.285 723.583 687.821 579.946 9.39901
8777.15 732.477 746.498 509.783 546.867 9.69779
8779.82 807.733 778.887 442.997 482.02 10.3535
8782.49 796.45 732.48 493.282 504.487 10.6693
8785.16 593.258 658.838 577.181 546.53 9.65806
8787.83 586.805 618.73 569.126 541.981 11.8646
8790.5 676.129 662.427 479.635 508.842 14.2203
8793.17 724.347 611.541 477.765 464.156 14.9595
8795.84 434.147 529.825 435.069 431.111 9.17947
8798.51 430.98 484.219 380.497 427.436 10.6651
8801.18 587.528 560.598 466.742 441.172 17.0436
8803.85 663.284 652.644 476.277 482.427 21.5649
8806.52 707.121 689.323 504.262 494.914 23.0798
8809.18 697.565 711.009 504.203 505.346 22.5432
8811.85 728.34 731.03 507.571 505.375 22.7508
8814.52 767.185 721.003 504.349 497.333 23.5195
8817.19 667.483 691.887 480.078 510.338 21.4838
8819.85 640.993 632.218 546.585 574.453 19.8188
8822.52 588.178 783.877 696.697 672.159 13.3615
8825.19 1122.46 950.16 773.195 732.804 15.3078
8827.85 1139.84 1114.56 728.519 652.249 12.0878
8830.52 1081.39 906.562 455.034 512.834 10.4781
8833.18 498.454 761.325 354.949 465.65 5.11777
8835.85 704.132 486.133 586.966 444.119 8.31477
8838.51 255.812 519.969 390.442 453.074 3.40502
8841.18 599.964 393.032 381.812 412.506 8.97928
8843.84 323.319 467.082 465.264 445.756 5.83547
8846.51 477.963 478.727 490.191 497.895 10.6073
8849.17 634.899 595.961 538.229 512.16 14.3013
8851.84 675.022 651.027 508.059 523.463 14.9164
8854.5 643.159 689.266 524.099 510.658 14.2446
8857.16 749.616 684.801 499.816 472.701 18.4241
8859.83 661.629 652.014 394.189 457.805 18.7687
8862.49 544.798 676.695 479.41 487.861 16.4664
8865.15 823.659 674.606 589.985 547.323 19.502
8867.81 655.359 663.444 572.574 553.07 12.4355
8870.48 511.315 553.9 496.65 481.907 9.00433
8873.14 495.025 593.271 376.499 449.411 8.9698
8875.8 773.472 626.885 475.084 463.891 16.6424
8878.46 612.157 690.987 540.089 560.401 16.1841
8881.12 687.333 729.11 666.03 633.917 18.5758
8883.78 887.84 847.647 695.634 646.886 15.9835
8886.44 967.768 960.202 578.993 601.252 12.9457
8889.1 1025 948.565 529.128 489.888 12.1313
8891.76 852.929 804.806 361.544 407.718 10.4606
8894.42 536.493 637.098 332.481 386.791 8.4742
8897.08 521.873 536.519 466.349 462.104 11.2181
8899.74 551.19 645.529 587.48 526.03 13.7794
8902.4 863.524 746.326 524.26 538.59 17.2567
8905.06 824.265 842.777 504.03 475.715 14.0594
8907.72 840.543 781.028 398.854 437.859 13.7521
8910.37 678.276 719.477 410.693 467.655 12.331
8913.03 639.612 608.583 593.417 514.982 14.2804
8915.69 507.86 698.965 540.836 617.047 11.8981
8918.35 949.421 829.811 716.888 592.859 14.7605
8921 1032.15 921.17 520.852 540.034 12.4478
8923.66 781.937 645.21 382.361 369.805 8.66092
8926.32 121.541 459.353 206.203 247.583 1.44971
8928.97 474.582 415.747 154.184 259.291 7.41164
8931.63 651.118 576.649 417.485 308.804 14.2676
8934.28 604.248 629.671 354.741 416.766 17.3094
8936.94 633.648 609.748 478.072 421.401 19.7172
8939.59 591.349 680.029 431.389 472.392 17.5804
8942.25 815.091 710.972 507.713 497.571 18.449
8944.9 726.475 714.894 553.611 475.902 13.7897
8947.56 603.116 613.067 366.381 434.318 10.7944
8950.21 509.611 561.925 382.961 415.979 9.45027
8952.87 573.047 578.782 498.595 475.493 12.9187
8955.52 653.688 673.265 544.924 541.127 13.9504
8958.17 793.061 655.548 579.863 567.56 12.3845
8960.82 519.894 746.898 577.892 508.275 6.81095
8963.48 927.739 634.799 367.07 322.578 11.8556
8966.13 456.765 570.699 22.7701 156.59 7.0862
8968.78 327.592 451.807 79.9304 116.859 6.94682
8971.43 571.062 499.039 247.876 207.984 16.436
8974.09 598.462 588.846 296.146 310.801 20.2213
8976.74 597.013 606.184 388.38 347.849 20.79
8979.39 623.076 620.107 359.021 393.289 21.7601
8982.04 640.23 634.69 432.465 403.129 21.4472
8984.69 640.764 604.881 417.901 406.113 20.3426
8987.34 533.649 604.854 367.973 425.203 14.6783
8989.99 640.148 605.215 489.735 411.483 14.791
8992.64 641.849 561.375 376.742 387.406 13.9207
8995.29 402.128 540.677 295.741 364.783 9.1101
8997.94 578.054 553.533 421.868 397.97 14.1979
9000.59 680.417 664.184 476.303 458.054 14.3954
9003.23 734.079 672.401 475.99 492.639 13.0146
9005.88 602.707 507.561 525.623 410.77 10.0511
9008.53 185.897 419.132 230.698 277.384 3.32204
9011.18 468.794 395.992 75.8316 180.933 10.7843
9013.83 533.287 509.638 236.27 186.521 15.8656
9016.47 526.834 559.952 247.461 251.493 19.8151
9019.12 619.734 571.084 270.75 284.86 23.5127
9021.77 566.684 600.225 336.368 317.24 21.9513
9024.41 614.255 581.706 344.601 350.983 22.5907
9027.06 564.179 595.066 371.981 376.793 21.0723
9029.71 606.765 595.684 413.798 389.653 21.8662
9032.35 616.11 621.683 383.179 391.517 22.7973
9035 642.174 626.103 377.573 400.321 22.0619
9037.64 620.024 629.865 440.211 434.841 18.6734
9040.29 627.397 593.856 486.739 436.552 16.6234
9042.93 534.146 599.598 382.706 408.252 13.576
9045.58 637.251 583.715 355.313 377.401 16.3861
9048.22 579.748 620.52 394.186 394.247 14.7512
9050.86 644.56 642.33 433.242 418.154 14.5345
9053.51 702.683 654.992 427.033 422.477 14.7609
9056.15 617.731 652.239 407.154 376.298 13.2851
9058.79 636.304 609.088 294.708 309.194 15.7418
9061.44 573.229 599.959 225.722 273.081 17.4925
9064.08 590.345 581.105 298.813 290.249 20.7316
9066.72 579.739 571.056 346.212 343.556 21.1357
9069.36 543.082 537.031 385.644 336.289 20.2244
9072 488.271 448.348 277.012 277.962 19.4427
9074.64 313.693 267.321 171.23 149.414 15.6739
