wavelength spectrum_sum 3smoothed_sum spectrum_optimal 3smoothed_optimal spectrum_snr
3507.1 32.304 21.2625 36.9578 20.4449 nan
3510.01 31.4835 31.3561 24.3769 34.488 nan
3512.93 30.2808 33.3625 42.1293 34.2411 nan
3515.85 38.3232 34.6452 36.2172 35.9412 nan
3518.76 35.3318 40.667 29.4769 33.328 nan
3521.68 48.3461 36.9389 34.2897 27.3826 nan
3524.6 27.1388 42.3643 18.3811 26.3457 nan
3527.51 51.6079 40.5602 26.3662 24.5007 53.0518
3530.43 42.9339 49.6934 28.7548 25.6645 29.5464
3533.35 54.5383 52.4426 21.8726 29.3265 20.1065
3536.26 59.8556 60.4927 37.3522 22.6492 11.1125
3539.18 67.0842 58.5943 8.72278 28.1901 11.6582
3542.1 48.8431 44.9823 38.4954 27.7764 7.826
3545.02 19.0194 29.3453 36.1111 33.5788 3.54362
3547.93 20.1735 34.1391 26.1298 33.4951 3.45445
3550.85 63.2243 48.9316 38.2444 40.9189 8.65513
3553.77 63.3971 57.0774 58.3825 46.6722 8.14383
3556.68 44.6108 49.7894 43.3896 46.81 7.49307
3559.6 41.3602 48.1337 38.6579 42.3196 7.73653
3562.52 58.4301 46.4018 44.9115 40.5005 10.4128
3565.43 39.415 47.7484 37.9321 39.8659 13.2613
3568.35 45.4 46.7624 36.754 44.9659 10.8677
3571.27 55.4721 44.3859 60.2116 40.4074 9.89211
3574.18 32.2855 48.4692 24.2566 40.5089 nan
3577.1 57.6499 45.664 37.0584 34.609 14.4696
3580.02 47.0565 48.4106 42.5119 38.7384 12.0907
3582.93 40.5254 51.3586 36.645 42.5726 29.6401
3585.85 66.494 49.3052 48.5609 43.8674 16.5037
3588.77 40.8963 47.7808 46.3962 48.8563 13.5394
3591.68 35.952 41.6445 51.612 48.5476 12.2594
3594.6 48.0851 45.3546 47.6348 49.0957 12.5613
3597.52 52.0267 65.8007 48.0402 53.8895 12.9506
3600.44 97.2903 74.2556 65.9935 59.3882 14.8437
3603.35 73.4499 71.9826 64.1308 60.1155 13.1957
3606.27 45.2078 65.2321 50.2222 57.9291 11.0727
3609.19 77.0385 61.9134 59.4344 49.635 12.9791
3612.1 63.4939 68.9664 39.2485 50.7303 13.5051
3615.02 66.3667 64.506 53.5081 53.114 10.1001
3617.94 63.6573 55.4909 66.5854 56.1916 8.62048
3620.85 36.4486 51.4984 48.4814 59.4267 5.93066
3623.77 54.3892 52.1819 63.2134 49.5395 7.81214
3626.69 65.7077 62.3854 36.9236 45.4976 8.50357
3629.6 67.0592 64.0247 36.3558 44.9655 9.83881
3632.52 59.3073 55.187 61.6171 48.0221 7.3084
3635.44 39.1945 53.6093 46.0935 52.9997 5.48291
3638.35 62.3262 60.0118 51.2886 53.6184 8.27201
3641.27 78.5147 61.7275 63.4731 45.4118 9.06998
3644.18 44.3417 62.9151 21.4738 46.5353 6.78813
3647.1 65.8889 51.8509 54.6589 42.1328 8.30941
3650.02 45.3221 56.8119 50.2657 49.0198 5.89544
3652.93 59.2246 53.1361 42.1347 46.1507 7.69335
3655.85 54.8617 51.6241 46.0516 40.5728 7.21638
3658.77 40.7859 57.9901 33.5322 53.3053 5.23151
3661.68 78.3227 67.0362 80.3321 61.2219 9.07339
3664.6 82 78.7593 69.8014 70.9678 9.6237
3667.52 75.9552 70.592 62.7699 65.5605 8.44555
3670.43 53.8207 57.1272 64.1104 55.2861 7.57673
3673.35 41.6057 53.3665 38.9781 49.4998 6.23568
3676.27 64.6732 56.3986 45.4108 42.9546 9.42493
3679.18 62.917 60.781 44.475 47.5524 10.0047
3682.1 54.7527 63.3395 52.7716 54.953 7.40592
3685.02 72.3488 63.7242 67.6124 64.0778 8.65885
3687.93 64.0709 71.4227 71.8494 64.3575 7.79218
3690.85 77.8482 72.299 53.6106 58.8955 8.97472
3693.76 74.9778 79.016 51.2266 59.9058 8.33755
3696.68 84.222 74.0994 74.8801 54.0665 8.84849
3699.6 63.0983 80.1079 36.0927 65.7557 7.05539
3702.51 93.0035 79.4084 86.2944 66.7586 8.74975
3705.43 82.1235 78.5287 77.8887 75.7751 7.89756
3708.35 60.4593 67.7708 63.142 61.7164 6.69493
3711.26 60.7295 72.9549 44.1185 63.0834 6.68883
3714.18 97.6759 81.5579 81.9895 55.2258 9.60031
3717.1 86.2683 92.8073 39.5694 65.0883 9.43065
3720.01 94.4777 92.8116 73.706 59.3797 10.0581
3722.93 97.6888 94.0466 64.8638 68.9988 9.42403
3725.84 89.9735 100.31 68.4267 63.5136 8.91072
3728.76 113.267 95.7546 57.2504 66.8466 10.4809
3731.68 84.0235 96.7378 74.8627 61.7189 7.81477
3734.59 92.923 94.7852 53.0435 65.1513 9.07761
3737.51 107.409 91.3459 67.5477 55.6857 9.80103
3740.42 73.7058 94.766 46.466 67.6611 6.96401
3743.34 103.183 79.0993 88.9695 63.6125 9.02397
3746.26 60.4088 97.1698 55.4019 81.9762 6.20868
3749.17 127.917 98.78 101.557 85.179 10.9218
3752.09 108.014 110.646 98.5778 87.8725 9.622
3755 96.0058 109.481 63.4823 89.5094 9.55975
3757.92 124.424 112.789 106.468 99.6848 11.0174
3760.84 117.936 129.835 129.104 108.346 9.97008
3763.75 147.144 124.52 89.465 97.4618 12.5186
3766.67 108.481 115.376 73.8161 83.8478 9.91691
3769.58 90.5046 110.763 88.2622 93.1471 8.42313
3772.5 133.302 122.141 117.363 106.258 11.2109
3775.42 142.615 136.825 113.149 114.598 11.1457
3778.33 134.558 138.574 113.28 117.761 10.773
3781.25 138.55 143.844 126.854 132.071 11.0953
3784.16 158.423 145.114 156.077 138.878 11.8481
3787.08 138.369 146.961 133.702 134.359 10.6271
3790 144.091 138.23 113.297 124.131 11.4089
3792.91 132.229 133.568 125.394 116.686 11.0398
3795.83 124.384 119.585 111.366 110.172 10.4177
3798.74 102.142 110.743 93.7567 94.512 9.00406
3801.66 105.702 112.661 78.4133 94.3475 9.02105
3804.57 130.138 120.305 110.873 96.6204 10.6478
3807.49 125.075 120.541 100.576 99.7299 9.73374
3810.41 106.409 123.769 87.7417 92.0671 8.9652
3813.32 139.822 140.003 87.8842 100.899 10.9094
3816.24 173.777 148.435 127.07 115.773 12.8113
3819.15 131.705 159.953 132.366 131.71 9.90184
3822.07 174.377 145.562 135.696 129.273 12.9045
3824.98 130.604 153.31 119.758 120.364 9.9261
3827.9 154.949 147.586 105.64 123.237 11.5646
3830.82 157.204 147.733 144.313 124.54 11.2368
3833.73 131.044 150.03 123.668 134.015 9.51913
3836.65 161.843 169.24 134.065 145.533 11.2704
3839.56 214.835 187.019 178.866 157.597 13.7032
3842.48 184.38 190.184 159.859 167.372 12.5961
3845.39 171.339 166.242 163.392 147.89 12.1086
3848.31 143.008 159.929 120.419 143.801 10.5162
3851.22 165.44 150.064 147.594 129.946 11.1735
3854.14 141.744 162.126 121.825 138.741 10.3249
3857.05 179.193 163.503 146.804 133.218 12.496
3859.97 169.574 165.813 131.024 140.344 12.1971
3862.89 148.672 165.401 143.204 137.603 10.4232
3865.8 177.957 171.197 138.58 145.485 13.0673
3868.72 186.963 177.499 154.671 142.471 13.2036
3871.63 167.576 178.886 134.163 145.406 12.3032
3874.55 182.118 167.747 147.385 134.597 13.0525
3877.46 153.547 154.566 122.242 133.26 11.3027
3880.38 128.034 145.934 130.153 130.457 10.1275
3883.29 156.223 161.246 138.976 146.571 11.4301
3886.21 199.482 163.071 170.584 141.176 13.7179
3889.12 133.509 156.63 113.968 135.952 10.368
3892.04 136.9 145.017 123.305 116.723 10.5196
3894.95 164.643 155.515 112.896 125.732 11.4203
3897.87 165.002 152.95 140.995 120.479 11.3057
3900.78 129.204 159.193 107.546 130.965 8.89849
3903.7 183.373 160.332 144.354 133.71 11.384
3906.61 168.42 190.513 149.229 168.335 10.45
3909.53 219.747 191.902 211.422 177.066 12.3674
3912.44 187.539 219.894 170.546 207.11 11.4526
3915.36 252.397 216.148 239.363 210.077 13.8608
3918.27 208.508 218.817 220.321 219.697 11.9725
3921.19 195.545 194.478 199.405 206.925 11.7366
3924.1 179.382 183.186 201.049 184.477 11.31
3927.02 174.632 183.695 152.976 177.479 11.6294
3929.93 197.07 182.42 178.413 165.98 13.1431
3932.85 175.557 191.27 166.552 163.97 11.7891
3935.76 201.182 199.872 146.946 161.667 13.0467
3938.68 222.876 191.225 171.502 152.714 14.3146
3941.59 149.616 192.777 139.694 153.552 10.2241
3944.51 205.84 182.669 149.46 157.443 12.8577
3947.42 192.55 202.538 183.174 179.772 11.8081
3950.33 209.225 215.097 206.683 204.82 12.4645
3953.25 243.517 208.796 224.604 198.748 14.0299
3956.16 173.645 196.466 164.957 190.835 11.0525
3959.08 172.236 173.133 182.943 183.423 11.0135
3961.99 173.517 184.646 202.369 184.653 11.045
3964.91 208.183 194.055 168.647 184.714 13.0617
3967.82 200.464 222.654 183.125 188.783 13.3323
3970.74 259.314 224.916 214.576 197.63 15.3455
3973.65 214.97 235.297 195.189 203.732 13.3058
3976.56 231.608 231.16 201.43 201.431 13.5769
3979.48 246.903 214.435 207.673 193.427 14.2123
3982.39 164.793 202.805 171.178 182.362 9.80201
3985.31 196.72 182.375 168.234 162.699 11.3325
3988.22 185.612 181.141 148.686 159.639 11.2078
3991.14 161.093 179.536 161.997 165.923 9.63045
3994.05 191.902 197.881 187.086 181.348 11.024
3996.96 240.649 216.768 194.962 186.768 13.1041
3999.88 217.752 223.189 178.257 188.074 11.9261
4002.79 211.165 221.892 191.002 189.748 11.4741
4005.71 236.76 223.175 199.984 192.245 12.1832
4008.62 221.599 234.436 185.75 206.944 11.6015
4011.53 244.948 236.448 235.098 220.46 12.3789
4014.45 242.798 233.257 240.534 222.017 12.2775
4017.36 212.025 224.541 190.419 210.976 10.9652
4020.28 218.798 217.123 201.975 198.004 11.2406
4023.19 220.545 195.99 201.62 186.214 11.275
4026.1 148.626 180.242 155.048 174.922 8.19549
4029.02 171.555 180.435 168.098 167.454 9.56767
4031.93 221.126 198.217 179.216 181.518 11.5042
4034.85 201.971 232.566 197.239 209.676 10.858
4037.76 274.601 229.796 252.572 216.284 13.4409
4040.67 212.816 249.923 199.039 240.426 10.8311
4043.59 262.353 239.962 269.667 233.51 12.5191
4046.5 244.717 263.764 231.825 252.589 11.9284
4049.41 284.224 265.029 256.275 254.773 13.5157
4052.33 266.147 291.859 276.218 281.247 12.6399
4055.24 325.207 302.789 311.247 281.786 14.6947
4058.16 317.014 314.053 257.892 284.076 14.647
4061.07 299.937 305.171 283.089 269.433 13.9482
4063.98 298.56 287.24 267.318 277.851 13.5747
4066.9 263.223 284.344 283.145 277.837 12.2783
4069.81 291.247 290.794 283.048 287.905 13.327
4072.72 317.912 300.448 297.523 305.532 14.3728
4075.64 292.184 325.796 336.025 308.337 13.1739
4078.55 367.293 332.442 291.462 319.1 16.462
4081.46 337.85 342.436 329.813 318.598 14.9866
4084.38 322.164 330.626 334.519 339.661 14.1739
4087.29 331.864 331.913 354.652 332.665 14.7401
4090.2 341.71 345.495 308.825 325.861 15.0996
4093.12 362.912 346.923 314.106 317.246 16.3439
4096.03 336.147 354.048 328.807 325.89 14.9267
4098.94 363.086 332.308 334.758 313.981 16.374
4101.86 297.692 354.676 278.378 323.666 14.0717
4104.77 403.252 366.389 357.863 313.855 17.6897
4107.68 398.224 394.134 305.326 333.463 17.8534
4110.59 380.926 384.325 337.202 332.281 16.6433
4113.51 373.826 373.308 354.317 335.344 16.3084
4116.42 365.172 365.731 314.514 331.863 16.0423
4119.33 358.193 345.833 326.757 304.225 15.4295
4122.25 314.135 339.999 271.406 316.08 14.44
4125.16 347.67 323.743 350.079 305.896 15.1383
4128.07 309.424 352.43 296.205 334.576 13.7423
4130.98 400.198 335.41 357.443 308.942 16.518
4133.9 296.608 370.413 273.177 335.211 13.2656
4136.81 414.432 360.874 375.012 344.283 17.5923
4139.72 371.583 374.674 384.66 363.303 15.7671
4142.63 338.009 360.135 330.238 361.307 14.9463
4145.55 370.815 359.304 369.023 346.606 15.5623
4148.46 369.089 364.302 340.556 350.534 15.705
4151.37 353.002 366.24 342.023 339.28 15.1486
4154.28 376.628 384.122 335.262 350.573 16.0331
4157.2 422.737 374.424 374.433 337.842 17.2861
4160.11 323.906 374.654 303.829 350.51 13.8559
4163.02 377.318 343.874 373.267 331.505 15.3489
4165.93 330.398 351.6 317.417 350.573 14.0068
4168.85 347.083 347.291 361.033 346.138 14.2415
4171.76 364.39 356.319 359.964 361.381 15.0547
4174.67 357.482 384.66 363.146 362.583 14.9746
4177.58 432.107 391.595 364.639 368.54 17.4995
4180.5 385.196 406.042 377.836 374.2 15.6894
4183.41 400.822 387.152 380.126 372.231 16.2641
4186.32 375.438 392.678 358.732 367.562 15.4804
4189.23 401.774 397.735 363.827 370.162 16.5472
4192.14 415.991 397.808 387.928 381.71 16.7976
4195.06 375.657 391.679 393.373 375.888 15.7644
4197.97 383.39 388.183 346.362 371.567 16.1407
4200.88 405.503 402.825 374.965 373.011 16.5714
4203.79 419.581 405.102 397.705 399.113 17.0745
4206.7 390.222 419.954 424.67 398.119 15.8194
4209.61 450.058 424.584 371.981 395.745 18.2318
4212.53 433.473 447.324 390.585 399.991 17.6292
4215.44 458.442 434.211 437.408 401.831 18.0956
4218.35 410.719 426.353 377.501 410.642 16.6534
4221.26 409.898 429.933 417.017 409.31 16.5678
4224.17 469.181 439.04 433.411 405.571 18.7264
4227.08 438.04 451.574 366.285 395.5 17.8942
4230 447.501 431.301 386.805 382.888 17.8991
4232.91 408.364 435.727 395.574 398.65 16.9142
4235.82 451.317 421.904 413.572 405.2 18.2001
4238.73 406.031 442.512 406.454 423.217 16.6033
4241.64 470.187 452.401 449.624 427.734 18.6007
4244.55 480.986 464.845 427.125 431.051 18.9181
4247.46 443.361 459.219 416.404 426.776 17.6939
4250.38 453.311 446.561 436.798 416.73 17.7723
4253.29 443.011 445.506 396.988 419.547 17.4782
4256.2 440.198 443.293 424.856 407.215 17.098
4259.11 446.67 435.264 399.802 406.905 17.6413
4262.02 418.924 433.717 396.058 399.146 16.5467
4264.93 435.558 442.293 401.579 419.572 17.3817
4267.84 472.396 456.117 461.08 420.736 18.3058
4270.75 460.396 446.849 399.548 415.942 18.1099
4273.66 407.755 447.625 387.199 407.894 16.5155
4276.57 474.722 431.271 436.936 408.055 18.4178
4279.49 411.334 423.719 400.03 403.388 16.1851
4282.4 385.101 429.805 373.2 422.527 15.6059
4285.31 492.979 454.864 494.352 447.894 18.8723
4288.22 486.511 492.618 476.131 481.993 18.6232
4291.13 498.366 482.401 475.497 465.887 19.0045
4294.04 462.328 471.206 446.034 453.306 18.1996
4296.95 452.925 446.068 438.387 440.873 17.7944
4299.86 422.951 459.983 438.197 458.267 17.1811
4302.77 504.073 465.387 498.216 463.235 19.5266
4305.68 469.139 488.883 453.292 472.826 18.3841
4308.59 493.436 490.737 466.971 458.377 18.8868
4311.5 509.636 514.954 454.868 479.484 19.6327
4314.41 541.79 521.645 516.614 479.703 20.0328
4317.32 513.509 512.817 467.626 485.151 19.3361
4320.23 483.152 504.966 471.214 465.081 18.1832
4323.14 518.236 516.94 456.404 481.398 19.2685
4326.05 549.433 516.469 516.576 473.276 19.9512
4328.96 481.738 509.974 446.848 493.757 18.1469
4331.87 498.75 511.327 517.847 488.649 18.5739
4334.78 553.493 534.347 501.253 502.629 20.2483
4337.69 550.796 543.024 488.788 484.081 20.1756
4340.6 524.782 534.697 462.201 467.232 19.5503
4343.51 528.514 509.958 450.706 454.804 19.5372
4346.42 476.578 492.901 451.504 449.616 17.812
4349.33 473.612 486.436 446.637 453.146 17.7034
4352.24 509.117 498.259 461.296 469.324 18.8878
4355.15 512.05 525.166 500.039 495.056 18.7757
4358.06 554.332 516.042 523.834 489.744 20.0782
4360.97 481.745 493.412 445.359 476.315 17.9489
4363.88 444.158 463.164 459.753 448.871 16.5472
4366.79 463.588 468.822 441.501 459.275 17.375
4369.7 498.719 466.874 476.57 451.352 18.3844
4372.61 438.316 466.649 435.986 453.364 16.4481
4375.52 462.912 459.82 447.536 446.57 17.2647
4378.43 478.232 498.42 456.188 481.955 17.7943
4381.34 554.117 532.931 542.142 508.133 19.7135
4384.25 566.444 539.566 526.069 523.644 20.2981
4387.15 498.137 541.199 502.72 509.07 18.1329
4390.06 559.017 532.799 498.422 511.896 20.1554
4392.97 541.242 550.461 534.546 523.007 19.2404
4395.88 551.125 538.913 536.054 521.72 19.3859
4398.79 524.372 530.658 494.56 510.283 18.5383
4401.7 516.478 526.938 500.235 504.375 18.4264
4404.61 539.965 533.32 518.329 520.999 18.8293
4407.52 543.517 555.282 544.432 537.754 18.8452
4410.43 582.364 552.82 550.502 540.353 19.721
4413.34 532.579 538.892 526.125 510.985 18.4224
4416.24 501.734 524.385 456.329 512.655 17.6643
4419.15 538.841 548.179 555.509 523.768 18.3581
4422.06 603.961 580.291 559.465 575.472 20.4108
4424.97 598.073 602.481 611.442 573.704 19.9191
4427.88 605.409 595.545 550.204 573.945 20.1164
4430.79 583.154 580.686 560.19 571.4 19.293
4433.7 553.496 567.079 603.805 568.624 18.4899
4436.6 564.589 575.67 541.877 586.202 19.2268
4439.51 608.926 595.743 612.924 579.979 20.0646
4442.42 613.715 604.505 585.135 590.484 20.2408
4445.33 590.875 574.601 573.394 554.63 19.7827
4448.24 519.214 537.991 505.361 529.671 17.8836
4451.14 503.885 539.896 510.257 525.863 17.5368
4454.05 596.59 567.072 561.97 559.857 20.3486
4456.96 600.743 606.618 607.342 581.845 20.2103
4459.87 622.522 593.689 576.222 589.624 20.9701
4462.78 557.802 623.616 585.306 596.412 19.0175
4465.68 690.526 589.469 627.707 564.937 22.6544
4468.59 520.08 588.974 481.799 562.861 18.2577
4471.5 556.317 564.521 579.078 541.024 18.6339
4474.41 617.166 608.105 562.196 592.464 20.7285
4477.32 650.832 644.33 636.117 607.368 21.4158
4480.22 664.993 656.844 623.79 638.438 21.7308
4483.13 654.708 638.416 655.406 614.91 21.3044
4486.04 595.547 620.7 565.533 608.133 19.9197
4488.95 611.846 618.651 603.459 585.676 20.2956
4491.85 648.56 630.995 588.035 600.055 21.4488
4494.76 632.58 623.102 608.671 583.602 20.4181
4497.67 588.167 624.457 554.099 607.553 19.3949
4500.58 652.624 612.076 659.89 596.244 20.7974
4503.48 595.437 647.113 574.743 643.104 19.725
4506.39 693.278 635.649 694.68 623.49 21.8953
4509.3 618.233 644.307 601.046 648.836 20.1304
4512.2 621.412 652.786 650.781 644.92 19.9997
4515.11 718.714 661.028 682.934 667.005 22.4462
4518.02 642.959 677.109 667.3 685.583 20.5108
4520.92 669.654 659.713 706.516 670.258 21.1196
4523.83 666.526 653.683 636.959 676.569 21.31
4526.74 624.868 639.812 686.232 633.205 20.2448
4529.65 628.043 649.172 576.423 645.73 20.6683
4532.55 694.603 674.113 674.537 653.731 21.9053
4535.46 699.693 709.492 710.233 690.376 22.0463
4538.37 734.181 692.54 686.358 667.775 22.9238
4541.27 643.745 674.19 606.734 649.657 20.5334
4544.18 644.645 637.234 655.878 628.372 20.2376
4547.08 623.311 659.011 622.505 646.376 19.9005
4549.99 709.076 680.718 660.745 659.529 22.0342
4552.9 709.767 687.303 695.337 675.187 21.8062
4555.8 643.066 705.705 669.478 690.05 20.3303
4558.71 764.281 726.412 705.334 694.444 23.6061
4561.62 771.888 762.092 708.519 709.667 23.2255
4564.52 750.107 730.622 715.148 681.09 22.8137
4567.43 669.872 719.931 619.603 668.284 21.0781
4570.33 739.815 730.563 670.101 669.361 22.6573
4573.24 782.002 773.44 718.379 699.991 23.7013
4576.15 798.503 786.807 711.494 725.187 23.9407
4579.05 779.917 799.631 745.688 745.027 23.5837
4581.96 820.473 746.83 777.901 712.27 24.308
4584.86 640.098 751.05 613.22 708.706 20.3022
4587.77 792.579 732.862 734.998 666.475 23.8816
4590.67 765.91 765.393 651.208 682.169 23.211
4593.58 737.689 740.33 660.301 650.447 22.8203
4596.49 717.391 752.177 639.833 665.1 22.1291
4599.39 801.452 779.262 695.164 676.945 24.1098
4602.3 818.944 795.951 695.838 661.497 24.4466
4605.2 767.458 804.882 593.49 664.343 23.3035
4608.11 828.244 775.32 703.703 646.963 24.7546
4611.01 730.256 775.396 643.695 677.534 22.4698
4613.92 767.687 747.846 685.203 669.214 23.0403
4616.82 745.593 765.947 678.745 686.958 22.5749
4619.73 784.562 758.95 696.928 677.394 23.3711
4622.63 746.696 760.308 656.508 665.622 22.6963
4625.54 749.667 770.393 643.429 656.657 22.6518
4628.44 814.817 770.755 670.034 650.256 24.0881
4631.35 747.779 783.631 637.305 642.055 22.193
4634.25 788.296 766.723 618.826 645.589 23.7034
4637.16 764.094 796.678 680.638 664.641 23.1096
4640.06 837.643 828.212 694.461 711.111 24.5993
4642.97 882.899 845.1 758.234 718.251 25.5922
4645.87 814.759 835.169 702.056 724.661 24.3067
4648.77 807.85 802.393 713.692 688.859 23.8945
4651.68 784.571 821.3 650.828 689.941 23.8002
4654.58 871.479 811.313 705.301 677.945 25.3035
4657.49 777.89 814.066 677.705 677.384 23.2568
4660.39 792.829 797.385 649.146 667.625 23.4106
4663.3 821.436 811.373 676.024 655.435 24.2965
4666.2 819.855 812.338 641.136 663.786 24.1533
4669.1 795.724 792.715 674.197 644.688 23.4661
4672.01 762.567 825.503 618.73 673.932 22.6441
4674.91 918.219 848.113 728.868 678.085 26.1239
4677.82 863.553 873.26 686.657 694.807 25.1302
4680.72 838.008 871.634 668.896 718.362 24.3069
4683.62 913.341 859.855 799.533 740.119 25.9044
4686.53 828.215 882.403 751.929 759.107 24.3143
4689.43 905.653 858.061 725.86 721.755 25.6554
4692.33 840.315 839.552 687.476 710.788 24.1854
4695.24 772.687 810.594 719.028 695.011 23.032
4698.14 818.78 831.756 678.528 744.236 24.0962
4701.04 903.801 879.862 835.151 781.912 25.5724
4703.95 917.005 874.472 832.058 799.163 26.3431
4706.85 802.61 860.559 730.28 782.71 23.615
4709.75 862.062 847.119 785.792 765.485 24.9947
4712.66 876.685 852.473 780.384 759.543 25.5974
4715.56 818.672 832.734 712.452 745.271 24.1101
4718.46 802.844 809.034 742.976 737.193 23.8355
4721.37 805.585 837.108 756.151 769.715 23.6463
4724.27 902.894 858.644 810.018 768.301 25.7343
4727.17 867.454 860.864 738.735 752.912 25.1682
4730.08 812.246 813.493 709.982 705.087 24.1357
4732.98 760.78 810.935 666.543 693.807 22.9945
4735.88 859.78 781.763 704.895 694.249 25.2941
4738.78 724.73 833.958 711.309 741.427 21.8356
4741.69 917.365 835.054 808.077 757.691 26.2293
4744.59 863.067 878.744 753.687 768.28 25.3013
4747.49 855.801 856.428 743.078 761.391 24.8502
4750.39 850.416 858.496 787.407 744.768 24.6689
4753.29 869.273 844.553 703.819 732.711 25.2341
4756.2 813.971 835.066 706.908 731.679 24.1915
4759.1 821.954 832.639 784.309 756.46 23.9808
4762 861.992 847.124 778.163 765.53 25.2468
4764.9 857.425 839.753 734.116 753.905 25.091
4767.81 799.842 827.841 749.436 728.583 23.6468
4770.71 826.257 840.463 702.196 753.123 24.2708
4773.61 895.291 842.455 807.737 747.812 25.7066
4776.51 805.817 848.86 733.502 774.947 23.744
4779.41 845.473 808.595 783.601 752.967 24.5658
4782.31 774.494 817.681 741.798 757.4 22.8477
4785.22 833.077 815.684 746.801 763.626 24.1712
4788.12 839.481 858.49 802.279 796.199 24.2758
4791.02 902.911 859.99 839.518 816.079 25.654
4793.92 837.579 851.278 806.44 785.225 23.9473
4796.82 813.345 840.729 709.718 776.681 23.7651
4799.72 871.263 831.069 813.884 768.079 24.9459
4802.62 808.601 892.32 780.635 821.983 23.5623
4805.52 997.098 914.84 871.43 824.488 27.608
4808.43 938.822 954.698 821.398 836.896 26.4117
4811.33 928.174 912.412 817.86 809.975 26.1172
4814.23 870.24 878.137 790.667 812.488 24.7827
4817.13 835.997 865.547 828.937 815.213 23.704
4820.03 890.405 868.364 826.035 817.754 24.7605
4822.93 878.69 895.101 798.29 811.154 24.91
4825.83 916.209 888.977 809.137 831.392 25.6825
4828.73 872.034 869.6 886.749 845.256 24.5246
4831.63 820.556 859.309 839.881 847.201 23.2228
4834.53 885.336 867.359 814.971 811.1 24.9385
4837.43 896.185 913.224 778.448 819.213 25.3772
4840.33 958.15 928.656 864.219 826.25 26.263
4843.23 931.632 915.566 836.084 854.564 26.1475
4846.13 856.917 894.532 863.389 839.015 24.4366
4849.03 895.047 883.883 817.573 842.496 25.2777
4851.93 899.684 887.616 846.525 831.062 25.5843
4854.83 868.118 899.105 829.087 859.656 24.9689
4857.73 929.513 883.285 903.356 844.924 26.1653
4860.63 852.225 895.449 802.329 841.187 24.87
4863.53 904.61 908.854 817.876 837.283 26.1398
4866.43 969.729 928.865 891.646 842.754 27.4262
4869.33 912.256 920.332 818.742 837.501 26.262
4872.23 879.01 883.917 802.115 812.483 25.5005
4875.13 860.484 892.259 816.592 825.517 24.9321
4878.03 937.283 893.897 857.843 831.233 26.6151
4880.93 883.924 913.139 819.263 845.986 25.5053
4883.83 918.211 911.549 860.852 852.765 26.2746
4886.73 932.514 908.905 878.18 882.571 26.3067
4889.63 875.99 938.584 908.679 908.533 24.6573
4892.53 1007.25 918.353 938.741 889.421 27.7848
4895.42 871.823 939.385 820.844 912.418 24.9132
4898.32 939.086 916.399 977.67 902.82 25.8937
4901.22 938.288 937.427 909.946 955.106 26.4529
4904.12 934.907 925.988 977.703 915.168 26.0465
4907.02 904.769 922.407 857.856 908.496 25.5151
4909.92 927.544 920.315 889.93 880.989 26.1096
4912.82 928.633 924.578 895.181 892.569 26.2307
4915.72 917.559 963.093 892.597 927.079 25.7955
4918.61 1043.09 960.667 993.459 908.714 28.632
4921.51 921.356 948.691 840.086 888.053 26.2734
4924.41 881.628 908.405 830.614 841.471 25.0565
4927.31 922.231 915.159 853.713 847.028 25.7911
4930.21 941.618 948.261 856.758 880.981 26.5386
4933.1 980.934 945.251 932.471 890.074 27.052
4936 913.202 928.152 880.994 878.814 25.6894
4938.9 890.319 911.588 822.979 858.279 25.1799
4941.8 931.244 904.71 870.863 839.718 26.1005
4944.7 892.566 899.669 825.311 852.209 25.25
4947.59 875.196 897.908 860.452 853.799 24.6148
4950.49 925.962 887.101 875.634 868.593 25.6702
4953.39 860.144 918.891 869.693 875.229 24.1035
4956.29 970.566 888.552 880.361 847.969 27.0395
4959.18 834.946 914.194 793.853 830.576 23.8491
4962.08 937.071 900.317 817.514 840.613 26.1892
4964.98 928.932 962.388 910.473 886.514 25.6324
4967.88 1021.16 996.066 931.555 942.732 27.738
4970.77 1038.1 1000.46 986.169 936.202 27.7079
4973.67 942.106 985.396 890.883 933.083 25.693
4976.57 975.978 969.062 922.195 919.299 26.6814
4979.46 989.102 999.965 944.819 941.973 26.8886
4982.36 1034.82 1019.24 958.906 965.458 28.077
4985.26 1033.79 1029.94 992.65 985.154 27.8555
4988.15 1021.2 994.661 1003.91 955.47 27.3834
4991.05 928.989 960.563 869.853 923.932 25.664
4993.95 931.498 962.42 898.036 910.822 25.4932
4996.84 1026.77 982.762 964.576 936.752 27.7435
4999.74 990.015 1003.11 947.643 977.541 26.8303
5002.64 992.535 983.46 1020.4 982.589 26.5474
5005.53 967.831 994.194 979.719 991.797 26.5627
5008.43 1022.22 992.877 975.267 962.911 27.4721
5011.32 988.583 1010.38 933.747 958.528 26.8752
5014.22 1020.34 1011.06 966.57 970.822 27.7841
5017.12 1024.26 1030.7 1012.15 1011.09 27.7061
5020.01 1047.49 1038.72 1054.55 1042.04 28.2052
5022.91 1044.4 1047.75 1059.42 1045.79 27.8711
5025.8 1051.36 1034.34 1023.42 1010.68 28.2947
5028.7 1007.25 1004.37 949.192 972.031 27.5097
5031.59 954.504 1015.22 943.482 984.359 26.2877
5034.49 1083.92 1037.61 1060.4 1021.85 28.9937
5037.39 1074.4 1069.93 1061.67 1031.72 28.6745
5040.28 1051.48 1058.35 973.08 1026.79 28.3385
5043.18 1049.15 1053.17 1045.63 1036.54 28.3414
5046.07 1058.87 1056.88 1090.92 1067.27 28.3264
5048.97 1062.61 1079.01 1065.27 1091.67 28.188
5051.86 1115.56 1069.7 1118.83 1062.21 29.3688
5054.76 1030.93 1054.5 1002.53 1055.15 27.752
5057.65 1017.02 1021.54 1044.08 1026.32 27.3408
5060.55 1016.66 1036.1 1032.34 1044.77 27.2972
5063.44 1074.62 1047.93 1057.89 1072.72 28.6408
5066.34 1052.52 1064.43 1127.92 1083.39 28.0008
5069.23 1066.17 1067.23 1064.36 1090.1 28.4888
5072.12 1083.02 1068.96 1078.01 1064.57 28.7566
5075.02 1057.68 1078.76 1051.32 1078.76 28.2871
5077.91 1095.59 1090.91 1106.94 1072.93 29.0033
5080.81 1119.47 1091.98 1060.53 1094.42 29.6911
5083.7 1060.89 1089.99 1115.78 1088.6 28.2095
5086.6 1089.61 1076.44 1089.51 1102.91 28.78
5089.49 1078.81 1076.45 1103.44 1098.47 28.3589
5092.38 1060.92 1070.16 1102.45 1104.78 28.3913
5095.28 1070.76 1083.89 1108.45 1115.91 28.3091
5098.17 1120.01 1097.36 1136.83 1108.64 29.4291
5101.06 1101.31 1101.95 1080.65 1105.07 28.9944
5103.96 1084.52 1096.3 1097.72 1113.61 28.8365
5106.85 1103.09 1097.45 1162.45 1123.8 29.051
5109.74 1104.76 1090.75 1111.23 1132.93 29.0649
5112.64 1064.39 1103.21 1125.11 1127.72 28.3449
5115.53 1140.48 1063.41 1146.83 1103.33 29.5484
5118.42 985.357 1043.44 1038.05 1101.22 26.6721
5121.32 1004.48 1028.05 1118.77 1111.26 27.0367
5124.21 1094.33 1082.83 1176.98 1136.86 28.7083
5127.1 1149.69 1107.02 1114.83 1117.22 30.1327
5130 1077.04 1128.71 1059.84 1105.64 28.6077
5132.89 1159.41 1140.64 1142.26 1136.52 30.1786
5135.78 1185.49 1146.42 1207.45 1141.22 30.3642
5138.67 1094.36 1134.88 1073.95 1154.17 28.7408
5141.57 1124.81 1116.59 1181.11 1137.15 29.1761
5144.46 1130.6 1118.2 1156.39 1160.82 29.2943
5147.35 1099.2 1126.88 1144.96 1164.35 28.7302
5150.24 1150.86 1135.76 1191.71 1166.33 29.6953
5153.14 1157.22 1160.13 1162.31 1183.2 29.7744
5156.03 1172.32 1161.77 1195.58 1180.8 29.9922
5158.92 1155.79 1139.89 1184.5 1158.75 29.8731
5161.81 1091.56 1103.88 1096.15 1133.15 28.7847
5164.7 1064.3 1114.83 1118.79 1127.53 28.4794
5167.6 1188.62 1114.01 1167.64 1118.11 31.2639
5170.49 1089.12 1161.83 1067.89 1145.71 29.2083
5173.38 1207.74 1133.21 1201.58 1151.21 31.5122
5176.27 1102.78 1125.3 1184.15 1179.09 29.0502
5179.16 1065.39 1108.76 1151.52 1176.59 28.4891
5182.05 1158.09 1121.12 1194.1 1191.79 30.4561
5184.94 1139.87 1166.74 1229.74 1221 29.6478
5187.84 1202.25 1175.92 1239.17 1227.34 31.0011
5190.73 1185.64 1195.51 1213.11 1244.82 30.4752
5193.62 1198.63 1171.13 1282.17 1223.08 30.4256
5196.51 1129.13 1151.45 1173.96 1221.97 29.0443
5199.4 1126.6 1135.84 1209.78 1199.07 28.7349
5202.29 1151.78 1122.82 1213.46 1190.6 29.5328
5205.18 1090.09 1123.13 1148.56 1187.62 28.4218
5208.07 1127.51 1114.28 1200.83 1172.07 29.3225
5210.96 1125.25 1143.21 1166.82 1198.82 29.2261
5213.85 1176.87 1134.96 1228.79 1204.09 30.0681
5216.74 1102.76 1155.13 1216.65 1220.53 28.4927
5219.63 1185.75 1118.52 1216.14 1174.86 30.0452
5222.52 1067.06 1095.38 1091.8 1147.76 27.9565
5225.41 1033.34 1095.47 1135.35 1143.29 26.8434
5228.3 1186.01 1091.53 1202.71 1164.07 30.2965
5231.19 1055.22 1128.34 1154.16 1165.05 27.7951
5234.08 1143.78 1096.03 1138.29 1158.86 29.7253
5236.97 1089.1 1117.87 1184.14 1175.38 28.1865
5239.86 1120.74 1109.31 1203.7 1193.35 28.5861
5242.75 1118.11 1118.07 1192.2 1195.64 28.8026
5245.64 1115.37 1093.33 1191.03 1174.75 28.8642
5248.53 1046.5 1078.93 1141.01 1149.24 27.3203
5251.42 1074.92 1060.16 1115.68 1115.47 28.0036
5254.31 1059.07 1063.8 1089.72 1112.02 27.4663
5257.2 1057.42 1062.37 1130.66 1140.23 27.6051
5260.09 1070.62 1081.53 1200.31 1180.32 27.8433
5262.98 1116.56 1083.9 1210 1200.44 28.8262
5265.86 1064.51 1067.03 1191.01 1178.74 28.0954
5268.75 1020.03 1062.4 1135.22 1159.13 27.4899
5271.64 1102.67 1115.13 1151.16 1174.94 28.9752
5274.53 1222.69 1152.07 1238.45 1178.46 31.0414
5277.42 1130.84 1175.33 1145.78 1206.2 29.2614
5280.31 1172.47 1144.07 1234.37 1192.48 29.9444
5283.2 1128.91 1158.38 1197.29 1217.12 29.2579
5286.08 1173.77 1149.42 1219.69 1206.43 29.9759
5288.97 1145.58 1154.37 1202.31 1203.8 29.3095
5291.86 1143.74 1144.59 1189.39 1197.76 29.5178
5294.75 1144.43 1188.51 1201.57 1234.42 29.1265
5297.64 1277.35 1201.06 1312.3 1281.08 31.8573
5300.52 1181.41 1209.34 1329.35 1297.21 29.485
5303.41 1169.26 1155.96 1249.97 1277.54 29.7445
5306.3 1117.2 1149.1 1253.3 1261.84 28.4288
5309.19 1160.84 1166.13 1282.25 1284.45 29.297
5312.07 1220.34 1189.85 1317.81 1294.69 30.4203
5314.96 1188.36 1215.08 1284.02 1297.37 29.6168
5317.85 1236.53 1217.68 1290.28 1304.83 30.7742
5320.74 1228.16 1239.13 1340.18 1319.14 30.7041
5323.62 1252.68 1235.08 1326.97 1335.34 31.0604
5326.51 1224.4 1251.46 1338.89 1339.6 30.4606
5329.4 1277.31 1196.38 1352.95 1289.55 31.696
5332.28 1087.44 1219.08 1176.81 1310.49 28.0748
5335.17 1292.49 1184.64 1401.71 1293.09 31.6835
5338.06 1173.98 1216.18 1300.75 1311.22 29.5265
5340.94 1182.08 1186.29 1231.2 1269.8 29.8608
5343.83 1202.83 1206.05 1277.44 1261.67 30.1779
5346.72 1233.24 1195.85 1276.37 1275.13 30.9831
5349.6 1151.49 1192.38 1271.57 1277.23 28.9143
5352.49 1192.41 1161.43 1283.75 1261.69 29.9159
5355.38 1140.38 1178.81 1229.74 1286.21 29.0415
5358.26 1203.63 1194.67 1345.15 1326.58 29.8488
5361.15 1240.01 1257.98 1404.84 1381.04 30.5664
5364.03 1330.29 1272.78 1393.13 1385.48 32.4922
5366.92 1248.04 1314.38 1358.46 1391.95 30.8313
5369.8 1364.8 1323.68 1424.25 1424.57 33.2689
5372.69 1358.21 1326.68 1490.99 1440.77 32.788
5375.58 1257.03 1278.43 1407.07 1395.45 30.9005
5378.46 1220.04 1230.51 1288.29 1346.51 30.4344
5381.35 1214.45 1210.8 1344.18 1332.08 30.0846
5384.23 1197.91 1243.26 1363.76 1374.92 29.8873
5387.12 1317.42 1284.02 1416.82 1426.54 32.1326
5390 1336.73 1340.74 1499.06 1471.41 32.2566
5392.89 1368.09 1348.97 1498.35 1479.09 32.9882
5395.77 1342.09 1355.98 1439.87 1481.5 32.6882
5398.66 1357.77 1354.17 1506.27 1475 32.9845
5401.54 1362.65 1336.41 1478.85 1455.56 33.2793
5404.42 1288.81 1296.15 1381.56 1407.27 32.0791
5407.31 1237 1282.83 1361.41 1380.75 30.9012
5410.19 1322.69 1275.17 1399.29 1356.64 32.6097
5413.08 1265.83 1310.83 1309.23 1386.45 31.6579
5415.96 1343.97 1277.77 1450.82 1362.29 32.7561
5418.85 1223.5 1271.71 1326.82 1392.22 30.5419
5421.73 1247.64 1263.55 1399.02 1387.27 30.796
5424.61 1319.5 1272.8 1435.96 1413.05 32.1658
5427.5 1251.27 1309.24 1404.16 1432.14 30.9012
5430.38 1356.94 1305.23 1456.3 1443.09 32.8198
5433.26 1307.47 1349.91 1468.82 1486.36 31.8503
5436.15 1385.31 1363.4 1533.97 1509.5 33.0814
5439.03 1397.43 1397.04 1525.73 1510.15 33.3352
5441.91 1408.39 1400.13 1470.74 1496.94 33.7075
5444.8 1394.57 1393.53 1494.35 1479.13 33.4927
5447.68 1377.65 1391.75 1472.3 1495.99 33.1679
5450.56 1403.04 1365.45 1521.32 1479.23 33.5162
5453.45 1315.66 1372.79 1444.08 1486.06 31.9855
5456.33 1399.68 1348.54 1492.79 1468.71 33.5418
5459.21 1330.28 1360.68 1469.26 1486.22 32.0409
5462.09 1352.09 1365.44 1496.62 1493.55 32.2972
5464.98 1413.95 1382.23 1514.78 1505.7 33.5732
5467.86 1380.66 1376.77 1505.69 1491.92 33.1624
5470.74 1335.7 1369.43 1455.3 1488.44 32.0325
5473.62 1391.92 1361.08 1504.32 1482.89 33.1334
5476.51 1355.61 1362.09 1489.06 1468.95 32.5493
5479.39 1338.73 1346.07 1413.46 1463.33 32.5175
5482.27 1343.86 1330.5 1487.48 1451.88 32.4491
5485.15 1308.9 1304.37 1454.7 1447.04 31.5937
5488.03 1260.36 1312.85 1398.93 1459.49 30.8361
5490.91 1369.28 1320.35 1524.84 1470.39 32.3958
5493.8 1331.41 1363.58 1487.39 1512.47 32.11
5496.68 1390.04 1351.67 1525.18 1484.16 32.8152
5499.56 1333.57 1350.55 1439.9 1486.47 32.1349
5502.44 1328.03 1323.16 1494.32 1474.73 31.8166
5505.32 1307.87 1325.63 1489.96 1500.67 31.3421
5508.2 1340.99 1364.88 1517.74 1552.58 32.0139
5511.08 1445.79 1396.31 1650.05 1551.18 33.5142
5513.96 1402.14 1395.96 1485.74 1532.94 33.2792
5516.84 1339.94 1367.4 1463.04 1514 32.0059
5519.73 1360.11 1384.65 1593.21 1534.9 32.0681
5522.61 1453.89 1415 1548.45 1582.93 33.9158
5525.49 1430.99 1408.77 1607.14 1553.92 33.2926
5528.37 1341.42 1379.79 1506.18 1524.64 31.8724
5531.25 1366.95 1351.15 1460.61 1494.04 32.6148
5534.13 1345.08 1371.88 1515.34 1511.51 32.11
5537.01 1403.62 1373.94 1558.58 1535.63 32.7334
5539.89 1373.13 1396.59 1532.97 1524.26 32.2794
5542.77 1413.02 1372.29 1481.24 1511.28 32.9458
5545.65 1330.72 1375.23 1519.62 1506.87 30.9349
5548.53 1381.95 1372.13 1519.74 1515.58 32.0477
5551.41 1403.72 1374.4 1507.38 1506.25 32.9386
5554.28 1337.53 1357.16 1491.62 1503.41 31.3108
5557.16 1330.23 1368.16 1511.22 1524.27 31.1479
5560.04 1436.71 1394.2 1569.98 1557.11 32.9291
5562.92 1415.66 1440.05 1590.13 1617.09 32.3512
5565.8 1467.77 1603.03 1691.16 1673.11 33.0596
5568.68 1925.65 1901.8 1738.05 1744.5 38.7423
5571.56 2311.98 2084.77 1804.29 1706.1 37.4037
5574.44 2016.7 1943.79 1575.96 1664.93 28.4236
5577.32 1502.7 1444.76 1614.53 1679.39 19.8203
5580.19 814.897 1052.46 1847.69 1701.85 11.4928
5583.07 839.796 863.482 1643.32 1699.37 13.3359
5585.95 935.752 981.725 1607.1 1608.12 16.744
5588.83 1169.63 1094.02 1573.94 1566.86 22.2328
5591.71 1176.68 1198.3 1519.56 1531.54 23.3355
5594.59 1248.61 1268.22 1501.12 1545.81 26.1458
5597.46 1379.37 1333.36 1616.76 1557.8 29.7697
5600.34 1372.12 1403.75 1555.51 1602.96 30.8801
5603.22 1459.77 1462.61 1636.62 1631.5 32.8723
5606.1 1555.93 1478.28 1702.35 1645.22 34.638
5608.97 1419.14 1476.49 1596.68 1630.3 32.7152
5611.85 1454.4 1409.96 1591.86 1562.26 33.4394
5614.73 1356.33 1419.89 1498.24 1559.64 31.8603
5617.61 1448.94 1424.31 1588.82 1569.48 33.1506
5620.48 1467.67 1488.12 1621.39 1626.63 33.5954
5623.36 1547.77 1460.13 1669.68 1628.7 34.9356
5626.24 1364.96 1450.17 1595.02 1614.6 31.6209
5629.11 1437.8 1445.8 1579.11 1637.3 33.403
5631.99 1534.63 1482.26 1737.77 1677.19 34.8035
5634.87 1474.34 1517.25 1714.69 1688.48 33.6919
5637.74 1542.76 1507.83 1612.96 1656.23 35.3462
5640.62 1506.39 1500.87 1641.03 1629.56 34.2069
5643.49 1453.46 1457.21 1634.7 1622.91 33.2105
5646.37 1411.78 1441.69 1593.01 1627.33 32.6358
5649.25 1459.83 1455.43 1654.28 1620.2 33.423
5652.12 1494.67 1463.93 1613.3 1625.14 34.0486
5655 1437.29 1450.68 1607.84 1612.62 33.1482
5657.87 1420.1 1431.88 1616.7 1610.97 32.9806
5660.75 1438.25 1437.35 1608.36 1628.04 33.0324
5663.63 1453.71 1435.85 1659.07 1605.33 33.4877
5666.5 1415.59 1403.4 1548.54 1594.95 32.8982
5669.38 1340.89 1387.55 1577.23 1558.74 31.2109
5672.25 1406.16 1426.16 1550.45 1599.6 32.3825
5675.13 1531.44 1423.64 1671.13 1590.26 34.7315
5678 1333.33 1421.09 1549.22 1609.12 30.9775
5680.88 1398.5 1396.91 1607.02 1576.98 32.1613
5683.75 1458.91 1415.51 1574.71 1578.89 33.4576
5686.62 1389.11 1456.08 1554.94 1601.41 31.7477
5689.5 1520.23 1460.53 1674.59 1637.51 34.197
5692.37 1472.25 1481.5 1683.01 1650.34 32.9731
5695.25 1452.03 1466.58 1593.42 1654.82 33.1899
5698.12 1475.46 1464.76 1688.04 1657.11 33.4194
5701 1466.79 1453.3 1689.86 1679.3 33.183
5703.87 1417.64 1442.86 1660.02 1666.74 32.3797
5706.74 1444.16 1440.89 1650.33 1664.61 32.981
5709.62 1460.87 1446.64 1683.47 1634.77 33.3861
5712.49 1434.9 1493.08 1570.52 1669.15 32.8766
5715.36 1583.46 1466.68 1753.47 1639.68 35.3623
5718.24 1381.69 1490.4 1595.04 1684.63 31.8603
5721.11 1506.05 1465.35 1705.39 1646.08 34.1726
5723.98 1508.31 1497.55 1637.82 1669.43 34.302
5726.86 1478.29 1492.95 1665.08 1656.25 33.7018
5729.73 1492.25 1457.31 1665.83 1643.3 33.9161
5732.6 1401.4 1462.46 1598.97 1649.18 32.3436
5735.48 1493.73 1460.49 1682.73 1644.5 33.8031
5738.35 1486.33 1491.74 1651.79 1673.74 33.8788
5741.22 1495.15 1471.23 1686.68 1663.1 33.5885
5744.09 1432.21 1478.63 1650.82 1676.49 32.9217
5746.97 1508.52 1470.18 1691.95 1668.11 34.573
5749.84 1469.82 1459.14 1661.56 1662.68 33.5287
5752.71 1399.09 1444.99 1634.53 1656.1 32.4074
5755.58 1466.05 1463.53 1672.23 1676.73 33.6001
5758.45 1525.43 1499.03 1723.43 1717.41 34.7099
5761.33 1505.61 1487.58 1756.58 1701.95 33.8506
5764.2 1431.7 1471.04 1625.83 1664.61 33.0037
5767.07 1475.81 1470.54 1611.42 1679.45 33.8042
5769.94 1504.09 1487.85 1801.11 1688.88 33.8568
5772.81 1483.65 1477.97 1654.1 1707.17 33.8152
5775.68 1446.16 1494.97 1666.3 1683.56 33.0254
5778.55 1555.11 1476.06 1730.28 1665.95 35.1401
5781.43 1426.92 1472.4 1601.25 1646.56 33.0471
5784.3 1435.18 1460.36 1608.15 1649.43 33.2204
5787.17 1519 1459.14 1738.89 1664.35 34.3664
5790.04 1423.26 1459.04 1646.02 1676.39 32.8042
5792.91 1434.87 1432.12 1644.27 1645.2 33.1508
5795.78 1438.23 1435.89 1645.3 1654.48 32.9358
5798.65 1434.58 1458.21 1673.86 1664.12 32.9447
5801.52 1501.81 1469.81 1673.2 1689.77 34.0579
5804.39 1473.02 1476.09 1722.24 1675.71 33.3203
5807.26 1453.45 1496.4 1631.67 1714.56 33.1935
5810.13 1562.73 1522.43 1789.76 1717.29 34.6598
5813 1551.11 1575.99 1730.45 1793.77 34.9303
5815.87 1614.13 1574.59 1861.1 1782.94 35.5015
5818.74 1558.53 1594.74 1757.26 1811.98 34.8085
5821.61 1611.57 1571.61 1817.57 1762.38 35.4964
5824.48 1544.72 1562.72 1712.3 1758.1 34.6332
5827.34 1531.88 1536.44 1744.43 1728.57 34.3047
5830.21 1532.73 1547.78 1728.99 1754.09 34.3323
5833.08 1578.72 1561.86 1788.85 1765.67 35.1008
5835.95 1574.13 1562.44 1779.19 1760.31 34.7351
5838.82 1534.47 1537.71 1712.88 1743.22 34.2881
5841.69 1504.53 1501.14 1737.6 1732.17 33.7484
5844.56 1464.41 1534.52 1746.02 1751.43 33.0458
5847.43 1634.61 1548.98 1770.66 1764.7 36.0742
5850.29 1547.93 1582.5 1777.41 1756.73 34.3183
5853.16 1564.96 1535.52 1722.13 1724.86 34.7822
5856.03 1493.66 1570.52 1675.05 1743.28 33.7089
5858.9 1652.93 1610.23 1832.65 1804.81 35.9936
5861.77 1684.09 1646.76 1906.74 1846.33 35.6317
5864.63 1603.26 1587.73 1799.61 1796.69 33.7867
5867.5 1475.85 1514.84 1683.72 1739.99 31.3107
5870.37 1465.41 1477.91 1736.65 1714.22 30.9923
5873.24 1492.47 1519.45 1722.28 1757.96 32.0523
5876.1 1600.47 1516.88 1814.94 1733.61 34.1035
5878.97 1457.7 1605.72 1663.6 1760.69 31.8932
5881.84 1759.01 1671.75 1803.52 1738.16 35.7324
5884.7 1798.54 1794.03 1747.37 1821.38 33.9099
5887.57 1824.54 1751.78 1913.25 1820.31 31.6795
5890.44 1632.27 1606.58 1800.3 1801.82 27.6768
5893.3 1362.93 1445.34 1691.9 1780.67 23.6895
5896.17 1340.83 1321.81 1849.8 1741.67 24.0126
5899.04 1261.68 1330.94 1683.3 1740.65 24.0437
5901.9 1390.32 1343.7 1688.86 1690.63 27.5473
5904.77 1379.12 1396.12 1699.72 1705.48 28.0471
5907.63 1418.93 1449.28 1727.85 1735.18 29.616
5910.5 1549.8 1505.46 1777.96 1742.51 32.1295
5913.37 1547.65 1558.84 1721.73 1764.38 32.405
5916.23 1579.06 1575.33 1793.44 1779.92 33.1391
5919.1 1599.27 1597.61 1824.61 1830.49 33.6103
5921.96 1614.5 1638.61 1873.43 1868.96 33.7468
5924.83 1702.05 1651.75 1908.85 1874.86 35.3911
5927.69 1638.7 1653.67 1842.31 1875.26 33.8607
5930.56 1620.26 1577.23 1874.62 1831.87 33.2192
5933.42 1472.73 1534.68 1778.66 1793.12 31.0804
5936.29 1511.04 1497.69 1726.08 1764.4 32.1493
5939.15 1509.3 1485.9 1788.45 1756.23 32.3395
5942.02 1437.36 1472.69 1754.17 1754.99 31.2397
5944.88 1471.4 1496.67 1722.33 1758.7 31.6727
5947.74 1581.26 1539.46 1799.58 1786.95 33.4069
5950.61 1565.71 1550.23 1838.92 1788.25 33.026
5953.47 1503.71 1527.34 1726.26 1776.46 31.7352
5956.34 1512.58 1537.93 1764.19 1761.82 32.2811
5959.2 1597.48 1555.36 1795 1803.62 34.0743
5962.06 1556.02 1581.37 1851.68 1836.03 33.5196
5964.93 1590.61 1571.38 1861.43 1839.79 33.999
5967.79 1567.52 1580.89 1806.28 1815.41 33.8407
5970.65 1584.53 1546.5 1778.53 1772.23 33.9066
5973.52 1487.45 1471.31 1731.89 1694.97 32.194
5976.38 1341.96 1366.33 1574.51 1598 29.9256
5979.24 1269.58 1313.4 1487.6 1526.53 28.8926
5982.11 1328.65 1332.76 1517.47 1549.02 30.2358
5984.97 1400.03 1381.02 1641.99 1581.21 31.6758
5987.83 1414.38 1435.99 1584.18 1631.24 32.1643
5990.69 1493.56 1463.84 1667.56 1623.32 33.4793
5993.56 1483.6 1492.51 1618.22 1666.72 33.4125
5996.42 1500.39 1504.49 1714.4 1690.35 33.4761
5999.28 1529.47 1528.63 1738.44 1769.01 33.8026
6002.14 1556.02 1524.91 1854.2 1793.15 33.7825
6005 1489.25 1505.96 1786.82 1802.58 33.0943
6007.86 1472.62 1480.03 1766.72 1742.71 32.9093
6010.73 1478.23 1479.56 1674.6 1741.74 33.3994
6013.59 1487.84 1490.69 1783.89 1763.62 33.1668
6016.45 1506.01 1502.54 1832.37 1810.63 33.7631
6019.31 1513.78 1520.93 1815.61 1840.49 33.9142
6022.17 1542.99 1509.89 1873.48 1818.26 34.4089
6025.03 1472.9 1536.88 1765.7 1833.22 33.2822
6027.89 1594.76 1523.92 1860.48 1805.94 35.2542
6030.75 1504.1 1544.09 1791.64 1810.71 33.6524
6033.61 1533.41 1517.54 1779.99 1786.69 34.2866
6036.47 1515.12 1528.18 1788.44 1786.31 34.2275
6039.33 1536.01 1535.7 1790.51 1790.4 34.5131
6042.2 1555.97 1523.36 1792.25 1777.24 34.9968
6045.06 1478.09 1515.22 1748.97 1788.92 33.6033
6047.92 1511.61 1520.09 1825.53 1799.26 34.113
6050.77 1570.57 1564.81 1823.28 1861.34 35.3934
6053.63 1612.25 1603.09 1935.21 1861.78 35.9476
6056.49 1626.45 1568.92 1826.85 1837.8 36.2788
6059.35 1468.05 1519.12 1751.34 1767.56 33.524
6062.21 1462.87 1494.75 1724.5 1745.54 33.6522
6065.07 1553.32 1515.39 1760.78 1770.58 35.0066
6067.93 1529.97 1553.78 1826.47 1788.58 34.4576
6070.79 1578.06 1562.16 1778.5 1827.4 35.4514
6073.65 1578.46 1561.13 1877.24 1816.66 35.4318
6076.51 1526.88 1563.17 1794.24 1844.29 34.8242
6079.37 1584.18 1561.58 1861.4 1828.31 35.6775
6082.22 1573.68 1572.64 1829.29 1819.98 35.7104
6085.08 1560.07 1569.15 1769.27 1786.21 35.625
6087.94 1573.71 1576.02 1760.09 1805.15 35.7246
6090.8 1594.3 1567.85 1886.09 1801.08 35.9536
6093.66 1535.55 1557.52 1757.05 1840.22 34.8652
6096.51 1542.72 1524.6 1877.52 1803.92 34.8134
6099.37 1495.51 1514.09 1777.18 1808.71 34.2077
6102.23 1504.05 1525.32 1771.43 1801.36 34.2344
6105.09 1576.41 1531.83 1855.47 1800.69 35.4154
6107.94 1515.02 1544.91 1775.17 1827.1 34.5739
6110.8 1543.31 1505.62 1850.65 1775.28 34.8852
6113.66 1458.53 1510.27 1700.03 1779.62 33.853
6116.52 1528.96 1520.27 1788.17 1777.36 34.8083
6119.37 1573.32 1545.33 1843.87 1819.56 35.662
6122.23 1533.71 1560.73 1826.64 1860.78 34.9299
6125.09 1575.17 1554.35 1911.83 1863.59 35.5707
6127.94 1554.18 1575.12 1852.28 1884.66 35.3439
6130.8 1596 1593.26 1889.87 1879.01 35.7625
6133.65 1629.61 1627.34 1894.88 1892.35 36.2897
6136.51 1656.41 1616.78 1892.29 1869.65 36.4204
6139.37 1564.33 1589.41 1821.76 1855.65 34.6952
6142.22 1547.47 1536.73 1852.89 1838.74 34.2182
6145.08 1498.37 1530.43 1841.56 1866.81 33.4681
6147.93 1545.45 1554.45 1905.97 1873.99 34.5604
6150.79 1619.52 1571.94 1874.43 1884.03 36.0673
6153.64 1550.85 1588.36 1871.67 1861.41 34.988
6156.5 1594.73 1587.02 1838.12 1866.3 35.9496
6159.35 1615.48 1581.64 1889.12 1837.42 36.212
6162.21 1534.71 1599.7 1785.03 1853.62 35.2656
6165.06 1648.9 1620.24 1886.71 1843.54 36.6907
6167.92 1677.11 1652.7 1858.88 1890.42 36.9369
6170.77 1632.1 1587.4 1925.68 1866.37 35.5425
6173.63 1452.99 1522.15 1814.56 1851.27 32.6159
6176.48 1481.34 1485.88 1813.57 1836.98 33.5046
6179.33 1523.3 1545.85 1882.81 1871.25 34.2632
6182.19 1632.9 1578.28 1917.38 1890.61 36.5075
6185.04 1578.63 1580.31 1871.63 1880.95 35.573
6187.9 1529.39 1527.79 1853.84 1822.45 34.5786
6190.75 1475.34 1518.77 1741.87 1818.11 34.1577
6193.6 1551.59 1503.87 1858.63 1788.09 35.0249
6196.46 1484.7 1522.93 1763.77 1785.33 34.0093
6199.31 1532.51 1520.89 1733.58 1779.21 34.7875
6202.16 1545.47 1524.34 1840.29 1788.36 34.4382
6205.01 1495.04 1524.61 1791.21 1815.49 33.806
6207.87 1533.31 1533.39 1814.96 1831.8 34.6723
6210.72 1571.82 1547.93 1889.23 1829.02 35.1095
6213.57 1538.64 1545.8 1782.88 1815.92 34.7019
6216.43 1526.93 1552.75 1775.66 1810.87 34.3523
6219.28 1592.7 1554.87 1874.07 1822.74 35.2825
6222.13 1544.97 1529.89 1818.48 1806.78 34.5798
6224.98 1452 1533.26 1727.8 1794.49 33.0743
6227.83 1602.81 1528.49 1837.18 1773.65 35.1472
6230.68 1530.66 1565.74 1755.97 1774.94 33.034
6233.54 1563.76 1539.28 1731.66 1756.32 32.2321
6236.39 1523.41 1533.57 1781.32 1795.07 30.9969
6239.24 1513.55 1505.93 1872.23 1822.01 30.9169
6242.09 1480.83 1496.89 1812.49 1819.15 31.0559
6244.94 1496.29 1505.49 1772.74 1790.34 32.1274
6247.79 1539.34 1525.78 1785.8 1765.47 33.5114
6250.64 1541.71 1527.81 1737.87 1728 33.5646
6253.49 1502.39 1517.05 1660.33 1698.95 32.6655
6256.34 1507.05 1469.2 1698.65 1678.08 31.9936
6259.19 1398.16 1444.86 1675.27 1704.96 29.8697
6262.04 1429.37 1404.89 1740.98 1717.57 30.6978
6264.89 1387.15 1389.9 1736.45 1723.79 30
6267.74 1353.2 1408.76 1693.95 1734.14 30.0024
6270.59 1485.93 1430.37 1772.02 1742.79 32.8268
6273.44 1451.97 1481.86 1762.39 1766.8 32.2913
6276.29 1507.68 1500.89 1766.01 1753.85 33.9736
6279.14 1543.03 1508.36 1733.14 1734.45 34.5214
6281.99 1474.37 1506.04 1704.19 1734.64 32.675
6284.84 1500.72 1457.08 1766.58 1708 32.3449
6287.69 1396.14 1504.12 1653.22 1747.41 30.6749
6290.54 1615.51 1624.11 1822.41 1727.67 33.8097
6293.39 1860.69 1741.7 1707.38 1763.39 35.0531
6296.24 1748.91 1728.97 1760.39 1747.08 30.0153
6299.08 1577.31 1550.3 1773.48 1775.34 25.5572
6301.93 1324.67 1341.34 1792.15 1765.44 21.8501
6304.78 1122.05 1187.15 1730.68 1714.86 19.9206
6307.63 1114.74 1131.64 1621.76 1679.79 21.5504
6310.48 1158.12 1199.5 1686.92 1678.42 23.6671
6313.32 1325.64 1270.52 1726.58 1685.66 28.0566
6316.17 1327.81 1397.61 1643.49 1705.49 29.4797
6319.02 1539.39 1461.05 1746.41 1709.79 33.7228
6321.87 1515.95 1531 1739.48 1737.48 33.1731
6324.71 1537.66 1531.48 1726.55 1755.72 33.4537
6327.56 1540.82 1475.76 1801.14 1709.01 32.8632
6330.41 1348.81 1423.64 1599.34 1700.95 29.7675
6333.25 1381.29 1389.99 1702.37 1690.07 30.7548
6336.1 1439.87 1418.25 1768.49 1747.9 32.284
6338.95 1433.59 1408.5 1772.83 1709.41 32.7384
6341.79 1352.05 1426.28 1586.9 1687.75 31.5646
6344.64 1493.2 1451.37 1703.53 1691.03 33.7383
6347.49 1508.84 1500.37 1782.67 1720.82 33.9169
6350.33 1499.06 1512.12 1676.26 1731.68 33.7408
6353.18 1528.46 1523.86 1736.12 1704.12 33.4045
6356.02 1544.05 1546.44 1699.98 1755.03 32.7708
6358.87 1566.81 1557.88 1829 1790.8 31.6637
6361.71 1562.79 1510.46 1843.42 1813.7 31.1727
6364.56 1401.79 1450.03 1768.68 1782.06 28.5831
6367.4 1385.5 1385.66 1734.08 1734.82 29.2992
6370.25 1369.68 1408.67 1701.7 1755.74 30.231
6373.09 1470.82 1431.77 1831.45 1734.41 32.6993
6375.94 1454.82 1448.99 1670.08 1714.01 33.0566
6378.78 1421.33 1475.68 1640.51 1709.58 32.5259
6381.63 1550.88 1492.13 1818.16 1739.78 34.6685
6384.47 1504.18 1512.91 1760.67 1773.42 33.9588
6387.32 1483.65 1459.56 1741.41 1725.42 33.6073
6390.16 1390.85 1458.79 1674.19 1719.39 32.3708
6393 1501.85 1469.07 1742.56 1723.6 34.7775
6395.85 1514.49 1501.12 1754.05 1738.86 35.4251
6398.69 1487.02 1516.66 1719.98 1758.2 34.8015
6401.53 1548.46 1514.83 1800.58 1768.88 35.8959
6404.38 1509.02 1534.12 1786.09 1792.19 35.3871
6407.22 1544.89 1518.57 1789.89 1784.88 35.9104
6410.06 1501.8 1527.47 1778.64 1785.65 35.0915
6412.91 1535.7 1490.52 1788.41 1740.85 35.4266
6415.75 1434.06 1518.23 1655.49 1756.01 33.7685
6418.59 1584.91 1498.9 1824.13 1740.15 36.2454
6421.43 1477.73 1555.18 1740.84 1824.54 34.3298
6424.28 1602.89 1510.31 1908.65 1771.51 36.3331
6427.12 1450.3 1518.63 1665.03 1788.45 34.2654
6429.96 1502.7 1453.39 1791.67 1709.65 34.9027
6432.8 1407.19 1493.5 1672.25 1733.74 33.6571
6435.64 1570.63 1501.86 1737.3 1730.82 36.6897
6438.49 1527.75 1522 1782.91 1749.29 35.7474
6441.33 1467.62 1496.12 1727.65 1747.49 34.5937
6444.17 1493 1472.27 1731.91 1712.83 35.1953
6447.01 1456.2 1480.89 1678.92 1718.6 34.4541
6449.85 1493.46 1489.59 1744.97 1737.27 34.9178
6452.69 1519.1 1518.28 1787.93 1746.32 35.2941
6455.53 1542.27 1534 1706.06 1752.06 35.9013
6458.37 1540.62 1529.3 1762.19 1708.17 34.9545
6461.21 1505 1525.37 1656.28 1716.28 33.6497
6464.05 1530.5 1514.35 1730.39 1713.66 32.9078
6466.89 1507.56 1506 1754.31 1750.15 32.1409
6469.73 1479.94 1478.33 1765.74 1777.5 32.0067
6472.57 1447.5 1448.73 1812.45 1779.79 31.4013
6475.41 1418.75 1445.58 1761.18 1780.07 31.8263
6478.25 1470.5 1469.33 1766.58 1780.68 33.1855
6481.09 1518.74 1496.4 1814.27 1795.29 34.7674
6483.93 1499.95 1522.57 1805.02 1800.42 34.7557
6486.77 1549.03 1498.25 1781.96 1746.58 36.1375
6489.61 1445.77 1519.67 1652.76 1705.29 34.2313
6492.45 1564.22 1513.43 1681.15 1673.17 35.3486
6495.29 1530.31 1559.76 1685.6 1722 33.3477
6498.12 1584.76 1522.47 1799.25 1754.04 33.2906
6500.96 1452.33 1484.8 1777.27 1783.97 30.836
6503.8 1417.31 1418.9 1775.4 1757.15 30.8585
6506.64 1387.06 1395.94 1718.77 1709.44 31.1924
6509.48 1383.46 1365.73 1634.14 1655.31 31.8218
6512.31 1326.67 1398.24 1613 1622.36 31.3877
6515.15 1484.59 1439.44 1619.93 1639.68 34.6574
6517.99 1507.05 1503.61 1686.11 1682.82 34.7695
6520.83 1519.19 1518.87 1742.43 1713.12 34.884
6523.66 1530.37 1530.42 1710.82 1760.16 34.9674
6526.5 1541.71 1519.21 1827.23 1732.41 34.3763
6529.34 1485.55 1505.44 1659.17 1757.63 33.0794
6532.17 1489.05 1444.64 1786.49 1702.82 32.3069
6535.01 1359.31 1425.11 1662.79 1714.51 30.4092
6537.85 1426.96 1447.02 1694.24 1721.92 32.0141
6540.68 1554.8 1485.12 1808.72 1743.58 34.3162
6543.52 1473.61 1521.26 1727.77 1744.72 33.0134
6546.36 1535.36 1499.03 1697.67 1696.81 33.9684
6549.19 1488.12 1503.85 1665 1699.65 32.4691
6552.03 1488.06 1438.24 1736.27 1687.01 32.0752
6554.86 1338.55 1442.02 1659.77 1728.23 29.4424
6557.7 1499.45 1449.84 1788.65 1719.3 32.5486
6560.53 1511.52 1492.91 1709.48 1740.28 33.4332
6563.37 1467.76 1482.73 1722.72 1726 32.6063
6566.2 1468.9 1479.07 1745.79 1714.56 32.94
6569.04 1500.54 1479.03 1675.16 1691.28 33.7307
6571.87 1467.66 1490.9 1652.88 1702.21 32.5582
6574.71 1504.51 1504.11 1778.6 1742.76 32.7411
6577.54 1540.15 1467.88 1796.78 1739.14 33.0864
6580.38 1358.98 1444.72 1642.03 1714.35 30.8722
6583.21 1435.04 1430.18 1704.24 1706.51 32.9419
6586.04 1496.52 1464.98 1773.27 1710.88 34.3987
6588.88 1463.38 1455.85 1655.12 1679.58 34.3586
6591.71 1407.66 1441.7 1610.35 1642.06 33.3636
6594.54 1454.06 1469.89 1660.71 1670.6 34.1185
6597.38 1547.96 1478.45 1740.75 1684.67 35.092
6600.21 1433.34 1491.38 1652.56 1700.05 32.853
6603.04 1492.83 1463.13 1706.84 1705.9 33.7592
6605.88 1463.21 1458.9 1758.31 1717.12 33.2741
6608.71 1420.65 1471.98 1686.21 1753.54 33.3251
6611.54 1532.08 1467.14 1816.11 1722.93 35.4681
6614.37 1448.68 1535.73 1666.47 1795.43 34.6972
6617.21 1626.44 1527.45 1903.7 1784.63 37.2388
6620.04 1507.24 1562.6 1783.73 1814.84 35.3125
6622.87 1554.11 1564.46 1757.09 1784.29 36.395
6625.7 1632.04 1569.22 1812.04 1766.98 37.4516
6628.53 1521.5 1583.79 1731.81 1778.4 35.2608
6631.37 1597.84 1554.93 1791.36 1772.59 36.3185
6634.2 1545.44 1547.06 1794.61 1768.16 35.5589
6637.03 1497.9 1523.3 1718.51 1805.15 35.0066
6639.86 1526.56 1533.72 1902.33 1820.29 35.2388
6642.69 1576.69 1589.28 1840.02 1910.77 36.5511
6645.52 1664.59 1646.12 1989.98 1925.68 38.0473
6648.35 1697.07 1646.28 1947.05 1946 38.5841
6651.18 1577.19 1668.73 1900.96 1946.43 36.3565
6654.01 1731.95 1836.09 1991.28 2135.96 38.9198
6656.84 2199.13 2136.41 2515.65 2473.82 45.1496
6659.67 2478.15 2417.03 2914.52 2818.63 48.2255
6662.5 2573.81 2526.43 3025.71 2924.03 49.0287
6665.33 2527.32 2419.82 2831.86 2755.87 48.7277
6668.16 2158.33 2194.37 2410.04 2477.38 44.4413
6670.99 1897.45 1930.65 2190.26 2201.09 41.026
6673.82 1736.17 1795.11 2002.99 2067.54 38.9358
6676.65 1751.71 1796.99 2009.37 2068.13 39.2369
6679.48 1903.09 1839.69 2192.05 2125.71 41.5401
6682.31 1864.26 1897.27 2175.71 2191.57 40.8201
6685.13 1924.46 1874.77 2206.95 2161.74 41.8075
6687.96 1835.58 1809.05 2102.56 2071.35 40.5823
6690.79 1667.09 1717.07 1904.53 1955.01 37.9044
6693.62 1648.54 1632.44 1857.94 1872.73 38.2063
6696.45 1581.68 1610.09 1855.71 1843.83 36.7969
6699.27 1600.03 1568.33 1817.85 1813.48 37.2145
6702.1 1523.29 1587.48 1766.89 1840.09 35.7686
6704.93 1639.13 1565.42 1935.52 1818.64 37.57
6707.76 1533.85 1582.55 1753.52 1823.58 36.2949
6710.58 1574.67 1546.57 1781.69 1779.59 36.7851
6713.41 1531.2 1556.37 1803.56 1801.05 35.811
6716.24 1563.25 1561.39 1817.89 1823.38 36.2174
6719.06 1589.71 1589.34 1848.69 1850 36.954
6721.89 1615.07 1604.01 1883.43 1865.62 37.5572
6724.72 1607.25 1603.27 1864.76 1853.75 37.166
6727.54 1587.48 1603.85 1813.05 1836.46 37.1331
6730.37 1616.82 1567.74 1831.58 1790.47 37.3274
6733.19 1498.92 1535.21 1726.77 1752.3 35.9056
6736.02 1489.9 1506.49 1698.56 1725.97 35.3779
6738.85 1530.67 1518.6 1752.57 1754.46 35.9469
6741.67 1535.24 1538.91 1812.25 1775.44 35.8057
6744.5 1550.83 1533.71 1761.5 1766.3 36.4023
6747.32 1515.05 1533.19 1725.15 1747.95 35.9851
6750.15 1533.7 1523.46 1757.2 1728.23 36.3816
6752.97 1521.63 1570.42 1702.33 1776.54 36.1771
6755.8 1655.91 1579.66 1870.09 1781.55 38.1906
6758.62 1561.42 1562.69 1772.24 1773.4 36.746
6761.44 1470.72 1560.73 1677.87 1768.46 35.3149
6764.27 1650.03 1540.27 1855.27 1744.7 38.0935
6767.09 1500.05 1587.27 1700.98 1796.7 36.1974
6769.92 1611.71 1548.19 1833.84 1765.92 37.8575
6772.74 1532.79 1565.71 1762.93 1785.82 36.5285
6775.56 1552.63 1545.18 1760.7 1743.13 36.9321
6778.39 1550.12 1550.16 1705.75 1741.4 37.0614
6781.21 1547.73 1571.55 1757.77 1762.21 36.5686
6784.03 1616.82 1601.8 1823.12 1803.5 37.6392
6786.86 1640.85 1633.39 1829.6 1843.45 38.1888
6789.68 1642.5 1614.19 1877.62 1824.7 38.3305
6792.5 1559.23 1595.48 1766.89 1821.08 37.0809
6795.32 1584.72 1580.71 1818.73 1799.28 37.1695
6798.15 1598.2 1611.43 1812.23 1845.99 37.4053
6800.97 1651.37 1589.61 1907.02 1817.19 38.1333
6803.79 1519.26 1562.28 1732.33 1805.16 36.2345
6806.61 1516.21 1530.49 1776.14 1757.02 36.1277
6809.43 1556 1584.15 1762.6 1795.08 36.7873
6812.25 1680.23 1641.05 1846.48 1852.43 38.9477
6815.08 1686.9 1743.07 1948.21 1950.52 38.8359
6817.9 1862.09 1810.1 2056.87 1975.53 41.0624
6820.72 1881.32 1881.11 1921.53 1958.47 40.6019
6823.54 1899.92 1893.45 1897.02 1907.08 38.4756
6826.36 1899.1 1833.06 1902.69 1890.34 35.9377
6829.18 1700.17 1705.29 1871.3 1846.28 31.3963
6832 1516.59 1573.63 1764.84 1847.28 28.2625
6834.82 1504.14 1514.6 1905.7 1851.92 28.6547
6837.64 1523.08 1489.48 1885.21 1847.86 30.4944
6840.46 1441.23 1452.3 1752.66 1778.11 30.6778
6843.28 1392.58 1417.24 1696.47 1719.99 31.2236
6846.1 1417.92 1415.42 1710.84 1688.83 32.7468
6848.92 1435.75 1462.29 1659.18 1715.01 34.125
6851.74 1533.21 1519.13 1775.02 1705.12 35.8358
6854.56 1588.44 1617.19 1681.15 1717.55 36.4405
6857.37 1729.93 1650.63 1696.48 1693.92 36.2854
6860.19 1633.5 1577.09 1704.14 1677.02 32.2552
6863.01 1367.83 1341.17 1630.44 1582.16 26.675
6865.83 1022.19 1155.49 1411.9 1486.11 21.8083
6868.65 1076.45 1040.39 1416 1400 24.3249
6871.47 1022.53 1084.75 1372.09 1380.37 24.574
6874.28 1155.27 1134.28 1353.01 1355.13 28.4707
6877.1 1225.05 1240.3 1340.3 1406.39 30.5587
6879.92 1340.58 1305.38 1525.84 1470.52 32.5048
6882.74 1350.51 1356.31 1545.42 1542.52 31.9933
6885.55 1377.85 1335.1 1556.3 1537.08 32.4414
6888.37 1276.93 1311.15 1509.52 1538.54 30.4359
6891.19 1278.66 1318.13 1549.78 1523.42 30.4088
6894 1398.79 1332.93 1510.96 1533.61 33.2761
6896.82 1321.32 1361.78 1540.1 1518.16 31.2984
6899.64 1365.23 1331.75 1503.43 1515.53 32.4188
6902.45 1308.69 1363.69 1503.06 1526.39 31.4287
6905.27 1417.15 1395.37 1572.69 1561.26 33.1359
6908.08 1460.25 1447.77 1608.04 1609.34 33.2946
6910.9 1465.89 1484.23 1647.29 1666.2 32.8115
6913.72 1526.53 1487.06 1743.27 1675.38 33.7319
6916.53 1468.76 1497.65 1635.57 1675.88 32.1369
6919.35 1497.68 1458.62 1648.79 1610.6 31.7757
6922.16 1409.44 1406.07 1547.43 1634.02 29.9658
6924.98 1311.11 1339.45 1705.84 1617.55 28.4816
6927.79 1297.8 1346.74 1599.37 1625.94 29.7382
6930.6 1431.31 1389.57 1572.62 1593.14 33.3001
6933.42 1439.61 1441.19 1607.43 1574.07 33.3619
6936.23 1452.66 1455.16 1542.17 1588.43 33.2393
6939.05 1473.21 1473.95 1615.68 1579.32 33.228
6941.86 1495.99 1507.14 1580.09 1613.13 32.9085
6944.67 1552.22 1489.2 1643.62 1598.04 32.6363
6947.49 1419.37 1398.85 1570.41 1575.64 29.74
6950.3 1224.94 1326.51 1512.89 1560.82 26.6908
6953.11 1335.2 1298.54 1599.16 1569.93 29.8157
6955.93 1335.48 1357.08 1597.74 1609.65 31.1167
6958.74 1400.56 1409.8 1632.03 1622.16 33.2899
6961.55 1493.36 1462.55 1636.7 1632.79 35.3089
6964.37 1493.73 1488.62 1629.64 1630.66 34.9913
6967.18 1478.78 1489 1625.66 1613.33 34.1999
6969.99 1494.48 1496.21 1584.7 1615.68 34.0194
6972.8 1515.36 1489.41 1636.68 1629.74 33.5621
6975.61 1458.39 1481.93 1667.84 1658.65 31.5251
6978.42 1472.04 1436.99 1671.43 1649.4 32.0717
6981.24 1380.55 1391.79 1608.92 1639.29 31.4995
6984.05 1322.78 1379.77 1637.53 1625.87 31.201
6986.86 1435.97 1389.54 1631.17 1618.26 34.3769
6989.67 1409.88 1442.78 1586.1 1625.47 34.5995
6992.48 1482.48 1458.33 1659.15 1617.63 36.0268
6995.29 1482.63 1475.81 1607.66 1623.21 36.1697
6998.1 1462.33 1483.49 1602.82 1618.66 35.18
7000.91 1505.52 1460.02 1645.5 1599.52 35.7128
7003.72 1412.22 1450.38 1550.25 1579.46 33.8664
7006.53 1433.4 1414.33 1542.62 1558.23 33.8325
7009.34 1397.36 1401.43 1581.81 1580.89 32.4569
7012.15 1373.51 1387.4 1618.25 1623.5 32.2939
7014.96 1391.32 1376.02 1670.44 1625.64 33.2356
7017.77 1363.24 1403.26 1588.22 1632.35 33.6056
7020.58 1455.21 1422.76 1638.38 1612.57 35.7209
7023.39 1449.83 1422.1 1611.12 1598.05 35.9568
7026.2 1361.26 1407.13 1544.65 1589.78 34.4221
7029 1410.29 1372.69 1613.56 1546.83 35.0091
7031.81 1346.51 1394.03 1482.27 1549.96 34.2822
7034.62 1425.28 1412.83 1554.05 1555.51 35.5353
7037.43 1466.69 1432.63 1630.22 1568.78 35.8268
7040.24 1405.93 1445.39 1522.08 1570.47 34.6316
7043.04 1463.55 1436.69 1559.11 1557.48 34.7505
7045.85 1440.59 1405.87 1591.24 1551.76 33.9962
7048.66 1313.48 1383.49 1504.94 1554.79 31.6748
7051.47 1396.39 1358.33 1568.18 1538.68 33.6473
7054.27 1365.13 1376.36 1542.92 1552.29 33.3981
7057.08 1367.55 1373.18 1545.77 1555.7 34.0739
7059.89 1386.87 1370.3 1578.42 1543.66 34.406
7062.69 1356.48 1382.53 1506.8 1582.86 33.9718
7065.5 1404.25 1360.29 1663.35 1575.84 34.3975
7068.31 1320.15 1369.54 1557.36 1600.04 32.9303
7071.11 1384.21 1347.59 1579.41 1552.58 34.1876
7073.92 1338.42 1387.05 1520.97 1569.62 33.6347
7076.72 1438.51 1398.54 1608.48 1601.57 35.2003
7079.53 1418.7 1435.59 1675.25 1619.59 34.4369
7082.33 1449.55 1418.17 1575.03 1612.74 35.1387
7085.14 1386.25 1401.45 1587.95 1572.2 33.8633
7087.94 1368.55 1382.03 1553.62 1572.44 33.6053
7090.75 1391.28 1377.7 1575.74 1559.68 34.4594
7093.55 1373.27 1371.54 1549.69 1561.62 34.2795
7096.36 1350.09 1347.86 1559.43 1539.69 34.1049
7099.16 1320.23 1338.44 1509.94 1520.9 33.5525
7101.97 1345.01 1328.22 1493.33 1497.77 34.2936
7104.77 1319.42 1351.91 1490.05 1513.94 33.7675
7107.57 1391.31 1382.79 1558.45 1549.97 34.9284
7110.38 1437.63 1382.36 1601.42 1521 35.8343
7113.18 1318.15 1367.54 1403.15 1507.78 34.0163
7115.98 1346.85 1339.84 1518.77 1482.01 34.5307
7118.79 1354.52 1353.93 1524.11 1532.77 34.6109
7121.59 1360.42 1354.64 1555.43 1528.37 34.5081
7124.39 1348.97 1361.66 1505.57 1528.31 34.2347
7127.19 1375.59 1330.66 1523.94 1489.25 34.4348
7130 1267.4 1342.69 1438.23 1507.02 32.6886
7132.8 1385.08 1343 1558.9 1508.35 34.6805
7135.6 1376.51 1393.36 1527.91 1542.01 34.5894
7138.4 1418.5 1420.4 1539.22 1544.76 35.3706
7141.2 1466.18 1413.58 1567.16 1540.19 36.023
7144 1356.05 1363.21 1514.21 1508.74 33.757
7146.81 1267.39 1297.79 1444.85 1461.32 32.1823
7149.61 1269.91 1295.47 1424.9 1460.15 32.6434
7152.41 1349.1 1336.57 1510.71 1531.07 33.9366
7155.21 1390.7 1361.63 1657.6 1556.5 34.6561
7158.01 1345.1 1381.86 1501.18 1566.99 34.5736
7160.81 1409.77 1347.96 1542.19 1493.77 35.3407
7163.61 1289 1305.83 1437.94 1452.42 33.3188
7166.41 1218.73 1240.76 1377.13 1384.47 32.1365
7169.21 1214.54 1213.07 1338.33 1363.75 32.3694
7172.01 1205.92 1193.55 1375.8 1315 32.1706
7174.81 1160.2 1175.65 1230.87 1300.25 31.5099
7177.61 1160.84 1144.21 1294.1 1271.59 31.4877
7180.41 1111.6 1141.21 1289.81 1297.54 30.5292
7183.2 1151.19 1132.2 1308.71 1260.5 31.743
7186 1133.8 1151.58 1182.96 1258.61 31.6899
7188.8 1169.76 1123.2 1284.14 1221.5 32.3863
7191.6 1066.04 1119.94 1197.39 1228.04 30.7233
7194.4 1124.04 1111.05 1202.58 1211.33 31.7732
7197.2 1143.07 1110.97 1234.03 1224.68 31.9163
7199.99 1065.81 1177.62 1237.44 1294 30.4342
7202.79 1323.98 1194.23 1410.54 1315.64 35.2446
7205.59 1192.91 1216.99 1298.95 1323.37 32.8344
7208.39 1134.08 1204.88 1260.63 1341.83 31.6824
7211.18 1287.64 1226.16 1465.91 1368.28 34.0492
7213.98 1256.76 1282.98 1378.29 1420.73 33.7571
7216.78 1304.55 1283.25 1418 1398.45 34.3946
7219.57 1288.46 1270.82 1399.06 1366.73 33.7745
7222.37 1219.45 1246.52 1283.14 1348.88 32.5312
7225.17 1231.67 1215.43 1364.45 1315.65 32.6352
7227.96 1195.16 1264.02 1299.35 1301.74 31.9887
7230.76 1365.25 1390.96 1241.43 1273.15 34.1811
7233.55 1612.49 1569.28 1278.67 1282.25 34.6425
7236.35 1730.1 1573.47 1326.66 1258.04 32.4718
7239.14 1377.83 1387.89 1168.8 1224.42 24.0489
7241.94 1055.73 1089.28 1177.8 1179.26 18.1616
7244.73 834.294 832.508 1191.18 1224.51 15.1773
7247.53 607.504 720.256 1304.55 1214.37 12.1213
7250.32 718.968 743.022 1147.39 1250.24 15.9081
7253.12 902.595 860.332 1298.8 1221.09 20.9978
7255.91 959.432 943.242 1217.08 1224.05 23.9882
7258.71 967.7 1014.9 1156.26 1208.12 25.8077
7261.5 1117.57 1060.48 1251.02 1207.31 29.5577
7264.29 1096.18 1181.09 1214.66 1194.93 29.4835
7267.09 1329.5 1360.02 1119.1 1186.27 33.2108
7269.88 1654.38 1438.73 1225.05 1165.53 34.4776
7272.67 1332.32 1385.44 1152.42 1202.78 25.3476
7275.47 1169.63 1131.11 1230.86 1217.82 21.1959
7278.26 891.398 970.671 1270.17 1251.64 16.6268
7281.05 850.987 885.463 1253.88 1279.26 16.4106
7283.84 914.005 870.658 1313.73 1273.7 18.6791
7286.63 846.982 894.203 1253.49 1278.14 19.1435
7289.43 921.622 951.488 1267.21 1277.32 22.2069
7292.22 1085.86 1031.29 1311.27 1260.33 26.1797
7295.01 1086.38 1143.48 1202.51 1257.22 26.9691
7297.8 1258.21 1165.43 1257.89 1211.4 29.9042
7300.59 1151.7 1151.57 1173.8 1217.23 27.3623
7303.38 1044.78 1076.39 1220 1183.07 25.0792
7306.17 1032.69 1175.9 1155.41 1196.35 25.1988
7308.96 1450.23 1305.92 1213.64 1177.94 31.4308
7311.76 1434.85 1363 1164.78 1194.35 28.7629
7314.55 1203.92 1156.02 1204.62 1219.1 23.347
7317.34 829.282 991.636 1287.91 1276.26 16.7893
7320.13 941.704 996.715 1336.25 1330.5 20.4882
7322.92 1219.16 1103.66 1367.34 1339.67 26.6839
7325.7 1150.12 1163.07 1315.43 1307.09 25.5707
7328.49 1119.93 1144.32 1238.49 1294.07 25.0276
7331.28 1162.91 1308.29 1328.29 1309.47 26.032
7334.07 1642.04 1389.63 1361.63 1285.91 32.9361
7336.86 1363.93 1416.28 1167.8 1284.27 25.8846
7339.65 1242.88 1156.05 1323.37 1255.95 22.3962
7342.44 861.345 952.479 1276.68 1318.17 16.5709
7345.23 753.215 854.716 1354.45 1321.1 16.3945
7348.01 949.589 967.488 1332.19 1315.82 22.3179
7350.8 1199.66 1118.22 1260.83 1258.9 28.7438
7353.59 1205.4 1236.58 1183.67 1245.92 28.4837
7356.38 1304.67 1256.71 1293.27 1254.22 29.2039
7359.16 1260.06 1301.87 1285.73 1246.02 28.1698
7361.95 1340.87 1333.33 1159.05 1238.03 29.0817
7364.74 1399.06 1349.38 1269.33 1218.74 28.3267
7367.52 1308.22 1237.37 1227.83 1270.07 25.6277
7370.31 1004.84 1075.05 1313.07 1291.14 20.2598
7373.1 912.087 942.853 1332.53 1290.19 20.3812
7375.88 911.63 968.802 1224.98 1286.43 22.5353
7378.67 1082.69 1042.14 1301.79 1263.36 27.7993
7381.46 1132.09 1146.41 1263.31 1268.15 29.9985
7384.24 1224.46 1206.39 1239.35 1246.79 31.9271
7387.03 1262.62 1234.74 1237.71 1240.84 30.9955
7389.81 1217.14 1244.27 1245.46 1234.98 28.9862
7392.6 1253.03 1277.11 1221.78 1227.03 29.1665
7395.38 1361.17 1289.91 1213.84 1231.86 30.0196
7398.17 1255.54 1230.7 1259.97 1222.63 26.8465
7400.95 1075.4 1090.7 1194.09 1266.16 23.1346
7403.73 941.153 1014.66 1344.4 1280.36 21.1474
7406.52 1027.43 1004.02 1302.58 1306.47 24.5904
7409.3 1043.47 1058.48 1272.42 1263.63 26.6792
7412.09 1104.55 1094.64 1215.89 1224.92 29.3717
7414.87 1135.9 1134.26 1186.46 1210.98 30.8171
7417.65 1162.35 1181.62 1230.61 1222.56 31.5992
7420.44 1246.63 1206.55 1250.61 1222.55 33.2335
7423.22 1210.67 1244.58 1186.42 1225.8 31.716
7426 1276.43 1241.11 1240.37 1202.12 32.0701
7428.78 1236.24 1264.27 1179.58 1247.05 30.8432
7431.57 1280.14 1257.7 1321.21 1240.93 30.6969
7434.35 1256.73 1246.15 1222.01 1258.11 29.5136
7437.13 1201.58 1202.02 1231.1 1249.01 28.2669
7439.91 1147.74 1138.08 1293.92 1258.06 27.4097
7442.69 1064.92 1112.77 1249.15 1282.98 27.0406
7445.48 1125.65 1124.46 1305.88 1271.54 29.4798
7448.26 1182.82 1174.5 1259.59 1283.16 31.5154
7451.04 1215.03 1195.51 1283.99 1254.43 32.5951
7453.82 1188.67 1224.45 1219.71 1252.85 32.2759
7456.6 1269.65 1244.8 1254.84 1233.9 33.2192
7459.38 1276.08 1275.24 1227.15 1234.09 32.4956
7462.16 1280 1310.26 1220.28 1243.06 31.8146
7464.94 1374.71 1321.38 1281.73 1265.68 32.6356
7467.72 1309.44 1271.79 1295.01 1228.14 30.0852
7470.5 1131.22 1204.74 1107.68 1209.76 26.1801
7473.28 1173.56 1199.58 1226.58 1209.46 26.5681
7476.06 1293.96 1234.9 1294.13 1246.77 28.3978
7478.84 1237.17 1236.2 1219.59 1260.44 27.0742
7481.62 1177.48 1144.43 1267.61 1234.16 25.986
7484.39 1018.62 1091.36 1215.27 1241.44 23.9752
7487.17 1077.99 1065.09 1241.45 1254.82 26.4858
7489.95 1098.65 1106.45 1307.76 1235.72 27.6072
7492.73 1142.72 1120.13 1157.96 1221.06 29.603
7495.51 1119 1110.9 1197.47 1173.68 29.8226
7498.28 1070.97 1115.9 1165.6 1197.48 29.3836
7501.06 1157.75 1137.76 1229.36 1203.52 31.4864
7503.84 1184.57 1172.68 1215.59 1214.12 32.4084
7506.62 1175.74 1197.64 1197.41 1231.97 32.2853
7509.39 1232.6 1204.97 1282.92 1221.27 33.1782
7512.17 1206.55 1282.73 1183.47 1230.8 32.6668
7514.95 1409.02 1372.96 1225.99 1205.14 35.1959
7517.72 1503.29 1452.18 1205.96 1218.61 33.7761
7520.5 1444.23 1413.23 1223.88 1198.58 29.6632
7523.27 1292.15 1197.83 1165.91 1187.52 25.8247
7526.05 857.094 1050.81 1172.77 1218.09 18.0119
7528.83 1003.18 952.075 1315.59 1233.48 21.8016
7531.6 995.952 1018.74 1212.09 1247.13 23.7368
7534.38 1057.08 1021.94 1213.71 1170.08 26.5019
7537.15 1012.78 1053.95 1084.44 1156.22 26.87
7539.93 1092 1070.77 1170.5 1135.74 29.2647
7542.7 1107.53 1094.94 1152.27 1161.09 29.8161
7545.47 1085.28 1110.18 1160.5 1153.62 29.9378
7548.25 1137.72 1128.97 1148.08 1146.52 30.8495
7551.02 1163.91 1159.17 1130.99 1129.13 31.0855
7553.8 1175.88 1158.31 1108.33 1123.28 30.7546
7556.57 1135.14 1124.17 1130.53 1123.97 29.3417
7559.34 1061.49 1138.84 1133.05 1171.93 27.9317
7562.12 1219.88 1195.51 1252.21 1183.9 31.326
7564.89 1305.16 1296.85 1166.43 1205.44 31.9299
7567.66 1365.51 1269.02 1197.69 1165.33 30.7003
7570.43 1136.38 1163.48 1131.88 1151.62 25.1319
7573.21 988.539 1010.18 1125.3 1148.15 22.5641
7575.98 905.618 978.832 1187.28 1135.92 22.3996
7578.75 1042.34 1020.22 1095.18 1156.62 26.8357
7581.52 1112.7 1086.77 1187.4 1134.29 28.3558
7584.29 1105.28 1075.12 1120.29 1137.84 28.4997
7587.07 1007.37 1000.5 1105.85 1079.77 26.5747
7589.84 888.847 894.593 1013.19 976.858 25.3465
7592.61 787.56 753.443 811.537 782.716 23.7517
7595.38 583.922 598.716 523.422 591.939 19.5226
7598.15 424.666 426.802 440.856 427.402 15.2093
7600.92 271.819 300.521 317.926 349.116 11.4542
7603.69 205.077 271.152 288.566 316.895 10.1342
7606.46 336.56 332.516 344.192 342.095 15.9741
7609.23 455.911 486.846 393.526 424.202 20.3397
7612 668.066 642.28 534.888 560.754 24.8123
7614.77 802.862 745.722 753.848 669.688 25.7467
7617.54 766.238 761.992 720.329 729.164 23.778
7620.31 716.876 720.424 713.314 709.888 22.4165
7623.08 678.159 660.16 696.02 668.194 21.1591
7625.84 585.444 609.255 595.249 622.673 18.957
7628.61 564.162 557.169 576.749 597.209 18.4622
7631.38 521.9 543.494 619.63 595.85 17.8428
7634.15 544.419 574.699 591.17 622.23 19.8925
7636.92 657.778 643.409 655.888 660.74 23.5335
7639.68 728.03 700.136 735.16 694.957 25.4361
7642.45 714.601 732.113 693.823 727.18 25.7226
7645.22 753.708 765.877 752.557 728.127 25.9769
7647.99 829.32 806.201 738.002 768.678 27.0797
7650.75 835.574 865.908 815.475 813.968 26.3513
7653.52 932.828 912.993 888.427 867.957 28.1711
7656.28 970.578 966.104 899.969 909.049 27.9893
7659.05 994.906 961.143 938.752 934.027 27.5826
7661.82 917.945 953.636 963.361 937.951 25.4219
7664.58 948.058 937.284 911.739 952.752 26.7576
7667.35 945.849 971.118 983.155 975.155 27.3454
7670.11 1019.45 993.71 1030.57 994.41 29.939
7672.88 1015.84 1024.93 969.505 1004.64 30.1646
7675.64 1039.51 1018.37 1013.84 978.738 30.5868
7678.41 999.775 1028.27 952.867 991.179 29.5655
7681.17 1045.53 1014.01 1006.83 985.876 30.2848
7683.94 996.713 1033.97 997.931 996.411 29.281
7686.7 1059.68 1053.41 984.473 1013.2 29.8863
7689.47 1103.85 1065.69 1057.2 1005.68 30.3449
7692.23 1033.53 1022.31 975.358 1001.16 28.9308
7694.99 929.548 1029.49 970.927 988.89 26.1479
7697.76 1125.4 1010.33 1020.38 996.813 30.4831
7700.52 976.029 1058.2 999.128 979.948 27.3274
7703.28 1073.18 1188.76 920.33 977.057 29.6422
7706.04 1517.07 1449.29 1011.71 986.092 35.2773
7708.81 1757.62 1594.32 1026.23 989.049 34.2328
7711.57 1508.26 1396.5 929.201 980.103 25.9362
7714.33 923.625 1011.28 984.875 954.735 15.3556
7717.09 601.954 644.009 950.13 967.012 10.4901
7719.85 406.449 538.308 966.03 965.471 7.94668
7722.62 606.52 593.696 980.255 963.049 13.2392
7725.38 768.12 737.175 942.863 972.715 18.1185
7728.14 836.885 833.489 995.027 964.894 21.1791
7730.9 895.462 903.301 956.792 979.496 24.0799
7733.66 977.554 957.221 986.67 972.69 26.7553
7736.42 998.646 1003.06 974.609 971.46 27.5488
7739.18 1032.97 1071.95 953.102 965.652 28.8002
7741.94 1184.24 1289.34 969.245 949.947 31.3504
7744.7 1650.83 1387.37 927.494 929.603 34.8076
7747.46 1327.04 1315.83 892.071 914.931 24.954
7750.22 969.621 956.089 925.228 947.882 17.5863
7752.98 571.607 720.223 1026.35 972.223 10.8486
7755.74 619.441 665.333 965.092 1001.52 12.6973
7758.5 804.953 728.642 1013.13 984.717 17.5438
7761.25 761.534 774.932 975.927 991.732 18.2143
7764.01 758.309 836.621 986.136 982.637 19.6294
7766.77 990.019 928.643 985.849 994.341 26.2365
7769.53 1037.6 1007.03 1011.04 978.209 27.419
7772.29 993.463 1022.19 937.738 944.183 26.2218
7775.04 1035.49 980.469 883.772 880.178 26.1318
7777.8 912.454 933.856 819.025 860.592 23.2732
7780.56 853.623 859.906 878.979 864.655 21.8083
7783.31 813.641 924.541 895.962 893.041 21.6619
7786.07 1106.36 1123.94 904.183 901.484 28.1564
7788.83 1451.81 1229.72 904.306 888.265 31.5359
7791.58 1131 1126.16 856.307 911.765 23.1526
7794.34 795.669 814.367 974.681 910.903 16.1533
7797.1 516.429 653.601 901.72 927.165 11.6266
7799.85 648.704 742.99 905.093 921.269 16.3495
7802.61 1063.84 880.834 956.993 890.231 26.357
7805.36 929.961 983.735 808.608 889.084 23.6494
7808.12 957.406 899.48 901.65 885.976 23.3282
7810.87 811.074 933.238 947.669 891.787 20.5134
7813.63 1031.23 1055.95 826.043 857.277 25.5583
7816.38 1325.54 1168.75 798.119 836.608 28.1669
7819.13 1149.48 1067.4 885.663 853.167 22.3207
7821.89 727.195 756.675 875.72 895.237 14.1726
7824.64 393.355 521.776 924.329 878.611 8.5461
7827.4 444.779 538.695 835.784 884.534 11.268
7830.15 777.951 714.386 893.489 878.295 21.3032
7832.9 920.427 923.121 905.612 880.599 26.4559
7835.65 1070.98 999.811 842.696 885.871 29.1825
7838.41 1008.02 1008.16 909.305 886.926 25.8586
7841.16 945.478 972.53 908.778 912.609 23.4606
7843.91 964.09 1103.63 919.743 915.442 23.5779
7846.66 1401.31 1239.13 917.806 907.86 30.1571
7849.42 1351.97 1296.1 886.031 891.817 25.6675
7852.17 1135.02 1056.47 871.613 842.415 19.9895
7854.92 682.402 741.735 769.601 802.987 12.1209
7857.67 407.783 566.554 767.748 781.842 7.83605
7860.42 609.477 568.006 808.176 810.344 12.489
7863.17 686.758 721.992 855.109 823.696 14.8227
7865.92 869.739 827.929 807.803 814.487 18.6823
7868.67 927.289 830.924 780.55 803.974 19.8197
7871.42 695.742 807.725 823.569 836.879 15.2122
7874.17 800.144 768.399 906.519 853.523 17.8533
7876.92 809.311 813.636 830.481 866.366 18.5792
7879.67 831.452 845.408 862.099 856.151 19.3008
7882.42 895.46 862.827 875.873 825.06 20.7836
7885.17 861.569 897.241 737.209 839.02 19.7287
7887.92 934.694 835.098 903.978 790.238 20.574
7890.67 709.031 703.998 729.528 824.377 16.4198
7893.42 468.269 608.295 839.625 788.642 11.9298
7896.16 647.584 617.116 796.772 825.009 18.1838
7898.91 735.494 746.345 838.629 823.447 22.1161
7901.66 855.956 862.552 834.941 812.374 25.9445
7904.41 996.206 1109.93 763.552 771.434 29.3946
7907.15 1477.61 1338.09 715.809 776.171 34.3434
7909.9 1540.45 1375.54 849.152 764.811 28.9202
7912.65 1108.56 1095.18 729.471 795.599 19.4417
7915.39 636.512 686.853 808.174 813.737 10.8031
7918.14 315.484 460.236 903.566 829.224 5.79911
7920.89 428.711 431.557 775.933 873.25 8.65452
7923.63 550.476 583.219 940.25 854.975 12.1105
7926.38 770.47 737.189 848.743 857.177 17.9338
7929.12 890.62 801.364 782.537 831.9 21.1704
7931.87 743.001 780.099 864.42 836.331 18.1027
7934.62 706.676 723.917 862.035 843.392 18.2123
7937.36 722.075 753.829 803.721 823.122 20.6418
7940.1 832.734 840.808 803.609 786.452 24.7847
7942.85 967.614 958.652 752.026 789.281 27.6265
7945.59 1075.61 964.84 812.208 775.484 28.1207
7948.34 851.299 842.302 762.22 768.969 22.3046
7951.08 599.998 704.486 732.48 754.516 16.5924
7953.83 662.16 751.762 768.847 767.887 19.2298
7956.57 993.129 993.509 802.334 788.714 27.7091
7959.31 1325.24 1157.99 794.962 782.408 30.998
7962.05 1155.62 1126.32 749.926 768.816 24.1045
7964.8 898.116 810.725 761.56 734.209 17.8034
7967.54 378.443 569.015 691.14 748.32 8.28126
7970.28 430.487 524.678 792.26 738.439 10.5016
7973.02 765.103 692.627 731.917 752.745 19.6064
7975.77 882.292 828.2 734.059 754.418 21.9269
7978.51 837.205 814.379 797.279 777.563 19.9904
7981.25 723.639 722.604 801.351 769.61 17.9268
7983.99 606.968 839.466 710.2 767.003 16.5072
7986.73 1187.79 1025.77 789.459 742.535 28.7245
7989.47 1282.55 1172.72 727.945 734.574 26.5671
7992.21 1047.82 906.34 686.319 713.684 20.0694
7994.95 388.652 568.775 726.789 714.894 7.84278
7997.69 269.854 375.595 731.574 734.958 6.31669
8000.43 468.279 447.458 746.511 734.548 12.7111
8003.17 604.242 621.697 725.558 736.447 18.4213
8005.91 792.571 786.338 737.272 728.812 25.1833
8008.65 962.203 873.086 723.605 745.811 28.267
8011.39 864.484 876.079 776.558 746.492 23.7497
8014.13 801.55 782.749 739.314 733.445 21.2416
8016.87 682.213 840.046 684.464 721.519 18.7763
8019.61 1036.37 902.127 740.78 691.41 25.814
8022.34 987.794 987.75 648.985 718.408 22.358
8025.08 939.082 812.313 765.457 702.351 19.7336
8027.82 510.061 618.941 692.611 751.34 11.2679
8030.56 407.678 453.733 795.951 715.152 10.1277
8033.29 443.46 494.226 656.894 717.869 13.0431
8036.03 631.541 601.128 700.762 686.605 20.1388
8038.77 728.385 713.458 702.157 714.064 24.366
8041.51 780.45 771.17 739.274 715.666 26.1891
8044.24 804.675 829.17 705.565 715.399 26.5837
8046.98 902.385 857.123 701.359 692.649 27.8401
8049.71 864.309 872.703 671.023 711.908 25.2535
8052.45 851.416 843.487 763.341 724.182 24.0547
8055.18 814.736 840.832 738.182 725.886 23.1912
8057.92 856.343 801.469 676.134 672.774 22.8916
8060.65 733.326 757.584 604.005 659.494 19.3553
8063.39 683.082 634.277 698.343 679.87 17.7441
8066.12 486.423 605.452 737.263 728.556 14.0223
8068.86 646.85 629.902 750.062 741.613 20.0009
8071.59 756.433 714.836 737.515 734.046 24.3356
8074.33 741.224 762.29 714.561 707.995 24.9778
8077.06 789.213 762.865 671.91 694.687 26.1264
8079.79 758.158 786.949 697.591 712.301 25.3882
8082.53 813.476 780.976 767.402 742.87 27.0081
8085.26 771.294 790.444 763.616 755.172 25.8454
8087.99 786.56 801.195 734.498 757.98 25.9608
8090.73 845.729 826.699 775.825 741.437 26.3673
8093.46 847.807 850.62 713.988 732.731 26.4394
8096.19 858.325 827.961 708.38 704.474 26.3752
8098.92 777.75 779.781 691.053 689.631 23.577
8101.65 703.269 729.083 669.458 682.816 21.4802
8104.38 706.229 698.178 687.935 679.011 21.3791
8107.12 685.036 680.917 679.639 675.541 21.704
8109.85 651.485 695.618 659.049 675.703 22.253
8112.58 750.332 712.451 688.42 665.835 25.6282
8115.31 735.536 769.439 650.036 689.96 25.7928
8118.04 822.448 764.907 731.426 673.603 27.7178
8120.77 736.736 762.734 639.349 670.996 26.3544
8123.5 729.018 748.994 642.213 647.231 25.8348
8126.23 781.226 744.52 660.13 647.196 27.2464
8128.96 723.315 757.919 639.244 657.366 25.8377
8131.69 769.214 742.829 672.724 645.758 26.8509
8134.42 735.957 750.67 625.305 643.097 25.6902
8137.14 746.84 719.771 631.262 616.262 25.377
8139.87 676.518 702.597 592.218 612.949 23.4633
8142.6 684.432 673.149 615.367 596.771 23.6882
8145.33 658.498 665.339 582.729 614.486 22.8481
8148.06 653.086 646.987 645.362 617.336 22.37
8150.78 629.378 646.719 623.916 619.662 22.5799
8153.51 657.694 647.16 589.708 592.708 24.5264
8156.24 654.406 662.565 564.5 582.643 24.4772
8158.97 675.594 645.098 593.72 585.099 25.0873
8161.69 605.294 637.846 597.076 584.975 23.4041
8164.42 632.651 641.625 564.129 582.551 24.2022
8167.15 686.929 672.525 586.449 570.517 25.6661
8169.87 697.995 683.914 560.973 578.184 26.2056
8172.6 666.819 666 587.129 574.228 25.2321
8175.32 633.188 662.396 574.582 592.131 24.4275
8178.05 687.181 684.468 614.681 605.262 25.5274
8180.77 733.035 703.322 626.522 606.797 26.9693
8183.5 689.751 691.346 579.188 583.596 25.5728
8186.22 651.253 660.938 545.078 560.032 24.1768
8188.95 641.811 652.17 555.829 569.981 23.4424
8191.67 663.447 665.769 609.035 580.91 24.0214
8194.4 692.049 670.036 577.867 587.65 24.7331
8197.12 654.611 664.199 576.047 590.347 23.7576
8199.84 645.938 671.62 617.126 607.945 23.6827
8202.57 714.312 681.584 630.663 608.716 25.7335
8205.29 684.502 686.033 578.359 593.606 25.002
8208.01 659.285 673.12 571.798 587.687 24.2201
8210.73 675.574 669.181 612.905 583.681 24.562
8213.46 672.685 671.628 566.339 597.113 24.9576
8216.18 666.625 662.721 612.096 574.784 24.6478
8218.9 648.852 626.939 545.916 554.678 24.669
8221.62 565.341 609.418 506.022 525.556 21.9941
8224.34 614.061 557.787 524.731 483.03 24.2904
8227.06 493.959 560.03 418.336 480.385 21.1791
8229.79 572.07 573.245 498.087 491.806 23.1085
8232.51 653.707 636.94 558.995 539.615 25.2862
8235.23 685.044 691.346 561.762 564.326 25.7764
8237.95 735.287 748.505 572.221 586.653 26.9066
8240.67 825.184 772.312 625.976 607.603 28.1422
8243.39 756.466 759.949 624.613 624.186 26.4851
8246.11 698.198 726.933 621.969 621.34 25.0303
8248.83 726.135 698.17 617.439 609.17 25.8844
8251.54 670.176 679.465 588.101 584.809 24.4748
8254.26 642.085 651.325 548.887 572.685 24.1343
8256.98 641.713 649.807 581.066 567.868 23.8452
8259.7 665.622 676.883 573.65 578.507 24.9717
8262.42 723.315 680.195 580.806 577.382 26.4427
8265.14 651.648 678.697 577.691 584.508 24.5839
8267.85 661.127 677.936 595.028 599.972 24.5749
8270.57 721.031 739.574 627.199 603.24 25.8936
8273.29 836.563 864.646 587.493 604.968 27.6355
8276.01 1036.34 949.767 600.211 574.767 28.7404
8278.72 976.397 947.757 536.596 530.73 23.7899
8281.44 830.53 882.464 455.381 513.573 18.7444
8284.16 840.465 711.357 548.741 507.787 17.3402
8286.87 463.075 543.633 519.24 557.68 9.62103
8289.59 327.36 438.338 605.059 581.334 6.99997
8292.3 524.579 558.892 619.703 584.393 11.3945
8295.02 824.738 711.605 528.418 590.017 17.3398
8297.73 785.499 710.505 621.929 599.66 15.8625
8300.45 521.278 463.708 648.633 621.24 10.8213
8303.16 84.347 351.834 593.159 635.796 2.04159
8305.88 449.877 400.945 665.596 615.146 12.0409
8308.59 668.61 590.879 586.685 620.687 18.6513
8311.31 654.149 625.581 609.782 595.713 18.6104
8314.02 553.985 572.871 590.672 577.129 16.8691
8316.73 510.479 562.775 530.933 566.358 16.7568
8319.45 623.859 594.358 577.47 569.835 21.6843
8322.16 648.736 645.275 601.103 590.222 23.5328
8324.87 663.229 666.27 592.092 599.22 24.3528
8327.58 686.846 681.882 604.464 593.293 25.5238
8330.3 695.57 679.07 583.323 570.448 25.8596
8333.01 654.793 693.306 523.559 550.699 24.7738
8335.72 729.556 893.095 545.217 538.524 25.9329
8338.43 1294.94 1269.2 546.798 504.648 34.3883
8341.14 1783.1 1442.39 421.931 484.968 33.9628
8343.85 1249.14 1248.46 486.174 516.193 20.7058
8346.56 713.128 609.863 640.474 578.429 11.1257
8349.28 -132.681 197.162 608.637 641.578 -2.30772
8351.99 11.0395 29.8384 675.623 573.1 0.215691
8354.7 211.156 143.446 435.038 589.202 4.68124
8357.41 208.142 305.442 656.943 544.992 5.29367
8360.12 497.029 443.748 542.995 577.728 14.0506
8362.82 626.072 592.923 533.245 550.857 18.0877
8365.53 655.67 622.93 576.332 586.428 18.923
8368.24 587.048 592.563 649.709 611.605 17.6743
8370.95 534.97 587.645 608.773 627.461 17.6434
8373.66 640.917 675.194 623.9 605.247 21.9974
8376.37 849.696 835.098 583.068 601.301 27.5994
8379.08 1014.68 888.007 596.935 565.509 28.2166
8381.78 799.645 798.633 516.523 546.467 20.7783
8384.49 581.574 584.605 525.943 529.84 14.9554
8387.2 372.597 481.152 547.054 551.799 10.6237
8389.91 489.286 581.396 582.399 580.475 15.4467
8392.61 882.306 964.827 611.971 604.142 26.4135
8395.32 1522.89 1215.48 618.055 597.141 34.0187
8398.03 1241.23 1171.1 561.398 561.703 23.8059
8400.73 749.173 630.043 505.657 555.661 13.695
8403.44 -100.273 201.697 599.929 555.09 -2.03567
8406.14 -43.8086 107.493 559.684 576.522 -1.12782
8408.85 466.562 454.548 569.952 560.548 13.8351
8411.55 940.891 749.838 552.009 551.662 26.0512
8414.26 842.061 815.784 533.025 531.593 21.5701
8416.96 664.401 621.485 509.745 530.56 16.3648
8419.67 357.993 519.429 548.911 552.444 9.73496
8422.37 535.894 710.003 598.677 546.686 15.399
8425.08 1236.12 1125.96 492.47 546.598 30.5584
8427.78 1605.88 1275.25 548.648 512.36 30.9114
8430.48 983.742 966.692 495.962 530.052 17.1963
8433.19 310.459 302.24 545.545 517.27 5.45999
8435.89 -387.482 -23.0805 510.302 544.45 -8.39576
8438.59 7.78157 11.8486 577.503 542.112 0.214748
8441.29 415.246 327.919 538.531 555.414 13.6737
8444 560.729 607.161 550.207 556.189 20.4734
8446.7 845.507 800.155 579.83 550.255 28.4313
8449.4 994.227 886.631 520.727 554.297 28.0531
8452.1 820.159 814.405 562.333 550.998 21.2993
8454.8 628.829 618.04 569.935 586.988 16.0137
8457.5 405.132 658.236 628.695 576.984 11.2872
8460.2 940.746 841.531 532.321 543.081 24.6459
8462.91 1178.72 1015.9 468.227 488.251 25.6449
8465.61 928.241 852.451 464.204 469.953 18.1831
8468.31 450.397 439.751 477.428 490.441 8.87255
8471.01 -59.3867 188.809 529.69 524.109 -1.37949
8473.7 175.417 194.928 565.209 543.1 4.99134
8476.4 468.754 417.795 534.401 569.303 15.4843
8479.1 609.212 572.503 608.298 554.413 21.5767
8481.8 639.543 629.556 520.539 546.566 23.9214
8484.5 639.912 676.297 510.861 530.059 24.5217
8487.2 749.437 766.325 558.778 549.245 26.8457
8489.9 909.626 825.571 578.096 547.624 28.7568
8492.59 817.649 806.757 505.998 534.007 23.7711
8495.29 692.997 666.051 517.928 502.435 19.3599
8497.99 487.507 690.329 483.38 521.936 14.1471
8500.69 890.482 766.248 564.499 525.771 23.6291
8503.38 920.753 827.316 529.434 532.958 22.2053
8506.08 670.711 666.081 504.94 523.861 15.6511
8508.78 406.779 430.655 537.21 495.741 9.94771
8511.47 214.474 347.128 445.072 501.604 6.19289
8514.17 420.132 417.793 522.53 523.839 14.0368
8516.86 618.773 551.302 603.916 546.526 22.2931
8519.56 615.002 640.472 513.132 554.626 23.3815
8522.25 687.641 665.836 546.829 536.177 25.6308
8524.95 694.865 665.952 548.569 540.484 25.5695
8527.64 615.35 662.21 526.054 536.867 24.152
8530.34 676.415 676.02 535.978 544.562 25.6754
8533.03 736.294 735.651 571.655 562.641 27.0297
8535.73 794.244 758.289 580.291 567.422 26.7523
8538.42 744.329 751.724 550.319 550.399 24.4596
8541.11 716.6 726.055 520.586 532.083 23.1398
8543.81 717.236 744.11 525.344 540.716 22.4015
8546.5 798.494 738.44 576.216 550.816 23.3778
8549.19 699.589 723.561 550.888 566.402 19.8282
8551.89 672.599 595.043 572.101 548.906 18.9489
8554.58 412.942 535.665 523.727 536.173 13.024
8557.27 521.456 531.326 512.689 520.75 17.9128
8559.96 659.579 624.66 525.832 531.371 23.9269
8562.65 692.945 677.29 555.592 531.292 25.6662
8565.34 679.345 663.547 512.453 529.097 25.6605
8568.03 618.35 666.675 519.247 537.001 23.7697
8570.73 702.33 678.046 579.304 540.621 25.6339
8573.42 713.458 709.06 523.313 540.99 26.1857
8576.11 711.393 679.124 520.353 519.15 25.9213
8578.8 612.52 644.474 513.785 516.774 22.9591
8581.49 609.509 642.788 516.184 524.253 23.0483
8584.17 706.335 680.392 542.789 528.427 25.6082
8586.86 725.331 722.312 526.309 549.886 25.2953
8589.55 735.268 739.099 580.56 561.086 24.795
8592.24 756.697 736.151 576.389 571.259 25.0196
8594.93 716.487 718.432 556.828 548.103 23.5402
8597.62 682.112 695.491 511.09 536.228 22.238
8600.31 687.874 658.319 540.765 531.473 22.1988
8602.99 604.97 616.284 542.564 532.575 20.4763
8605.68 556.007 592.318 514.397 513.688 20.164
8608.37 615.979 631.179 484.102 509.58 22.9084
8611.06 721.55 705.48 530.239 507.704 25.5117
8613.74 778.91 776.904 508.771 524.344 25.975
8616.43 830.252 804.023 534.023 544.264 26.1747
8619.11 802.906 790.415 589.998 535.68 24.0112
8621.8 738.087 793.27 483.019 537.234 20.9874
8624.49 838.816 775.84 538.686 506.302 22.3066
8627.17 750.617 753.318 497.201 507.986 19.4354
8629.86 670.519 678.884 488.071 492.751 17.1019
8632.54 615.514 617.754 492.981 495.523 15.5842
8635.23 567.228 592.008 505.517 534.776 14.4867
8637.91 593.282 566.598 605.829 560.926 15.2491
8640.6 539.283 539.921 571.432 569.607 15.0538
8643.28 487.197 547.827 531.559 539.02 14.6169
8645.96 617.001 606.607 514.071 503.313 18.8672
8648.65 715.623 732.274 464.309 526.894 21.1897
8651.33 864.199 784.382 602.304 526.948 23.245
8654.01 773.323 793.778 514.23 558.257 20.0873
8656.69 743.811 750.565 558.237 533.642 18.6649
8659.38 734.56 703.556 528.458 546.391 18.211
8662.06 632.296 656.751 552.479 528.831 15.9047
8664.74 603.397 596.822 505.557 521.603 15.4524
8667.42 554.774 560.9 506.775 489.533 14.7204
8670.1 524.529 536.218 456.267 485.297 14.3692
8672.79 529.35 484.907 492.848 459.019 14.8559
8675.47 400.841 488.092 427.943 472.093 11.8888
8678.15 534.084 462.91 495.487 446.653 15.9973
8680.83 453.805 511.054 416.531 458.621 14.435
8683.51 545.274 524.651 463.844 449.47 17.6397
8686.19 574.875 578.673 468.036 477.801 19.1764
8688.87 615.869 621.287 501.524 510.753 20.4641
8691.55 673.117 644.179 562.699 533.171 22.6215
8694.23 643.55 656.841 535.29 531.991 22.3033
8696.9 653.856 651.65 497.983 515.76 22.9344
8699.58 657.546 691.852 514.006 534.68 22.4493
8702.26 764.156 705.303 592.05 537.11 25.3447
8704.94 694.207 709.465 505.274 540.894 23.6723
8707.62 670.033 680.564 525.357 515.604 23.0112
8710.29 677.453 658.435 516.181 510.353 23.1893
8712.97 627.819 661.168 489.522 506.746 22.6851
8715.65 678.234 655.685 514.536 495.516 24.5421
8718.33 661.001 696.707 482.492 522.607 24.4742
8721 750.888 695.73 570.792 514.57 26.7054
8723.68 675.301 714.288 490.425 527.073 24.9983
8726.35 716.675 699.429 520.002 522.187 25.6559
8729.03 706.311 688.759 556.135 512.379 25.4194
8731.71 643.29 663.86 461.001 503.645 23.9555
8734.38 641.98 660.996 493.8 488.364 23.9534
8737.06 697.717 670.65 510.29 497.794 25.471
8739.73 672.251 681.89 489.291 492.573 24.8457
8742.41 675.7 696.841 478.139 510.257 24.7757
8745.08 742.571 705.307 563.341 523.357 25.9415
8747.75 697.648 705.342 528.592 540.005 24.791
8750.43 675.807 698.809 528.083 521.715 24.3548
8753.1 722.971 778.85 508.47 527.894 25.6739
8755.77 937.771 1043.56 547.13 569.975 29.3107
8758.45 1469.94 1243.58 654.325 573.356 34.7467
8761.12 1323.04 1347.3 518.614 607.901 25.899
8763.79 1248.91 1206.89 650.763 609.45 21.2805
8766.46 1048.73 911.076 658.973 650.634 16.3488
8769.14 435.586 546.434 642.167 614.458 6.84505
8771.81 154.986 310.1 542.235 624.075 2.57524
8774.48 339.729 428.303 687.821 579.946 5.94634
8777.15 790.193 586.291 509.783 546.867 13.7334
8779.82 628.95 525.471 442.997 482.02 10.6323
8782.49 157.271 99.5825 493.282 504.487 2.77999
8785.16 -487.474 -77.9833 577.181 546.53 -10.2432
8787.83 96.2522 101.447 569.126 541.981 2.43251
8790.5 695.561 485.166 479.635 508.842 18.112
8793.17 663.685 612.133 477.765 464.156 17.1313
8795.84 477.152 426.523 435.069 431.111 12.7579
8798.51 138.731 312.519 380.497 427.436 4.24481
8801.18 321.675 338.539 466.742 441.172 10.9375
8803.85 555.211 509.749 476.277 482.427 20.3704
8806.52 652.361 621.469 504.262 494.914 24.0965
8809.18 656.834 656.907 504.203 505.346 23.9753
8811.85 661.524 669.091 507.571 505.375 23.785
8814.52 688.913 659.966 504.349 497.333 24.2512
8817.19 629.461 667.272 480.078 510.338 22.7372
8819.85 683.442 830.342 546.585 574.453 24.4041
8822.52 1178.12 1473.44 696.697 672.159 32.8599
8825.19 2558.76 2026.36 773.195 732.804 46.0539
8827.85 2342.19 2013.9 728.519 652.249 32.961
8830.52 1140.74 1013.61 455.034 512.834 14.7515
8833.18 -442.115 11.1793 354.949 465.65 -6.01046
8835.85 -665.089 -425.347 586.966 444.119 -10.3848
8838.51 -168.837 -303.725 390.442 453.074 -2.97036
8841.18 -77.2496 -156.997 381.812 412.506 -1.50106
8843.84 -224.905 -76.2819 465.264 445.756 -5.13566
8846.51 73.3089 178.642 490.191 497.895 2.02661
8849.17 687.522 507.639 538.229 512.16 19.0227
8851.84 762.085 662.017 508.059 523.463 20.8239
8854.5 536.443 568.065 524.099 510.658 14.8799
8857.16 405.667 456.594 499.816 472.701 12.1653
8859.83 427.673 469.835 394.189 457.805 14.3576
8862.49 576.164 686.958 479.41 487.861 20.1676
8865.15 1057.04 960.313 589.985 547.323 30.3381
8867.81 1247.74 1051.36 572.574 553.07 29.6827
8870.48 849.316 846.791 496.65 481.907 19.1033
8873.14 443.32 498.21 376.499 449.411 10.2614
8875.8 201.995 328.325 475.084 463.891 5.3249
8878.46 339.66 434.864 540.089 560.401 10.8023
8881.12 762.937 940.113 666.03 633.917 23.9762
8883.78 1717.74 1457.58 695.634 646.886 39.4
8886.44 1892.05 1557.76 578.993 601.252 32.9146
8889.1 1063.49 963.986 529.128 489.888 16.7585
8891.76 -63.5806 46.1831 361.544 407.718 -1.0318
8894.42 -861.36 -389.259 332.481 386.791 -17.6392
8897.08 -242.837 -204.247 466.349 462.104 -6.48373
8899.74 491.456 473.013 587.48 526.03 14.7513
8902.4 1170.42 896.341 524.26 538.59 29.5752
8905.06 1027.15 966.808 504.03 475.715 22.4392
8907.72 702.858 580.858 398.854 437.859 14.7588
8910.37 12.5684 291.732 410.693 467.655 0.2963
8913.03 159.768 275.527 593.417 514.982 4.40369
8915.69 654.246 943.425 540.836 617.047 18.7039
8918.35 2016.26 1552.34 716.888 592.859 40.5535
8921 1986.51 1676.28 520.852 540.034 31.5416
8923.66 1026.07 850.035 382.361 369.805 15.0599
8926.32 -462.473 -152.928 206.203 247.583 -7.29431
8928.97 -1022.38 -575.098 154.184 259.291 -20.7558
8931.63 -240.441 -294.863 417.485 308.804 -6.50849
8934.28 378.232 232.585 354.741 416.766 12.5591
8936.94 559.965 546.823 478.072 421.401 20.0318
8939.59 702.271 780.128 431.389 472.392 24.3729
8942.25 1078.15 930.281 507.713 497.571 29.9762
8944.9 1010.43 903.515 553.611 475.902 24.4347
8947.56 621.973 633.588 366.381 434.318 14.2231
8950.21 268.367 344.974 382.961 415.979 6.41658
8952.87 144.583 421.532 498.595 475.493 4.00255
8955.52 851.648 875.898 544.924 541.127 22.937
8958.17 1631.46 1261.04 579.863 567.56 33.1744
8960.82 1300 1130.2 577.892 508.275 22.3557
8963.48 459.126 326.175 367.07 322.578 7.68836
8966.13 -780.606 -292.259 22.7701 156.59 -15.9316
8968.78 -555.298 -401.015 79.9304 116.859 -15.0282
8971.43 132.86 14.6378 247.876 207.984 4.50784
8974.09 466.351 392.314 296.146 310.801 17.8608
8976.74 577.73 541.886 388.38 347.849 22.6122
8979.39 581.576 590.821 359.021 393.289 22.689
8982.04 613.157 620.901 432.465 403.129 23.4231
8984.69 667.969 681.535 417.901 406.113 24.5422
8987.34 763.478 739.266 367.973 425.203 25.1908
8989.99 786.349 707.314 489.735 411.483 22.5481
8992.64 572.116 561.851 376.742 387.406 15.8944
8995.29 327.088 402.151 295.741 364.783 9.44559
8997.94 307.248 533.046 421.868 397.97 9.31963
9000.59 964.801 740.275 476.303 458.054 25.573
9003.23 948.775 834.123 475.99 492.639 21.9257
9005.88 588.792 506.749 525.623 410.77 12.8152
9008.53 -17.321 124.93 230.698 277.384 -0.400919
9011.18 -196.68 -0.400813 75.8316 180.933 -5.72629
9013.83 212.799 136.149 236.27 186.521 7.50393
9016.47 392.327 384.942 247.461 251.493 16.4222
9019.12 549.7 490.381 270.75 284.86 23.0126
9021.77 529.116 547.628 336.368 317.24 22.7493
9024.41 564.067 541.37 344.601 350.983 23.2145
9027.06 530.925 566.118 371.981 376.793 21.8751
9029.71 603.361 563.15 413.798 389.653 24.0966
9032.35 555.165 593.186 383.179 391.517 22.6952
9035 621.032 638.252 377.573 400.321 24.2893
9037.64 738.56 708.434 440.211 434.841 26.0323
9040.29 765.711 704.52 486.739 436.552 24.2731
9042.93 609.29 627.543 382.706 408.252 18.7426
9045.58 507.629 584.881 355.313 377.401 15.5719
9048.22 637.724 649.655 394.186 394.247 19.5017
9050.86 803.612 708.8 433.242 418.154 22.5799
9053.51 685.064 646.18 427.033 422.477 18.1246
9056.15 449.865 448.635 407.154 376.298 11.9499
9058.79 210.978 333.347 294.708 309.194 6.39311
9061.44 339.2 335.453 225.722 273.081 12.0269
9064.08 456.181 447.799 298.813 290.249 18.2295
9066.72 548.015 510.18 346.212 343.556 21.9177
9069.36 526.344 515.828 385.644 336.289 21.838
9072 473.124 422.112 277.012 277.962 20.9145
9074.64 266.868 246.664 171.23 149.414 15.0559
