wavelength spec_sum spec_optimal
3527.51 11.9216 14.9464
3530.43 12.6855 15.9914
3533.35 8.6123 11.9575
3536.26 16.2025 20.093
3539.18 6.73511 4.67949
3542.1 14.8657 20.1401
3545.02 11.6345 18.6614
3547.93 10.9192 13.3269
3550.85 24.8197 19.2802
3553.77 29.0788 29.0773
3556.68 19.5334 21.3586
3559.6 14.3406 18.8085
3562.52 21.4641 21.6221
3565.43 12.9182 18.106
3568.35 14.4316 17.3472
3571.27 25.0592 28.0711
3574.18 9.72046 11.1954
3577.1 17.4915 16.9114
3580.02 17.0229 19.1857
3582.93 14.2331 16.352
3585.85 18.5931 21.4082
3588.77 16.1588 20.1929
3591.68 17.1113 22.2164
3594.6 17.2289 20.23
3597.52 16.8469 20.1301
3600.44 24.2379 27.3103
3603.35 22.726 26.1908
3606.27 14.5759 20.2323
3609.19 17.6782 23.6095
3612.1 11.0007 15.4055
3615.02 16.6881 20.7087
3617.94 21.0065 25.4322
3620.85 12.93 18.2734
3623.77 19.6697 23.4951
3626.69 16.0275 13.5583
3629.6 12.1136 13.1792
3632.52 18.434 22.0072
3635.44 11.1482 16.2555
3638.35 17.9719 17.8516
3641.27 20.3649 21.8157
3644.18 9.64048 7.30291
3647.1 16.727 18.3413
3650.02 16.0734 16.6373
3652.93 13.5977 13.7839
3655.85 12.8063 14.8945
3658.77 13.7498 10.7165
3661.68 22.2153 25.3304
3664.6 18.3796 21.7871
3667.52 19.7023 19.3973
3670.43 15.4103 19.5772
3673.35 11.041 11.7757
3676.27 14.1628 13.5769
3679.18 10.597 13.1539
3682.1 14.5633 15.4521
3685.02 17.8224 19.6066
3687.93 15.4172 20.6226
3690.85 15.3786 15.2228
3693.76 13.3479 14.4117
3696.68 18.8569 20.8388
3699.6 11.4261 9.976
3702.51 23.0501 23.5711
3705.43 21.3203 21.0666
3708.35 15.759 16.9338
3711.26 13.1005 11.7036
3714.18 21.7961 21.552
3717.1 13.1397 10.3028
3720.01 17.8212 19.002
3722.93 19.1161 16.5555
3725.84 13.8713 17.3119
3728.76 18.1976 14.3525
3731.68 16.1866 18.5751
3734.59 12.5911 13.0403
3737.51 16.0286 16.4436
3740.42 14.1017 11.231
3743.34 20.9952 21.2567
3746.26 12.7411 13.1081
3749.17 21.3711 23.8279
3752.09 20.3422 22.8891
3755 13.9372 14.6269
3757.92 21.2443 24.2588
3760.84 23.5455 29.1221
3763.75 19.6344 19.9955
3766.67 17.1587 16.3405
3769.58 16.264 19.357
3772.5 20.5295 25.4957
3775.42 22.5448 24.3455
3778.33 21.6512 24.1072
3781.25 20.1989 26.7543
3784.16 28.8761 32.588
3787.08 22.7253 27.6487
3790 20.9605 23.1957
3792.91 18.9273 25.4161
3795.83 19.1905 22.3412
3798.74 16.1559 18.6177
3801.66 15.4248 15.4268
3804.57 18.906 21.5895
3807.49 19.8379 19.3791
3810.41 16.2969 16.7556
3813.32 17.643 16.6088
3816.24 23.1449 23.7725
3819.15 22.6214 24.5204
3822.07 24.1297 24.8813
3824.98 19.1703 21.7239
3827.9 17.2807 18.9763
3830.82 23.9051 25.6676
3833.73 20.5997 21.7828
3836.65 23.0639 23.3633
3839.56 30.7652 30.8776
3842.48 24.3143 27.344
3845.39 22.3831 27.6707
3848.31 18.6811 20.2067
3851.22 24.7103 24.548
3854.14 20.0168 20.0697
3857.05 22.6502 23.9595
3859.97 20.0161 21.2041
3862.89 21.6032 22.9729
3865.8 19.9509 22.0409
3868.72 22.7605 24.3869
3871.63 20.0741 20.9736
3874.55 22.4611 22.87
3877.46 20.0892 18.8179
3880.38 18.4843 19.8607
3883.29 18.954 21.0458
3886.21 25.3388 25.6414
3889.12 14.3739 17.0024
3892.04 15.4578 18.2653
3894.95 16.9248 16.5985
3897.87 19.6879 20.5991
3900.78 15.8362 15.5941
3903.7 20.7827 20.7948
3906.61 20.8624 21.3425
3909.53 29.0389 30.0305
3912.44 21.683 24.0703
3915.36 32.1812 33.5566
3918.27 29.0653 30.6888
3921.19 26.9369 27.6042
3924.1 24.938 27.654
3927.02 20.2859 20.9106
3929.93 22.15 24.2273
3932.85 20.8946 22.4808
3935.76 19.8316 19.7244
3938.68 21.0502 22.8667
3941.59 17.0405 18.5145
3944.51 20.7099 19.7045
3947.42 22.3926 23.997
3950.33 24.9611 26.9149
3953.25 26.3229 29.0833
3956.16 20.6213 21.2369
3959.08 20.782 23.4168
3961.99 23.5253 25.7463
3964.91 23.2663 21.3373
3967.82 19.7523 23.0295
3970.74 25.5931 26.8324
3973.65 20.499 24.2713
3976.56 22.7991 24.9062
3979.48 22.6332 25.5233
3982.39 19.6512 20.9152
3985.31 20.1825 20.4358
3988.22 16.8376 17.9517
3991.14 19.0119 19.4524
3994.05 20.6328 22.3498
3996.96 21.9554 23.1411
3999.88 20.9402 21.0474
4002.79 20.9222 22.4215
4005.71 24.7221 23.3426
4008.62 20.8638 21.5508
4011.53 26.5176 27.1273
4014.45 24.3428 27.5896
4017.36 22.1988 21.7327
4020.28 22.0732 22.9043
4023.19 23.2193 22.7082
4026.1 16.2026 17.3778
4029.02 16.7109 18.7313
4031.93 22.0745 19.8602
4034.85 17.6622 21.7135
4037.76 24.7148 27.6517
4040.67 21.3304 21.666
4043.59 28.4155 29.19
4046.5 24.35 24.9545
4049.41 26.0759 27.4244
4052.33 26.9801 29.3875
4055.24 31.6194 32.9345
4058.16 28.0193 27.149
4061.07 26.6746 29.6372
4063.98 27.4779 27.8417
4066.9 27.0168 29.3268
4069.81 27.8956 29.153
4072.72 30.2148 30.4869
4075.64 31.1341 34.2635
4078.55 28.4851 29.5601
4081.46 31.5189 33.2949
4084.38 31.4295 33.59
4087.29 32.9132 35.4664
4090.2 31.6772 30.7267
4093.12 31.2177 31.1098
4096.03 31.2444 32.4287
4098.94 31.5391 32.8701
4101.86 26.3359 27.209
4104.77 33.3774 34.8382
4107.68 29.8083 29.6016
4110.59 32.5949 32.545
4113.51 33.0394 34.0638
4116.42 29.062 30.1114
4119.33 32.1975 31.1541
4122.25 24.7967 25.7918
4125.16 30.5998 33.1093
4128.07 27.098 27.891
4130.98 34.6999 33.5234
4133.9 26.2426 25.503
4136.81 31.7306 34.8665
4139.72 31.7049 35.6107
4142.63 28.6921 30.4286
4145.55 32.8801 33.8485
4148.46 31.1821 31.0994
4151.37 29.0661 31.0745
4154.28 29.7126 30.3161
4157.2 31.297 33.6717
4160.11 27.4444 27.193
4163.02 30.7975 33.2322
4165.93 26.5515 28.1059
4168.85 30.1767 31.7888
4171.76 29.6908 31.5147
4174.67 29.2079 31.5922
4177.58 32.0561 31.5429
4180.5 31.5394 32.4794
4183.41 31.2463 32.479
4186.32 30.2157 30.4654
4189.23 30.6081 30.7109
4192.14 32.9384 32.5345
4195.06 30.2287 32.7848
4197.97 27.7226 28.6889
4200.88 30.9215 30.872
4203.79 31.3205 32.5361
4206.7 31.2695 34.5401
4209.61 29.2521 30.0761
4212.53 30.0494 31.3938
4215.44 33.3756 34.9723
4218.35 30.4525 30.0203
4221.26 31.5593 32.9835
4224.17 32.7878 34.1081
4227.08 29.2997 28.6733
4230 29.9727 30.1438
4232.91 28.6133 30.687
4235.82 31.4515 31.9353
4238.73 29.6754 31.2599
4241.64 32.5114 34.4467
4244.55 32.9835 32.6129
4247.46 30.5704 31.6749
4250.38 31.8948 33.1134
4253.29 29.6982 30.0154
4256.2 31.3942 32.0127
4259.11 29.3147 30.0453
4262.02 28.8154 29.6829
4264.93 27.7638 30.0109
4267.84 32.5112 34.3624
4270.75 29.0191 29.7107
4273.66 27.1239 28.7127
4276.57 30.7857 32.326
4279.49 28.8758 29.5319
4282.4 27.2326 27.4723
4285.31 34.5779 36.3095
4288.22 33.5987 34.869
4291.13 34.751 34.7286
4294.04 30.0843 32.4875
4296.95 31.4026 31.8343
4299.86 29.4302 31.7202
4302.77 33.6523 35.9608
4305.68 31.3416 32.6113
4308.59 33.1399 33.4868
4311.5 31.0562 32.5016
4314.41 35.005 36.7655
4317.32 32.5402 33.1377
4320.23 31.7034 33.2572
4323.14 33.0219 32.0821
4326.05 34.9628 36.1361
4328.96 30.4759 31.1259
4331.87 32.7892 35.8976
4334.78 35.322 34.5959
4337.69 34.4368 33.5725
4340.6 30.9758 31.5923
4343.51 30.9377 30.6631
4346.42 29.6959 30.5703
4349.33 29.8873 30.1059
4352.24 31.0959 30.9482
4355.15 32.4624 33.3926
4358.06 33.1828 34.8263
4360.97 28.2874 29.4779
4363.88 28.9467 30.2983
4366.79 28.3344 28.975
4369.7 29.7427 31.1548
4372.61 27.4467 28.3876
4375.52 29.1322 29.0278
4378.43 28.8483 29.4864
4381.34 34.4194 34.9258
4384.25 32.8342 33.7858
4387.15 30.7911 32.1871
4390.06 31.8237 31.8274
4392.97 32.162 34.0535
4395.88 33.235 34.0689
4398.79 32.1869 31.3641
4401.7 30.2609 31.6557
4404.61 31.6207 32.7376
4407.52 32.3169 34.3203
4410.43 34.9126 34.6393
4413.34 32.1551 33.0521
4416.24 28.0666 28.6222
4419.15 33.3445 34.7919
4422.06 33.6304 34.9885
4424.97 36.4693 38.1868
4427.88 34.5549 34.3131
4430.79 35.0395 34.8833
4433.7 35.0828 37.5404
4436.6 32.9418 33.6375
4439.51 37.3152 37.9789
4442.42 36.5896 36.2077
4445.33 35.1356 35.4276
4448.24 31.5378 31.1587
4451.14 30.2404 31.3957
4454.05 33.9799 34.5123
4456.96 36.0771 37.2152
4459.87 34.7872 35.2238
4462.78 34.3488 35.7071
4465.68 38.462 38.1887
4468.59 29.4379 29.2272
4471.5 34.9637 35.0354
4474.41 33.7508 33.9281
4477.32 37.7557 38.2709
4480.22 35.8681 37.4114
4483.13 38.17 39.1891
4486.04 33.3683 33.7063
4488.95 34.8272 35.8611
4491.85 33.5608 34.8306
4494.76 36.4694 35.9434
4497.67 33.1105 32.6104
4500.58 38.2853 38.697
4503.48 33.1059 33.6027
4506.39 39.514 40.473
4509.3 33.207 34.9012
4512.2 35.3621 37.6564
4515.11 38.8212 39.4026
4518.02 36.997 38.3759
4520.92 39.244 40.4991
4523.83 35.7305 36.3998
4526.74 37.1068 39.0969
4529.65 32.9648 32.7453
4532.55 38.4845 38.2038
4535.46 38.6155 40.1085
4538.37 38.19 38.6543
4541.27 33.526 34.0679
4544.18 35.8843 36.7357
4547.08 34.2137 34.7703
4549.99 35.9546 36.8011
4552.9 38.0372 38.6278
4555.8 36.4466 37.0933
4558.71 37.3671 38.9794
4561.62 39.5561 39.0512
4564.52 38.7548 39.3136
4567.43 32.8877 33.9594
4570.33 37.193 36.6389
4573.24 38.6928 39.1748
4576.15 38.0852 38.6852
4579.05 38.5953 40.427
4581.96 40.898 42.0664
4584.86 30.0736 33.0555
4587.77 37.3441 39.5073
4590.67 34.6731 34.8986
4593.58 34.2493 35.2765
4596.49 34.2664 34.0792
4599.39 36.4739 36.9064
4602.3 37.0012 36.8164
4605.2 32.8631 31.2997
4608.11 37.261 36.982
4611.01 33.2235 33.7134
4613.92 35.8794 35.7515
4616.82 36.5158 35.2879
4619.73 36.3529 36.1071
4622.63 33.7177 33.8877
4625.54 33.8631 33.0956
4628.44 35.6913 34.3416
4631.35 36.3214 32.5503
4634.25 32.5933 31.4938
4637.16 35.6652 34.5155
4640.06 39.0436 35.1139
4642.97 39.8959 38.206
4645.87 36.8126 35.2532
4648.77 38.79 35.738
4651.68 33.5257 32.49
4654.58 38.1921 35.1089
4657.49 35.4338 33.6454
4660.39 35.5506 32.1531
4663.3 35.3326 33.4048
4666.2 36.1523 31.6171
4669.1 35.7924 33.1813
4672.01 34.0072 30.3975
4674.91 40.196 35.7599
4677.82 37.1736 33.6425
4680.72 36.5847 32.7383
4683.62 42.6048 39.0952
4686.53 38.3022 36.7328
4689.43 40.2916 35.4512
4692.33 36.82 33.5502
4695.24 39.66 35.0766
4698.14 36.7354 33.0938
4701.04 43.8537 40.7162
4703.95 43.9487 40.5491
4706.85 38.5506 35.5686
4709.75 41.7434 38.2655
4712.66 41.9518 37.9865
4715.56 36.8337 34.6572
4718.46 37.4782 36.1169
4721.37 39.5831 36.7379
4724.27 41.4856 39.3146
4727.17 39.1463 35.818
4730.08 36.5147 34.3781
4732.98 33.1339 32.2202
4735.88 36.0547 34.0192
4738.78 34.8194 34.253
4741.69 40.3733 38.8279
4744.59 39.1609 36.1314
4747.49 37.5546 35.5105
4750.39 39.2237 37.5049
4753.29 35.5701 33.4079
4756.2 34.8738 33.4159
4759.1 38.0719 36.9264
4762 37.8762 36.4803
4764.9 37.1535 34.2776
4767.81 36.2555 34.834
4770.71 35.5541 32.4995
4773.61 39.0585 37.2059
4776.51 35.8387 33.6353
4779.41 37.9799 35.7818
4782.31 34.6652 33.7236
4785.22 34.8035 33.8069
4788.12 38.4598 36.1731
4791.02 38.9212 37.7245
4793.92 37.8217 36.1057
4796.82 32.8531 31.6684
4799.72 37.6888 36.2103
4802.62 36.3046 34.6446
4805.52 39.9127 38.5925
4808.43 37.9931 36.3174
4811.33 38.4156 36.1154
4814.23 35.8969 34.8798
4817.13 37.9898 36.5598
4820.03 38.8033 36.4569
4822.93 36.6356 35.2503
4825.83 38.2687 35.7793
4828.73 41.1056 39.287
4831.63 39.7494 37.301
4834.53 38.2832 36.2864
4837.43 37.4002 34.7699
4840.33 42.0759 38.7337
4843.23 38.9132 37.5988
4846.13 40.3629 38.9736
4849.03 38.5871 37.0506
4851.93 40.7138 38.5192
4854.83 40.3538 37.8813
4857.73 43.9147 41.4462
4860.63 37.882 36.9503
4863.53 39.6348 37.8187
4866.43 43.3338 41.3809
4869.33 39.792 38.129
4872.23 40.9181 37.4802
4875.13 39.1823 38.2495
4878.03 41.9409 40.2904
4880.93 39.0784 38.5434
4883.83 42.9408 40.5724
4886.73 43.5468 41.4305
4889.63 44.4121 42.879
4892.53 46.2135 44.2802
4895.42 39.3975 38.6736
4898.32 47.3562 45.9818
4901.22 44.2745 42.7003
4904.12 46.91 45.7432
4907.02 42.217 39.9989
4909.92 43.8025 41.3329
4912.82 42.5438 41.3927
4915.72 42.6667 41.0823
4918.61 46.7656 45.498
4921.51 40.1054 38.2742
4924.41 38.7098 37.638
4927.31 40.7528 38.4724
4930.21 40.0749 38.3913
4933.1 42.3614 41.5377
4936 41.1059 39.0219
4938.9 38.9821 36.2506
4941.8 39.7232 38.1305
4944.7 37.2839 35.9364
4947.59 38.7012 37.2596
4950.49 39.2405 37.7248
4953.39 39.1152 37.281
4956.29 39.4247 37.5593
4959.18 35.3846 33.7199
4962.08 37.054 34.5867
4964.98 39.8544 38.38
4967.88 41.5231 39.1436
4970.77 42.8185 41.3195
4973.67 38.2964 37.2283
4976.57 40.2474 38.4541
4979.46 40.9312 39.3248
4982.36 41.9134 39.8486
4985.26 42.0476 41.1942
4988.15 44.2206 41.6163
4991.05 38.6194 36.0325
4993.95 39.0107 37.161
4996.84 41.7801 39.8922
4999.74 40.5283 39.1709
5002.64 43.2734 42.163
5005.53 41.4819 40.4709
5008.43 42.3892 40.2819
5011.32 40.5362 38.5573
5014.22 41.1137 39.8923
5017.12 43.134 41.7713
5020.01 43.7061 43.4977
5022.91 45.0033 43.6824
5025.8 44.4158 42.1814
5028.7 40.8859 39.0899
5031.59 40.4187 38.8262
5034.49 45.3862 43.5974
5037.39 44.8823 43.5927
5040.28 42.7647 39.9058
5043.18 44.9358 42.809
5046.07 46.3786 44.5807
5048.97 45.6103 43.4512
5051.86 46.7986 45.5351
5054.76 42.1583 40.7089
5057.65 44.3112 42.2991
5060.55 43.2049 41.7188
5063.44 44.8317 42.6494
5066.34 46.0885 45.346
5069.23 44.2192 42.6781
5072.12 45.2041 43.1117
5075.02 43.0903 41.9324
5077.91 45.9909 44.0325
5080.81 44.4977 42.0725
5083.7 45.9547 44.1482
5086.6 44.9628 43.0039
5089.49 45.1023 43.4394
5092.38 44.7498 43.296
5095.28 46.2752 43.4336
5098.17 45.9324 44.4405
5101.06 43.5164 42.1596
5103.96 44.6599 42.7376
5106.85 47.489 45.1824
5109.74 45.1623 43.1238
5112.64 45.1992 43.5942
5115.53 46.8708 44.3861
5118.42 41.4615 40.1317
5121.32 43.8463 43.2016
5124.21 46.9716 45.4166
5127.1 45.6777 43.0016
5130 42.9532 40.8476
5132.89 45.1992 44.004
5135.78 48.5205 46.5038
5138.67 43.7552 41.3561
5141.57 46.9711 45.4693
5144.46 45.6166 44.512
5147.35 46.1504 44.0732
5150.24 46.9804 45.8665
5153.14 47.4452 44.743
5156.03 48.0207 46.0201
5158.92 47.2132 45.6043
5161.81 44.1062 42.1991
5164.7 44.8685 43.0705
5167.6 46.6551 44.9555
5170.49 43.4246 41.1167
5173.38 48.8604 46.2611
5176.27 47.3345 45.5806
5179.16 45.5117 44.3204
5182.05 48.043 45.9536
5184.94 48.2648 47.3061
5187.84 49.1921 47.6542
5190.73 48.1635 46.6314
5193.62 51.2777 49.2686
5196.51 46.729 45.0782
5199.4 47.7765 46.4257
5202.29 48.516 46.5416
5205.18 45.4894 44.0181
5208.07 46.8262 45.9776
5210.96 46.0861 44.6468
5213.85 49.0132 46.984
5216.74 47.3223 46.4781
5219.63 48.9962 46.4245
5222.52 43.4191 41.6348
5225.41 45.3113 43.2613
5228.3 48.0556 45.78
5231.19 45.3566 43.8953
5234.08 44.9585 43.2415
5236.97 45.6414 44.9374
5239.86 46.9803 45.6444
5242.75 46.5146 45.1656
5245.64 45.6736 45.0746
5248.53 45.0404 43.1548
5251.42 44.155 42.1578
5254.31 42.9448 41.136
5257.2 44.3248 42.6439
5260.09 47.0003 45.2328
5262.98 48.46 45.5666
5265.86 46.0165 44.8103
5268.75 43.1296 42.677
5271.64 44.7441 43.2524
5274.53 48.4857 46.4948
5277.42 44.8643 42.98
5280.31 48.2043 46.2725
5283.2 46.4307 44.856
5286.08 47.706 45.6667
5288.97 46.6327 44.9807
5291.86 45.7079 44.46
5294.75 46.9495 44.8874
5297.64 50.3035 48.9815
5300.52 51.8578 49.5928
5303.41 48.0769 46.5938
5306.3 47.2963 46.6738
5309.19 48.6068 47.7188
5312.07 50.2462 48.997
5314.96 49.1253 47.7112
5317.85 50.6279 47.9026
5320.74 50.8615 49.7082
5323.62 51.5603 49.174
5326.51 51.4912 49.5669
5329.4 51.4865 50.0353
5332.28 44.6499 43.4746
5335.17 53.5166 51.7325
5338.06 48.8899 47.9516
5340.94 46.9032 45.3388
5343.83 48.2867 46.9865
5346.72 48.7765 46.8925
5349.6 48.2983 46.6646
5352.49 48.7155 47.0567
5355.38 46.6558 45.0202
5358.26 50.4763 49.1875
5361.15 53.1619 51.3079
5364.03 52.7125 50.8182
5366.92 51.5186 49.49
5369.8 52.7785 51.8213
5372.69 55.654 54.1799
5375.58 52.627 51.0707
5378.46 48.0501 46.6971
5381.35 49.4789 48.664
5384.23 49.957 49.3141
5387.12 52.5934 51.1723
5390 55.1019 54.0715
5392.89 55.0767 53.9859
5395.77 53.6536 51.8197
5398.66 55.52 54.1483
5401.54 54.0449 53.0999
5404.42 50.5061 49.5508
5407.31 49.1615 48.7724
5410.19 51.6845 50.0774
5413.08 48.5959 46.8125
5415.96 53.4622 51.8183
5418.85 47.9612 47.3395
5421.73 50.7524 49.8654
5424.61 51.9645 51.1308
5427.5 50.6781 49.9517
5430.38 53.6697 51.7561
5433.26 53.8636 52.1556
5436.15 55.5099 54.4097
5439.03 55.1871 54.0734
5441.91 54.92 52.0805
5444.8 54.0457 52.8602
5447.68 53.6563 52.0344
5450.56 54.5652 53.7181
5453.45 51.3169 50.9382
5456.33 53.6317 52.6114
5459.21 52.6192 51.7313
5462.09 53.9071 52.6522
5464.98 54.1533 53.2337
5467.86 53.5441 52.8692
5470.74 52.7898 51.0607
5473.62 54.5851 52.7293
5476.51 53.3656 52.1467
5479.39 50.9311 49.4561
5482.27 52.5738 51.9888
5485.15 52.3209 50.8076
5488.03 50.5751 48.8118
5490.91 54.1253 53.1533
5493.8 53.0827 51.7977
5496.68 54.1353 53.0697
5499.56 51.4078 50.058
5502.44 52.2009 51.8985
5505.32 52.3806 51.7036
5508.2 53.5547 52.6241
5511.08 58.532 57.1599
5513.96 52.9799 51.4238
5516.84 50.6486 50.5941
5519.73 55.155 55.0443
5522.61 55.5126 53.4644
5525.49 56.1853 55.4431
5528.37 53.0821 51.9232
5531.25 51.4069 50.309
5534.13 52.7935 52.1525
5537.01 54.9491 53.5994
5539.89 52.8083 52.6742
5542.77 52.3917 50.8698
5545.65 53.6015 52.1477
5548.53 53.1452 52.1116
5551.41 52.9085 51.6602
5554.28 52.6443 51.0827
5557.16 52.2412 51.7199
5560.04 54.5335 53.7027
5562.92 55.1231 54.3546
5565.8 58.571 57.7738
5568.68 59.4603 59.3418
5571.56 61.3496 61.5668
5574.44 53.7768 53.7326
5577.32 56.69 55.0306
5580.19 62.6572 62.9225
5583.07 58.4301 55.9484
5585.95 54.8657 54.6812
5588.83 54.6031 53.518
5591.71 52.9503 51.6445
5594.59 51.9615 50.9824
5597.46 55.4753 54.875
5600.34 53.1615 52.7586
5603.22 56.1928 55.4869
5606.1 59.6604 57.6808
5608.97 54.3287 54.0584
5611.85 55.4415 53.8715
5614.73 51.5968 50.6595
5617.61 53.921 53.6857
5620.48 55.1609 54.7471
5623.36 57.4565 56.3432
5626.24 54.3478 53.7857
5629.11 53.8039 53.2139
5631.99 58.1573 58.5098
5634.87 58.6207 57.6953
5637.74 55.7076 54.2382
5640.62 56.9053 55.1462
5643.49 54.3659 54.8858
5646.37 52.7927 53.4484
5649.25 55.991 55.4728
5652.12 55.4726 54.0699
5655 54.7728 53.8536
5657.87 53.1115 54.1109
5660.75 54.734 53.809
5663.63 55.183 55.4671
5666.5 51.7687 51.7447
5669.38 52.8982 52.6838
5672.25 52.215 51.7669
5675.13 55.9513 55.7714
5678 52.3512 51.689
5680.88 53.9925 53.5996
5683.75 53.027 52.5053
5686.62 52.8665 51.8362
5689.5 55.7415 55.8166
5692.37 57.551 56.0934
5695.25 52.6274 53.1002
5698.12 56.224 56.2443
5701 56.4009 56.3081
5703.87 54.6652 55.3171
5706.74 54.883 54.9956
5709.62 55.7345 56.1055
5712.49 52.387 52.3465
5715.36 59.5361 58.4648
5718.24 53.5596 53.1903
5721.11 56.7478 56.8792
5723.98 54.5845 54.6353
5726.86 56.1232 55.5606
5729.73 56.6482 55.5963
5732.6 53.3115 53.3776
5735.48 57.3237 56.1843
5738.35 55.1752 55.1602
5741.22 56.924 56.3448
5744.09 56.2453 55.1568
5746.97 57.2396 56.5442
5749.84 57.3462 55.5363
5752.71 55.4114 54.6425
5755.58 56.8005 55.9099
5758.45 59.0043 57.632
5761.33 60.0119 58.7462
5764.2 55.2297 54.3769
5767.07 55.9 53.902
5769.94 61.0162 60.241
5772.81 56.7369 55.3334
5775.68 58.1829 55.7376
5778.55 60.3729 57.8791
5781.43 55.4516 53.5555
5784.3 56.2616 53.7871
5787.17 61.4324 58.1533
5790.04 57.7615 55.0413
5792.91 57.9478 54.973
5795.78 58.2403 54.9988
5798.65 58.3899 55.9487
5801.52 59.6094 55.9122
5804.39 61.166 57.5459
5807.26 58.6972 54.5092
5810.13 64.7915 59.7841
5813 62.8116 57.7811
5815.87 66.9623 62.1321
5818.74 63.2507 58.647
5821.61 66.4211 60.6496
5824.48 62.7622 57.1298
5827.34 62.1988 58.1763
5830.21 62.6098 57.6456
5833.08 65.0845 59.6272
5835.95 64.8959 59.2861
5838.82 63.1986 57.0685
5841.69 62.6799 57.8646
5844.56 62.8625 58.1262
5847.43 64.5704 58.9376
5850.29 65.2791 59.1436
5853.16 62.6424 57.2898
5856.03 60.3088 55.7003
5858.9 64.7971 60.9242
5861.77 68.4396 63.3665
5864.63 64.4981 59.7885
5867.5 59.273 55.9225
5870.37 62.3179 57.6686
5873.24 62.1338 57.1693
5876.1 63.8124 60.2273
5878.97 59.8541 55.1995
5881.84 65.1428 59.8298
5884.7 63.2866 57.9529
5887.57 68.9755 63.4371
5890.44 64.5946 59.6765
5893.3 59.3862 56.0626
5896.17 65.0082 61.2802
5899.04 58.5559 55.7603
5901.9 58.6189 55.9282
5904.77 60.5471 56.2899
5907.63 60.481 57.2046
5910.5 61.3812 58.8527
5913.37 60.1547 56.9913
5916.23 62.9622 59.3599
5919.1 64.035 60.3852
5921.96 65.8693 61.9981
5924.83 66.7834 63.1596
5927.69 64.8645 60.9641
5930.56 64.2673 62.0185
5933.42 61.7623 58.8393
5936.29 60.1696 57.1027
5939.15 62.871 59.1667
5942.02 61.0872 58.0322
5944.88 59.9056 56.9757
5947.74 62.8965 59.5433
5950.61 64.2161 60.8487
5953.47 60.7036 57.1224
5956.34 62.0864 58.3754
5959.2 63.5124 59.4008
5962.06 63.9385 61.2781
5964.93 64.8573 61.6032
5967.79 63.1292 59.7863
5970.65 61.2558 58.8637
5973.52 61.3448 57.3362
5976.38 55.5379 52.132
5979.24 52.1933 49.2601
5982.11 52.9012 50.2511
5984.97 57.3274 54.3807
5987.83 56.2339 52.4807
5990.69 58.2598 55.2431
5993.56 56.5655 53.6129
5996.42 59.5372 56.8075
5999.28 61.4154 57.6091
6002.14 63.9006 61.4483
6005 62.5544 59.2333
6007.86 61.4588 58.5698
6010.73 56.9603 55.5196
6013.59 61.1827 59.1488
6016.45 62.1044 60.7702
6019.31 61.9682 60.2257
6022.17 62.8975 62.1395
6025.03 59.2847 58.5713
6027.89 62.9863 61.7202
6030.75 60.2836 59.4384
6033.61 60.9056 59.0575
6036.47 60.1926 59.3462
6039.33 60.9907 59.4182
6042.2 61.2155 59.4762
6045.06 58.8603 58.041
6047.92 62.3875 60.584
6050.77 61.5384 60.507
6053.63 64.8098 64.2212
6056.49 62.3887 60.6171
6059.35 58.8311 58.1129
6062.21 57.8021 57.2169
6065.07 59.6105 58.4219
6067.93 62.814 60.6041
6070.79 61.4532 59.0076
6073.65 63.0609 62.2816
6076.51 60.3881 59.5226
6079.37 62.5458 61.7417
6082.22 61.5215 60.6696
6085.08 59.642 58.6856
6087.94 59.3867 58.3758
6090.8 63.3048 62.5524
6093.66 59.3773 58.2783
6096.51 63.5272 62.2743
6099.37 59.4528 58.9421
6102.23 60.3247 58.7544
6105.09 63.0747 61.5452
6107.94 60.0089 58.8895
6110.8 62.5527 61.3978
6113.66 58.1978 56.4069
6116.52 60.4908 59.3375
6119.37 61.7814 61.1926
6122.23 61.9915 60.6369
6125.09 63.8457 63.4715
6127.94 62.3294 61.5059
6130.8 64.1785 62.7688
6133.65 63.7448 62.9542
6136.51 63.7645 62.8772
6139.37 61.9774 60.5627
6142.22 62.8097 61.6139
6145.08 61.7565 61.2514
6147.93 63.4277 63.4127
6150.79 64.2695 62.3892
6153.64 62.9717 62.3155
6156.5 62.3434 61.2257
6159.35 63.7151 62.9535
6162.21 60.7459 59.5092
6165.06 63.5767 62.9229
6167.92 63.3796 62.0161
6170.77 64.9885 64.2716
6173.63 60.8167 60.5951
6176.48 61.0727 60.5819
6179.33 62.7556 62.9284
6182.19 64.3414 64.1128
6185.04 63.4986 62.6127
6187.9 63.1365 62.0555
6190.75 58.4159 58.3293
6193.6 62.5775 62.2694
6196.46 59.9712 59.1227
6199.31 57.8997 58.1344
6202.16 62.0821 61.7532
6205.01 61.2706 60.1366
6207.87 60.9131 60.96
6210.72 64.2814 63.4904
6213.57 60.4707 59.9466
6216.43 60.0211 59.7265
6219.28 63.471 63.0675
6222.13 62.3499 61.2297
6224.98 58.3259 58.1908
6227.83 62.3198 61.9029
6230.68 59.5402 59.1968
6233.54 59.5768 58.3999
6236.39 59.8987 60.0905
6239.24 65.5766 63.1899
6242.09 61.3027 61.1883
6244.94 61.08 59.8606
6247.79 62.7575 60.3254
6250.64 59.5477 58.7154
6253.49 56.3769 56.1099
6256.34 57.2321 57.4047
6259.19 56.543 56.6316
6262.04 58.6287 58.867
6264.89 59.0476 58.7148
6267.74 57.9902 57.2794
6270.59 58.6122 59.9156
6273.44 60.2733 59.5994
6276.29 60.4459 59.7208
6279.14 59.1488 58.6136
6281.99 58.0522 57.6347
6284.84 59.5369 59.7449
6287.69 56.0777 55.9158
6290.54 61.2043 61.6357
6293.39 58.767 57.7537
6296.24 58.8271 59.553
6299.08 59.9919 60.0054
6301.93 59.5432 60.6413
6304.78 58.8749 58.564
6307.63 55.5973 54.9026
6310.48 56.0509 57.1186
6313.32 58.2608 58.4801
6316.17 54.5989 55.6891
6319.02 59.9522 59.2036
6321.87 58.6592 58.9953
6324.71 58.3131 58.5941
6327.56 61.4561 61.165
6330.41 53.8731 54.3491
6333.25 58.3981 57.8981
6336.1 60.5898 60.2019
6338.95 59.7636 60.4037
6341.79 53.7632 54.1224
6344.64 58.3787 58.1608
6347.49 60.5949 60.9299
6350.33 56.839 57.3601
6353.18 60.248 59.4845
6356.02 58.1041 58.3209
6358.87 62.5989 62.827
6361.71 62.6429 63.4015
6364.56 60.2101 60.9075
6367.4 59.5895 59.7994
6370.25 59.4576 58.7595
6373.09 61.7722 63.324
6375.94 58.4735 57.8189
6378.78 57.5775 56.8684
6381.63 62.6454 63.0959
6384.47 60.5944 61.1716
6387.32 60.7997 60.5761
6390.16 58.1735 58.3073
6393 60.2529 60.7531
6395.85 60.6027 61.2211
6398.69 60.0845 60.088
6401.53 63.2106 62.9506
6404.38 61.3136 62.4892
6407.22 62.091 62.6692
6410.06 62.1038 62.3262
6412.91 62.2829 62.7015
6415.75 57.6943 58.0679
6418.59 63.0927 64.012
6421.43 61.0328 61.1139
6424.28 65.6382 67.0239
6427.12 58.3072 58.4842
6429.96 61.6051 62.9523
6432.8 57.5665 58.7694
6435.64 60.8244 61.0644
6438.49 62.3295 62.6773
6441.33 60.2512 60.74
6444.17 61.1062 60.8983
6447.01 58.3022 59.0344
6449.85 61.1905 61.3583
6452.69 62.0804 62.8629
6455.53 59.3746 59.992
6458.37 60.9301 61.9642
6461.21 57.8773 58.2324
6464.05 59.8615 60.8406
6466.89 60.6815 61.672
6469.73 60.6719 62.0755
6472.57 63.3128 63.7164
6475.41 61.1725 61.9086
6478.25 61.1562 62.0975
6481.09 62.7343 63.7825
6483.93 62.2955 63.4528
6486.77 62.8974 62.6461
6489.61 57.7918 58.1053
6492.45 58.2512 59.1069
6495.29 59.1143 59.265
6498.12 62.0217 63.2643
6500.96 61.5639 62.4941
6503.8 61.7619 62.4443
6506.64 59.7904 60.4467
6509.48 56.1504 57.4783
6512.31 55.9292 56.7399
6515.15 56.4457 56.9992
6517.99 58.1034 59.3325
6520.83 60.6448 61.3167
6523.66 59.6906 60.222
6526.5 62.3821 64.3248
6529.34 57.4674 58.4276
6532.17 62.2622 62.9204
6535.01 57.5297 58.5685
6537.85 59.0918 59.6905
6540.68 63.678 63.7446
6543.52 60.1083 60.9048
6546.36 59.149 59.8535
6549.19 58.1898 58.7193
6552.03 59.2592 61.2515
6554.86 58.0982 58.571
6557.7 62.126 63.1348
6560.53 59.5281 60.3539
6563.37 59.7568 60.834
6566.2 60.6246 61.6844
6569.04 58.5696 59.2061
6571.87 58.0071 58.4403
6574.71 61.1326 62.8982
6577.54 62.8146 63.5611
6580.38 57.0867 58.1152
6583.21 59.7411 60.3397
6586.04 61.8215 62.8057
6588.88 57.922 58.6422
6591.71 55.9389 57.0756
6594.54 58.1072 58.8838
6597.38 61.0261 61.7469
6600.21 58.4381 58.6472
6603.04 60.101 60.6059
6605.88 60.8473 62.4612
6608.71 59.1399 59.9333
6611.54 63.1643 64.5726
6614.37 58.0573 59.2728
6617.21 66.5871 67.7591
6620.04 62.5005 63.5196
6622.87 61.6307 62.6014
6625.7 63.4661 64.6033
6628.53 61.6251 61.7591
6631.37 63.389 63.9273
6634.2 62.4921 64.0851
6637.03 60.0524 61.3999
6639.86 66.2473 68.0081
6642.69 64.5837 65.8203
6645.52 68.688 71.2184
6648.35 68.0135 69.7314
6651.18 66.0324 68.1201
6654.01 70.5367 71.4059
6656.84 87.3258 90.2644
6659.67 99.5958 104.632
6662.5 105.698 108.697
6665.33 101.573 101.82
6668.16 86.6061 86.7097
6670.99 77.9587 78.8498
6673.82 71.2191 72.154
6676.65 71.0797 72.436
6679.48 76.2809 79.0812
6682.31 75.5717 78.5424
6685.13 77.7184 79.7304
6687.96 74.0484 76.0153
6690.79 67.5642 68.9024
6693.62 66.4657 67.2644
6696.45 64.4955 67.236
6699.27 64.5552 65.9134
6702.1 61.1686 64.1102
6704.93 68.2923 70.2816
6707.76 61.9235 63.7255
6710.58 63.1701 64.7956
6713.41 63.1331 65.6342
6716.24 64.3655 66.202
6719.06 65.9562 67.3763
6721.89 66.1121 68.6775
6724.72 66.5971 68.0406
6727.54 64.7886 66.1936
6730.37 65.059 66.9102
6733.19 60.5642 63.1038
6736.02 61.1463 62.1103
6738.85 61.6194 64.0981
6741.67 65.0347 66.3178
6744.5 63.1662 64.4793
6747.32 61.4173 63.1569
6750.15 62.8537 64.3429
6752.97 61.7005 62.3475
6755.8 67.2863 68.4834
6758.62 64.4985 64.8954
6761.44 59.9204 61.4332
6764.27 67.3851 67.9187
6767.09 61.1167 62.2417
6769.92 66.7843 67.0858
6772.74 63.7064 64.4605
6775.56 63.4933 64.3406
6778.39 62.461 62.2967
6781.21 63.8137 64.1476
6784.03 67.0343 66.4846
6786.86 67.1734 66.6686
6789.68 68.1854 68.3669
6792.5 64.1224 64.2798
6795.32 67.2973 66.1158
6798.15 67.2315 65.8197
6800.97 70.7723 69.2119
6803.79 63.5486 62.8208
6806.61 65.6678 64.3575
6809.43 65.5734 63.8185
6812.25 68.7551 66.8095
6815.08 71.7666 70.4375
6817.9 76.8728 74.3275
6820.72 71.9306 69.3943
6823.54 71.9386 68.4767
6826.36 71.3753 68.6571
6829.18 69.5439 67.5075
6832 67.5369 63.6444
6834.82 71.7976 68.7323
6837.64 71.3264 67.9817
6840.46 66.9513 63.2199
6843.28 63.9601 61.2072
6846.1 64.2383 61.752
6848.92 61.5549 59.9178
6851.74 67.3994 64.1424
6854.56 63.813 60.7892
6857.37 63.9117 61.3966
6860.19 64.821 61.7345
6863.01 63.1143 59.1207
6865.83 53.337 51.2551
6868.65 54.4085 51.4716
6871.47 52.6084 49.9321
6874.28 52.1354 49.3157
6877.1 52.222 48.9157
6879.92 58.0236 55.7781
6882.74 60.227 56.5855
6885.55 60.4083 57.0765
6888.37 58.0488 55.4568
6891.19 60.248 57.0385
6894 58.4517 55.7174
6896.82 58.9902 56.9019
6899.64 57.7508 55.6587
6902.45 58.0045 55.7541
6905.27 61.5989 58.457
6908.08 62.739 59.9017
6910.9 63.884 61.4884
6913.72 69.1604 65.2147
6916.53 64.1965 61.3243
6919.35 64.9714 61.9604
6922.16 61.073 58.2841
6924.98 66.2861 64.3995
6927.79 62.1101 60.5202
6930.6 62.7604 59.6519
6933.42 62.1007 61.1144
6936.23 61.1583 58.7797
6939.05 63.7277 61.7201
6941.86 61.469 60.5056
6944.67 64.8517 63.0806
6947.49 60.714 60.4103
6950.3 59.1315 58.3331
6953.11 63.1893 61.8057
6955.93 63.7861 61.9003
6958.74 64.2079 63.3683
6961.55 65.4844 63.6922
6964.37 64.6148 63.5565
6967.18 64.2973 63.536
6969.99 62.7433 62.0691
6972.8 64.7525 64.2445
6975.61 65.7593 65.5962
6978.42 67.0021 65.8734
6981.24 64.5992 63.5365
6984.05 64.5003 64.7872
6986.86 64.638 64.6474
6989.67 63.2343 62.9715
6992.48 66.024 65.9815
6995.29 65.191 64.0504
6998.1 64.3608 63.9453
7000.91 64.5905 65.7465
7003.72 62.0295 62.0356
7006.53 62.5456 61.8167
7009.34 65.0559 63.4744
7012.15 64.4584 65.0215
7014.96 67.4117 67.2192
7017.77 62.3397 63.9867
7020.58 65.1096 66.0944
7023.39 63.1679 65.0755
7026.2 62.0175 62.4706
7029 63.9529 65.3383
7031.81 59.0868 60.1043
7034.62 60.7419 63.0871
7037.43 65.5081 66.2604
7040.24 60.8016 61.9481
7043.04 63.2086 63.5373
7045.85 64.1175 64.9252
7048.66 60.3395 61.4865
7051.47 63.1787 64.1598
7054.27 62.2324 63.2179
7057.08 62.6032 63.4285
7059.89 63.8232 64.8589
7062.69 61.2709 62.0024
7065.5 67.5055 68.56
7068.31 62.1468 64.2891
7071.11 64.289 65.3048
7073.92 61.3216 63.0026
7076.72 66.7227 66.7327
7079.53 67.1589 69.6151
7082.33 65.565 65.5591
7085.14 64.2409 66.2077
7087.94 63.2245 64.8865
7090.75 64.6463 65.9221
7093.55 63.604 64.9409
7096.36 62.9468 65.4568
7099.16 63.5307 63.4856
7101.97 61.8445 62.8832
7104.77 60.9985 62.8555
7107.57 64.2458 65.8395
7110.38 65.8985 67.7569
7113.18 59.4147 59.4543
7115.98 63.0912 64.4429
7118.79 63.7742 64.7593
7121.59 63.7095 66.1777
7124.39 63.138 64.1348
7127.19 63.8029 64.996
7130 59.004 61.4105
7132.8 65.0522 66.6362
7135.6 63.412 65.3682
7138.4 63.3796 65.9245
7141.2 66.0486 67.1787
7144 64.0367 64.9686
7146.81 60.563 62.0354
7149.61 60.5385 61.2344
7152.41 63.7483 64.9687
7155.21 67.3346 71.3395
7158.01 61.1277 64.6492
7160.81 66.1606 66.4718
7163.61 60.8973 62.011
7166.41 57.9426 59.4267
7169.21 56.7728 57.7925
7172.01 57.1339 59.4493
7174.81 53.1263 53.2356
7177.61 56.5224 55.9992
7180.41 53.3618 55.8529
7183.2 54.6942 56.7089
7186 50.8349 51.3115
7188.8 53.6271 55.7335
7191.6 50.5533 52.0207
7194.4 52.2184 52.2913
7197.2 52.4739 53.7155
7199.99 51.8296 53.9055
7202.79 60.1921 61.5204
7205.59 54.8868 56.7134
7208.39 53.127 55.0992
7211.18 61.3419 64.1534
7213.98 59.0865 60.3961
7216.78 60.5945 62.2156
7219.57 59.7572 61.4623
7222.37 55.6199 56.4603
7225.17 57.1837 60.1224
7227.96 55.164 57.3437
7230.76 54.1377 54.8621
7233.55 56.4067 56.6002
7236.35 57.1647 58.8382
7239.14 47.3123 51.9262
7241.94 53.067 52.4147
7244.73 51.1098 53.107
7247.53 54.2502 58.2659
7250.32 49.8123 51.3334
7253.12 56.6478 58.22
7255.91 53.211 54.6747
7258.71 50.341 52.0355
7261.5 54.2783 56.419
7264.29 52.5882 54.8985
7267.09 49.5762 50.6835
7269.88 52.3692 55.5919
7272.67 50.6393 52.4126
7275.47 54.4361 56.1101
7278.26 54.0919 58.0382
7281.05 57.17 57.4299
7283.84 57.0234 60.2922
7286.63 56.0195 57.6684
7289.43 55.5323 58.4359
7292.22 57.8111 60.6121
7295.01 53.2482 55.7089
7297.8 57.1754 58.4114
7300.59 52.5666 54.6242
7303.38 53.2516 56.9117
7306.17 52.232 54.0161
7308.96 55.3549 56.8762
7311.76 54.2787 54.6907
7314.55 55.1348 56.6983
7317.34 59.2756 60.7293
7320.13 60.7303 63.1446
7322.92 61.7255 64.7389
7325.7 58.8678 62.4115
7328.49 58.0667 58.8664
7331.28 60.1812 63.2494
7334.07 62.722 64.9566
7336.86 52.1682 55.7945
7339.65 61.313 63.3343
7342.44 59.6195 61.1939
7345.23 59.7851 65.01
7348.01 60.6104 64.0305
7350.8 59.1525 60.6794
7353.59 54.2144 57.0537
7356.38 59.9207 62.3993
7359.16 61.2116 62.1142
7361.95 54.5128 56.0862
7364.74 60.1272 61.4865
7367.52 57.5052 59.5515
7370.31 64.3326 63.7682
7373.1 62.1773 64.792
7375.88 57.2456 59.6579
7378.67 62.0244 63.4702
7381.46 59.478 61.6793
7384.24 56.9642 60.607
7387.03 58.9801 60.6243
7389.81 58.9813 61.1039
7392.6 57.9176 60.0532
7395.38 59.0019 59.7546
7398.17 59.3393 62.1633
7400.95 56.3975 59.0388
7403.73 61.6141 66.6255
7406.52 62.1202 64.6922
7409.3 60.0402 63.3549
7412.09 58.5853 60.6914
7414.87 58.1425 59.387
7417.65 60.322 61.7842
7420.44 60.6866 62.9575
7423.22 58.4303 59.9272
7426 60.2635 62.8374
7428.78 58.0744 59.9277
7431.57 65.6068 67.3421
7434.35 60.8783 62.4779
7437.13 59.9597 63.1521
7439.91 65.1438 66.5636
7442.69 63.3044 64.4514
7445.48 63.749 67.5881
7448.26 64.379 65.3769
7451.04 63.6701 66.8277
7453.82 61.3986 63.6478
7456.6 63.6667 65.6467
7459.38 61.9272 64.3529
7462.16 62.8515 64.1341
7464.94 64.4351 67.5012
7467.72 65.4418 68.3155
7470.5 56.107 58.5213
7473.28 62.2479 64.8911
7476.06 65.2234 68.5324
7478.84 61.4288 64.6361
7481.62 66.0208 67.2122
7484.39 63.0276 64.4544
7487.17 63.7956 65.8434
7489.95 67.1244 69.3427
7492.73 60.2449 61.3753
7495.51 60.8881 63.4391
7498.28 58.837 61.7116
7501.06 61.9652 65.0388
7503.84 62.6262 64.2461
7506.62 60.0498 63.2143
7509.39 64.7805 67.6541
7512.17 59.85 62.3438
7514.95 62.5623 64.5005
7517.72 60.4552 63.3693
7520.5 62.6829 64.228
7523.27 59.3043 61.1252
7526.05 59.6497 61.4017
7528.83 66.9471 68.7913
7531.6 59.4445 63.3171
7534.38 61.5008 63.3361
7537.15 55.1194 56.5398
7539.93 56.8989 60.9781
7542.7 58.9723 59.9896
7545.47 57.0582 60.4001
7548.25 58.3502 59.7189
7551.02 55.926 58.8281
7553.8 55.9697 57.6457
7556.57 57.1082 58.8215
7559.34 57.5042 58.9599
7562.12 61.3475 65.1905
7564.89 58.668 60.748
7567.66 60.5596 62.4412
7570.43 56.96 59.0674
7573.21 57.9726 58.7681
7575.98 60.1961 62.0723
7578.75 56.8258 57.3363
7581.52 59.1744 62.2463
7584.29 56.8022 58.8193
7587.07 54.6094 58.1621
7589.84 50.096 53.3757
7592.61 41.8589 42.8347
7595.38 26.7748 27.6784
7598.15 23.223 23.3565
7600.92 17.6977 16.8886
7603.69 15.1148 15.3655
7606.46 18.1998 18.3731
7609.23 21.4475 21.0563
7612 28.1602 28.695
7614.77 39.0407 40.5509
7617.54 37.16 38.8667
7620.31 36.781 38.5902
7623.08 37.6034 37.7621
7625.84 32.1567 32.4009
7628.61 33.3008 31.4877
7631.38 34.0551 33.9378
7634.15 30.8164 32.4921
7636.92 36.1697 36.1606
7639.68 39.3227 40.6801
7642.45 38.1666 38.533
7645.22 40.9699 41.942
7647.99 42.4487 41.2854
7650.75 45.3302 45.7801
7653.52 49.6896 50.0682
7656.28 50.0821 50.9065
7659.05 53.5384 53.3036
7661.82 54.7316 54.9228
7664.58 52.4797 52.1888
7667.35 56.9831 56.4903
7670.11 59.1913 59.4767
7672.88 57.315 56.1649
7675.64 59.7685 58.9834
7678.41 56.7013 55.6673
7681.17 59.1332 59.0712
7683.94 56.9577 58.7766
7686.7 59.5701 58.2342
7689.47 63.3827 62.8082
7692.23 58.714 58.1878
7694.99 57.6465 58.1799
7697.76 63.3004 61.3974
7700.52 61.3098 60.3698
7703.28 58.6569 55.8496
7706.04 63.5182 61.6532
7708.81 66.0481 62.8025
7711.57 58.6502 57.0979
7714.33 62.9305 60.7725
7717.09 57.6487 58.888
7719.85 60.9051 60.1113
7722.62 59.8424 61.2444
7725.38 61.7203 59.1534
7728.14 63.8725 62.6667
7730.9 61.5159 60.506
7733.66 62.9351 62.6512
7736.42 64.9839 62.1086
7739.18 64.4212 60.978
7741.94 61.4659 62.2515
7744.7 61.1206 59.7888
7747.46 61.9871 57.7013
7750.22 62.4035 60.0763
7752.98 67.2824 66.8499
7755.74 65.6897 63.0952
7758.5 66.8314 66.4567
7761.25 64.8504 64.2037
7764.01 65.6081 65.0826
7766.77 65.8415 65.2565
7769.53 68.3613 67.1327
7772.29 62.3344 62.4457
7775.04 60.953 59.0196
7777.8 57.2571 54.846
7780.56 59.8325 59.0143
7783.31 61.2276 60.3086
7786.07 61.0311 61.0505
7788.83 66.4059 61.1865
7791.58 59.9731 58.0935
7794.34 64.8199 66.3024
7797.1 63.5042 61.4937
7799.85 62.3237 61.8756
7802.61 64.9195 65.565
7805.36 55.2815 55.5577
7808.12 59.4519 62.0777
7810.87 64.2404 65.4164
7813.63 56.9842 57.1555
7816.38 56.4923 55.3702
7819.13 62.7691 61.5735
7821.89 63.2051 61.044
7824.64 63.4025 64.5801
7827.4 58.9339 58.5385
7830.15 62.4735 62.7496
7832.9 63.4826 63.7543
7835.65 57.8134 59.5038
7838.41 63.8195 64.3673
7841.16 63.2294 64.5081
7843.91 62.9277 65.4652
7846.66 65.9981 65.5014
7849.42 64.3644 63.4066
7852.17 63.9218 62.5597
7854.92 55.848 55.3987
7857.67 52.5109 55.4409
7860.42 57.9878 58.5117
7863.17 63.2062 62.098
7865.92 58.1049 58.8604
7868.67 55.8841 57.0504
7871.42 60.5214 60.38
7874.17 64.9066 66.6708
7876.92 60.1033 61.2738
7879.67 63.8779 63.8247
7882.42 65.9467 65.0639
7885.17 55.9328 54.9631
7887.92 65.7697 67.6125
7890.67 53.6662 54.7668
7893.42 59.7036 63.2534
7896.16 58.0537 60.2363
7898.91 61.4212 63.635
7901.66 63.0064 63.5972
7904.41 56.4326 58.3968
7907.15 54.0617 54.9683
7909.9 62.1442 65.4448
7912.65 53.8966 56.4569
7915.39 58.8417 62.7718
7918.14 66.3212 70.4367
7920.89 59.4463 60.7121
7923.63 65.8149 73.8488
7926.38 62.0768 66.9165
7929.12 57.1259 61.9508
7931.87 60.9714 68.679
7934.62 67.5174 68.7373
7937.36 61.0896 64.3256
7940.1 59.9913 64.5522
7942.85 57.6119 60.616
7945.59 63.2815 65.6862
7948.34 56.8001 61.8524
7951.08 54.8039 59.6274
7953.83 60.008 62.7863
7956.57 63.265 65.7092
7959.31 62.122 65.2916
7962.05 57.1301 61.7631
7964.8 58.0729 62.8884
7967.54 56.4793 57.2163
7970.28 65.1814 65.7262
7973.02 55.9402 60.8451
7975.77 55.8456 61.1414
7978.51 60.9294 66.5459
7981.25 61.764 67.0269
7983.99 55.8541 59.5039
7986.73 62.3903 66.2464
7989.47 59.985 61.2026
7992.21 59.9562 57.8093
7994.95 54.4121 61.3182
7997.69 57.9044 61.8213
8000.43 60.6201 63.1795
8003.17 59.4486 61.5035
8005.91 58.9123 62.6052
8008.65 56.7515 61.5365
8011.39 60.2197 66.1707
8014.13 58.7623 63.1042
8016.87 53.7135 58.5416
8019.61 58.0956 63.4647
8022.34 51.3091 55.6934
8025.08 62.2853 65.8327
8027.82 59.1111 59.7167
8030.56 63.3514 68.7469
8033.29 55.5471 56.9181
8036.03 58.6252 60.8419
8038.77 57.6462 61.1466
8041.51 58.6068 64.5503
8044.24 56.1232 61.7882
8046.98 57.7214 61.5946
8049.71 56.235 59.1147
8052.45 61.7717 67.4464
8055.18 59.4977 65.4311
8057.92 56.863 60.1547
8060.65 50.6163 53.9132
8063.39 57.6686 62.5222
8066.12 58.6084 66.2356
8068.86 61.2995 67.6054
8071.59 60.9007 66.7121
8074.33 57.9271 64.8576
8077.06 59.0213 61.2198
8079.79 57.9638 63.7812
8082.53 62.3917 70.3724
8085.26 59.691 70.2862
8087.99 59.6292 67.8092
8090.73 64.8993 71.8844
8093.46 60.7373 66.3815
8096.19 60.504 66.0841
8098.92 57.4699 64.6633
8101.65 54.0525 62.8141
8104.38 57.586 64.7497
8107.12 59.6451 64.1668
8109.85 55.4419 62.4069
8112.58 59.5786 65.3793
8115.31 57.1451 61.892
8118.04 65.1949 69.8451
8120.77 56.2464 61.2235
8123.5 56.1972 61.665
8126.23 59.0887 63.5431
8128.96 56.158 61.7086
8131.69 58.5937 65.1089
8134.42 55.5198 60.6871
8137.14 57.0787 61.4238
8139.87 51.9353 57.7747
8142.6 54.6095 60.1939
8145.33 52.1084 57.153
8148.06 57.0377 63.4694
8150.78 54.9224 61.5231
8153.51 51.2541 58.3124
8156.24 52.57 55.9582
8158.97 55.5408 59.0234
8161.69 52.8508 59.5509
8164.42 51.5678 56.4253
8167.15 54.6826 58.8303
8169.87 52.8748 56.4475
8172.6 52.8234 59.2668
8175.32 50.2936 58.1669
8178.05 55.7454 62.4309
8180.77 57.4332 63.8302
8183.5 52.8433 59.2188
8186.22 50.0383 55.9154
8188.95 51.6657 57.1973
8191.67 56.2586 62.8701
8194.4 55.0726 59.8439
8197.12 53.2334 59.8592
8199.84 56.5349 64.3226
8202.57 58.2875 65.9416
8205.29 55.0372 60.6492
8208.01 54.7139 60.1381
8210.73 58.0121 64.647
8213.46 55.055 59.9166
8216.18 56.9303 64.9183
8218.9 53.1606 58.0717
8221.62 51.4035 53.9633
8224.34 50.5904 56.0775
8227.06 41.8633 44.815
8229.79 48.9879 53.4719
8232.51 54.3315 60.1287
8235.23 55.3688 60.5349
8237.95 58.0957 61.7493
8240.67 69.0787 67.6257
8243.39 63.1376 67.5833
8246.11 57.5251 67.3895
8248.83 59.307 66.9625
8251.54 56.244 63.8369
8254.26 51.0237 59.6284
8256.98 56.1106 63.1785
8259.7 55.0165 62.4305
8262.42 57.5403 63.2527
8265.14 54.2074 62.9582
8267.85 56.0482 64.8874
8270.57 60.3387 68.4291
8273.29 59.0047 64.1314
8276.01 59.1557 65.582
8278.72 53.0387 58.6892
8281.44 47.9045 49.8586
8284.16 54.114 60.1274
8286.87 54.6782 56.9298
8289.59 54.8266 66.4266
8292.3 55.4764 68.1137
8295.02 51.9612 58.176
8297.73 60.0893 68.5686
8300.45 62.6424 71.6388
8303.16 54.4387 65.6285
8305.88 63.4399 73.7975
8308.59 61.4409 65.1893
8311.31 61.0692 67.9321
8314.02 56.2162 65.9589
8316.73 55.3162 59.4384
8319.45 58.0056 64.8374
8322.16 57.6428 67.6709
8324.87 59.3119 66.8499
8327.58 59.6483 68.4634
8330.3 58.0197 66.2765
8333.01 52.5742 59.6707
8335.72 55.8353 62.3038
8338.43 56.4096 62.6876
8341.14 47.1113 48.5511
8343.85 45.3114 56.0972
8346.56 63.4635 74.1278
8349.28 53.9352 70.6108
8351.99 67.7459 78.651
8354.7 52.5195 50.7918
8357.41 62.5035 76.9074
8360.12 55.6072 63.7082
8362.82 58.6446 62.7017
8365.53 61.5133 67.9442
8368.24 63.4671 76.7162
8370.95 62.1797 72.0222
8373.66 64.9823 73.9367
8376.37 59.1449 69.192
8379.08 63.4079 70.9196
8381.78 58.9198 61.4721
8384.49 62.2399 62.62
8387.2 58.3754 65.2075
8389.91 63.2682 69.4644
8392.61 62.3268 73.0243
8395.32 65.1021 73.7988
8398.03 61.7953 67.0805
8400.73 56.7746 60.458
8403.44 61.0381 71.7399
8406.14 56.362 66.9566
8408.85 60.183 68.2186
8411.55 62.15 66.0974
8414.26 55.1198 63.8276
8416.96 57.4171 61.0965
8419.67 55.0294 65.7967
8422.37 64.6664 71.8279
8425.08 55.4708 59.116
8427.78 57.3158 65.9309
8430.48 54.1411 59.6169
8433.19 64.1932 65.6737
8435.89 53.6868 61.5285
8438.59 57.4208 69.7196
8441.29 60.2917 65.1066
8444 56.0843 66.6526
8446.7 58.8813 70.3748
8449.4 55.6732 63.322
8452.1 58.4946 68.5107
8454.8 56.854 69.6218
8457.5 62.4741 76.9632
8460.2 57.8458 65.3068
8462.91 53.917 57.6053
8465.61 58.6748 57.2768
8468.31 54.8164 59.0269
8471.01 60.0832 65.6284
8473.7 58.4411 70.2437
8476.4 58.4108 66.5989
8479.1 63.3727 75.994
8481.8 60.1068 65.1999
8484.5 54.5181 64.1278
8487.2 61.4681 70.3286
8489.9 61.2163 72.9028
8492.59 58.3944 63.9615
8495.29 58.9653 65.5838
8497.99 54.3366 61.3382
8500.69 62.6067 71.7574
8503.38 61.3188 67.4101
8506.08 57.3873 64.3853
8508.78 59.154 68.5911
8511.47 56.1689 56.8688
8514.17 60.8964 66.8308
8516.86 62.9059 77.2777
8519.56 57.8653 65.6948
8522.25 60.5919 70.0394
8524.95 63.4815 70.2876
8527.64 55.5443 67.4299
8530.34 60.0082 68.694
8533.03 65.1962 73.2799
8535.73 64.844 74.3899
8538.42 62.7887 70.5589
8541.11 61.1798 66.735
8543.81 61.3819 67.336
8546.5 65.4739 73.8684
8549.19 63.7912 70.6274
8551.89 64.9155 73.3525
8554.58 59.7134 67.1348
8557.27 62.6603 65.7303
8559.96 63.4539 67.4101
8562.65 64.6961 71.2403
8565.34 61.2914 65.73
8568.03 60.8982 66.6255
8570.73 67.2654 74.3759
8573.42 64.0378 67.2408
8576.11 63.7005 66.9179
8578.8 60.0108 66.1371
8581.49 59.9573 66.5046
8584.17 63.2343 70.0167
8586.86 64.6776 67.9814
8589.55 67.1893 75.0801
8592.24 65.0638 74.6482
8594.93 63.4326 72.2248
8597.62 63.5501 66.4212
8600.31 65.4289 70.3834
8602.99 64.4117 70.7649
8605.68 59.3738 67.2212
8608.37 57.0407 63.3766
8611.06 63.1611 69.5521
8613.74 63.2678 66.8924
8616.43 65.4458 70.3571
8619.11 67.3135 77.8897
8621.8 61.4303 63.9297
8624.49 63.8928 71.446
8627.17 59.9619 66.0803
8629.86 57.4128 65.023
8632.54 58.2177 65.8192
8635.23 60.6274 67.6565
8637.91 71.6363 81.2662
8640.6 65.6487 76.8362
8643.28 60.2423 71.6551
8645.96 60.2116 69.4311
8648.65 57.104 62.8537
8651.33 69.4539 81.7105
8654.01 62.497 69.9141
8656.69 66.0981 76.0618
8659.38 64.5249 72.1947
8662.06 64.5289 75.6545
8664.74 62.4751 69.3646
8667.42 55.0426 69.7012
8670.1 55.0975 62.9111
8672.79 54.9166 68.1068
8675.47 49.2911 59.2601
8678.15 56.7068 68.772
8680.83 49.8795 57.9511
8683.51 55.2237 64.6735
8686.19 53.0382 65.4111
8688.87 62.2896 70.2379
8691.55 63.7712 78.9761
8694.23 61.6499 75.3223
8696.9 58.8763 70.2401
8699.58 63.8504 72.6562
8702.26 69.5482 83.8918
8704.94 62.4046 71.762
8707.62 63.4037 74.77
8710.29 64.3934 73.634
8712.97 58.5462 69.9707
8715.65 61.6036 73.7267
8718.33 60.0223 69.3243
8721 68.0205 82.1703
8723.68 60.0246 70.7613
8726.35 64.2944 75.2112
8729.03 66.2721 80.6366
8731.71 58.5842 66.9878
8734.38 60.1129 71.9157
8737.06 62.6248 74.4586
8739.73 58.6145 71.5832
8742.41 60.0356 70.0931
8745.08 67.0739 82.7547
8747.75 64.4844 77.7932
8750.43 63.4326 77.8992
8753.1 62.7516 75.1651
8755.77 66.7452 80.9955
8758.45 76.6513 97.0443
8761.12 66.8215 77.0725
8763.79 69.6595 96.9352
8766.46 72.5969 98.261
8769.14 70.577 95.9369
8771.81 63.5385 81.1672
8774.48 75.5362 103.11
8777.15 59.0621 76.5222
8779.82 53.825 66.6045
8782.49 53.7628 74.2788
8785.16 58.0193 87.0614
8787.83 62.1526 85.966
8790.5 59.0852 72.5778
8793.17 58.5034 72.3974
8795.84 45.9007 66.0504
8798.51 43.1091 57.8641
8801.18 52.7033 71.1076
8803.85 54.528 72.699
8806.52 56.4208 77.116
8809.18 56.9298 77.2819
8811.85 56.0214 77.9611
8814.52 58.3578 77.6604
8817.19 57.8538 74.1554
8819.85 58.893 84.6324
8822.52 76.789 108.236
8825.19 76.3341 120.506
8827.85 76.6785 113.915
8830.52 56.0152 71.4564
8833.18 47.441 55.989
8835.85 55.8218 92.9603
8838.51 42.7938 62.1812
8841.18 44.5692 61.1344
8843.84 53.9641 74.881
8846.51 54.1521 79.3369
8849.17 62.5188 87.6842
8851.84 56.875 83.2875
8854.5 54.1356 86.4854
8857.16 56.5485 83.0186
8859.83 53.5864 65.9285
8862.49 57.5548 80.748
8865.15 71.3734 100.061
8867.81 70.1069 97.7443
8870.48 59.2701 85.3555
8873.14 49.5811 65.1401
8875.8 62.8597 82.7504
8878.46 61.3883 94.7089
8881.12 80.2666 117.5
8883.78 81.9767 123.395
8886.44 74.5632 103.268
8889.1 51.8302 94.7975
8891.76 34.7712 65.0684
8894.42 39.5617 60.0951
8897.08 58.0254 84.6403
8899.74 73.2761 106.9
8902.4 64.9421 95.6333
8905.06 66.3197 92.073
8907.72 54.0568 72.9443
8910.37 44.7866 75.0864
8913.03 67.0086 108.407
8915.69 74.7565 98.7203
8918.35 86.5096 130.658
8921 69.6915 94.7319
8923.66 43.1372 69.4342
8926.32 28.044 37.313
8928.97 34.4946 27.8256
8931.63 54.7126 75.1949
8934.28 53.6938 63.732
8936.94 57.0316 85.6827
8939.59 58.1669 77.1185
8942.25 62.8011 90.5893
8944.9 59.5605 98.6233
8947.56 47.7314 65.2008
8950.21 44.0971 68.0193
8952.87 62.3062 88.5725
8955.52 64.7087 96.8056
8958.17 63.4862 103.141
8960.82 58.9853 102.935
8963.48 49.702 65.635
8966.13 19.7511 4.08542
8968.78 27.3344 14.4202
8971.43 43.4583 44.9507
8974.09 45.7628 54.071
8976.74 49.515 71.4917
8979.39 49.5285 66.6963
8982.04 51.8719 81.1505
8984.69 52.9865 79.2721
8987.34 50.3799 70.608
8989.99 55.1417 95.0779
8992.64 44.2116 74.0207
8995.29 37.6502 58.8435
8997.94 58.8056 84.9874
9000.59 60.6744 97.1162
9003.23 52.7023 98.1913
9005.88 60.6377 109.694
9008.53 46.7354 48.7086
9011.18 34.0306 16.1606
9013.83 47.0144 50.8163
9016.47 46.9107 53.6393
9019.12 49.2245 59.0032
9021.77 48.9267 73.6241
9024.41 50.2575 75.6162
9027.06 54.405 81.6689
9029.71 58.8556 90.6799
9032.35 52.364 83.5742
9035 52.3494 81.8075
9037.64 57.4583 94.4561
9040.29 62.0647 103.208
9042.93 56.4547 80.1589
9045.58 56.1555 73.6379
9048.22 56.5589 81.0792
9050.86 54.7241 88.9588
9053.51 53.8939 88.189
9056.15 59.406 85.3681
9058.79 49.3706 63.5182
9061.44 46.2443 50.8045
9064.08 50.3014 71.5933
9066.72 62.0622 90.7175
