wavelength spec_sum spec_optimal
3527.11 1568.61 1595
3530.02 1497.44 1476.8
3532.94 1505.66 1525.94
3535.86 1509.27 1505.67
3538.78 1540.99 1532.16
3541.69 1536.88 1546.17
3544.61 1669.67 1693.75
3547.53 1669.64 1650.39
3550.44 1599.85 1628.74
3553.36 1667.49 1659.31
3556.28 1615.26 1613.01
3559.19 1600.39 1578.14
3562.11 1625.35 1585.13
3565.03 1532.14 1521.44
3567.94 1586.4 1581.53
3570.86 1524.05 1533.87
3573.78 1582.43 1586.65
3576.69 1585.91 1593.66
3579.61 1549.31 1558.85
3582.53 1486.86 1464.62
3585.44 1489.32 1508.79
3588.36 1600.89 1622.19
3591.28 1565.33 1565.97
3594.19 1573.63 1565.54
3597.11 1595.53 1593.59
3600.03 1529.17 1521.44
3602.95 1533.67 1523.29
3605.86 1547.17 1561.57
3608.78 1576.43 1597.21
3611.7 1557.18 1545.33
3614.61 1594.75 1607.37
3617.53 1674.57 1667
3620.45 1639.62 1650.81
3623.36 1749 1731.5
3626.28 1668.79 1647.3
3629.19 1497.28 1477.92
3632.11 1636.87 1640.5
3635.03 1733.58 1741.69
3637.94 1716.3 1706.82
3640.86 1614.94 1617.85
3643.78 1756.23 1766.08
3646.69 1676.01 1696.68
3649.61 1704.64 1702.55
3652.53 1725.69 1730.77
3655.44 1684.22 1679.56
3658.36 1683.25 1680.93
3661.28 1731.38 1748.65
3664.19 1725.11 1726.4
3667.11 1763.66 1790.4
3670.03 1664.59 1658.76
3672.94 1602.98 1593.38
3675.86 1686.9 1674.6
3678.78 1585.36 1602.67
3681.69 1646.32 1621.56
3684.61 1643.32 1657.41
3687.52 1681.28 1680.11
3690.44 1722 1717.6
3693.36 1622.07 1621.62
3696.27 1674.84 1681.74
3699.19 1682.41 1689.67
3702.11 1670.1 1650.56
3705.02 1743.95 1735.28
3707.94 1704.77 1693.07
3710.85 1767.97 1771.48
3713.77 1843.52 1837.66
3716.69 1660.82 1630.07
3719.6 1777.32 1780.69
3722.52 1774.43 1784.63
3725.44 1935.52 1959.12
3728.35 1858.51 1833.18
3731.27 1636.27 1643.22
3734.18 1753 1768.75
3737.1 2011.02 2030.09
3740.02 2052.36 2042.58
3742.93 1950.04 1942.03
3745.85 1739.54 1719.77
3748.76 1777.88 1821.27
3751.68 1933.83 1938.99
3754.6 2036.37 2025.37
3757.51 2169.08 2168.03
3760.43 2127.49 2081.32
3763.34 2093.95 2081.55
3766.26 1862.99 1855.47
3769.18 1850.08 1872.03
3772.09 2029.43 2048.71
3775.01 2288.3 2331.09
3777.92 2482.28 2480.85
3780.84 2439.24 2420.56
3783.75 2578.22 2549.71
3786.67 2525.4 2550.77
3789.59 2421.1 2412.38
3792.5 2194.44 2206.48
3795.42 1963.6 1983.92
3798.33 2103.61 2135.09
3801.25 2315.33 2327.4
3804.16 2476.14 2475.58
3807.08 2612.78 2599.09
3810 2790.48 2766.21
3812.91 2839.42 2802.32
3815.83 2928.05 2933.7
3818.74 2929.51 2931.55
3821.66 2740.16 2730.16
3824.57 2568.83 2570.26
3827.49 2330.28 2314.36
3830.4 2085.64 2065.2
3833.32 1923.69 1935.11
3836.24 1966.02 2004.13
3839.15 2090.91 2132.06
3842.07 2428.98 2444.73
3844.98 2558.22 2565.17
3847.9 2651.25 2627.97
3850.81 2796.05 2791.78
3853.73 2949.35 2928.63
3856.64 3066.75 3057.6
3859.56 3144.56 3152.33
3862.47 3082.2 3068.61
3865.39 3169.1 3145.36
3868.3 3141.96 3130.15
3871.22 2992.11 2957.39
3874.13 2859.26 2858.37
3877.05 2739.2 2728.19
3879.96 2548.14 2548.49
3882.88 2260.26 2247.88
3885.79 1983.82 1981.87
3888.71 1963.38 2004.61
3891.62 2043.78 2078.66
3894.54 2258.55 2293.41
3897.45 2369.4 2382.91
3900.37 2515.77 2511.79
3903.28 2617.36 2616.18
3906.2 2808.32 2794.33
3909.11 3024.04 3019.06
3912.03 3042.6 3027.15
3914.94 3067.1 3085.05
3917.86 3151.81 3166.39
3920.77 3286.98 3287.67
3923.69 3320.07 3308.57
3926.6 3195.25 3162.89
3929.52 2864.66 2847.37
3932.43 2816.34 2842.48
3935.35 3014.7 3030.33
3938.26 3093.53 3073.42
3941.18 3128.79 3131.2
3944.09 3048.11 3052.77
3947 3016.09 3019.4
3949.92 3003.09 2991.39
3952.83 2962.64 2951.99
3955.75 2947.06 2959.26
3958.66 2814.32 2797.08
3961.58 2564.45 2553.39
3964.49 2225.21 2198.06
3967.41 1887.17 1895.46
3970.32 1948.11 1978.16
3973.23 2164.9 2199.3
3976.15 2322.06 2339.42
3979.06 2492.05 2501.2
3981.98 2636.52 2641.5
3984.89 2849.5 2856.73
3987.8 2982.11 2975.31
3990.72 3076.3 3077.01
3993.63 3104.2 3100.21
3996.55 3242.46 3226.86
3999.46 3301.98 3296.52
4002.37 3382.73 3385.36
4005.29 3423.8 3440
4008.2 3531.01 3536.5
4011.12 3573.12 3564.15
4014.03 3661.72 3667.95
4016.94 3707.92 3701.72
4019.86 3617.11 3595.61
4022.77 3661.18 3652.47
4025.69 3754.55 3746.06
4028.6 3582.14 3574.97
4031.51 3555.52 3564.54
4034.43 3673.78 3683.32
4037.34 3697.39 3700.99
4040.25 3594.91 3583.51
4043.17 3546 3546
4046.08 3590.17 3600.28
4048.99 3578.5 3583.31
4051.91 3527.51 3521.17
4054.82 3569.24 3569.26
4057.74 3562.95 3563.25
4060.65 3468.1 3467.85
4063.56 3489.06 3489.93
4066.48 3431.97 3437.8
4069.39 3370.42 3355.42
4072.3 3226.48 3210.84
4075.22 3022.26 3010.93
4078.13 3005.05 3017.97
4081.04 3023.48 3015.73
4083.95 3011.56 3019.53
4086.87 3027.33 3028.49
4089.78 2991.43 2991.02
4092.69 2824.49 2794.34
4095.61 2516.38 2489.75
4098.52 2216.63 2192.22
4101.43 2138.04 2148.48
4104.35 2219.46 2243.24
4107.26 2384.39 2409.91
4110.17 2553.65 2581.82
4113.08 2718.37 2740.53
4116 2767.19 2758.08
4118.91 2889.47 2886.91
4121.82 2934.05 2939.61
4124.73 3019.12 3007.58
4127.65 3010.87 3009.53
4130.56 3069.62 3080.13
4133.47 3197.72 3208.61
4136.39 3363.62 3376.45
4139.3 3418.64 3412.45
4142.21 3346.82 3337.77
4145.12 3432.01 3447.98
4148.04 3490.98 3484.64
4150.95 3415.68 3401.17
4153.86 3441.01 3438.79
4156.77 3528.46 3546.33
4159.68 3519.65 3524.56
4162.6 3567.79 3573.21
4165.51 3583.4 3587.14
4168.42 3542.96 3536.83
4171.33 3445.15 3441.95
4174.25 3422.7 3409.81
4177.16 3392.08 3391.1
4180.07 3446.99 3450.57
4182.98 3408.3 3398.14
4185.89 3419.89 3431.01
4188.8 3450.21 3461.92
4191.72 3419.52 3415.36
4194.63 3373.82 3365.38
4197.54 3330.16 3313.86
4200.45 3293.73 3283.26
4203.36 3358.81 3351.98
4206.28 3438.54 3462.71
4209.19 3503.36 3504.51
4212.1 3453.64 3447.45
4215.01 3432.92 3421.75
4217.92 3473.85 3476.74
4220.83 3460.2 3438.02
4223.74 3321.77 3311.77
4226.66 3371.07 3375.05
4229.57 3444.89 3444.04
4232.48 3376.74 3363.89
4235.39 3323.5 3319.2
4238.3 3341.1 3348.09
4241.21 3395.71 3392.91
4244.12 3396.94 3387.92
4247.03 3376.66 3379.55
4249.95 3417.48 3428.06
4252.86 3432.64 3429.39
4255.77 3470.15 3465.06
4258.68 3430.25 3431.74
4261.59 3524.4 3536.29
4264.5 3598.4 3615.93
4267.41 3507.7 3503.07
4270.32 3416.82 3419.66
4273.23 3456.37 3473.2
4276.14 3543.12 3559.49
4279.05 3532.74 3541.51
4281.96 3527.91 3526.88
4284.88 3497.3 3506.39
4287.79 3477.86 3475.89
4290.7 3456.69 3453.41
4293.61 3442.46 3447.56
4296.52 3335.44 3323.77
4299.43 3212.23 3215.81
4302.34 3200.52 3206.62
4305.25 3190.75 3190.34
4308.16 3220.57 3226.6
4311.07 3243.93 3249.11
4313.98 3256.42 3259.03
4316.89 3305.17 3305.72
4319.8 3274.97 3278.75
4322.71 3188.33 3185.56
4325.62 3095.58 3089.05
4328.53 2945.22 2932.43
4331.44 2801.98 2782.39
4334.35 2537.88 2504.24
4337.26 2212.94 2179.04
4340.17 2060.29 2046.39
4343.08 2164.87 2180.36
4345.99 2328.01 2345.76
4348.9 2428.05 2445.49
4351.81 2560.02 2580.2
4354.72 2743.5 2761.35
4357.63 2836.75 2853.99
4360.54 2959.32 2971.45
4363.45 3068.17 3071.7
4366.35 3166.19 3163.54
4369.26 3218.71 3216.63
4372.17 3250.59 3243.9
4375.08 3289.78 3287.68
4377.99 3377.68 3375.38
4380.9 3316.86 3302.31
4383.81 3237.63 3227.14
4386.72 3301.73 3295.83
4389.63 3281.31 3268.29
4392.54 3328.18 3318.98
4395.45 3321.58 3326.27
4398.35 3312.57 3304.22
4401.26 3373.01 3370.22
4404.17 3375.87 3371.23
4407.08 3372.89 3367.85
4409.99 3390.19 3395.66
4412.9 3361.71 3362.9
4415.81 3366.28 3370.42
4418.72 3360.13 3365.5
4421.62 3434.01 3436.05
4424.53 3425.3 3427.69
4427.44 3365.04 3361.7
4430.35 3367.07 3373.34
4433.26 3377.67 3390.3
4436.17 3449.29 3468.07
4439.07 3479.38 3477.59
4441.98 3378.27 3373.86
4444.89 3356.03 3362.87
4447.8 3355.91 3362.48
4450.71 3336.92 3340.42
4453.61 3361.24 3359.84
4456.52 3350.5 3354.74
4459.43 3327.6 3326.71
4462.34 3249.12 3244.79
4465.25 3239.36 3236.78
4468.15 3214.94 3221.77
4471.06 3306.45 3312.92
4473.97 3397.1 3406.88
4476.88 3377.4 3376.12
4479.78 3296.67 3295.17
4482.69 3310.39 3313.8
4485.6 3371.52 3370.18
4488.51 3354.32 3352.78
4491.41 3375.56 3380.49
4494.32 3398.76 3395.66
4497.23 3420.37 3412.37
4500.13 3435.85 3436.24
4503.04 3529.78 3521.59
4505.95 3495.84 3484.75
4508.86 3520.64 3504.14
4511.76 3525.68 3513.24
4514.67 3482.01 3465.82
4517.58 3403.59 3379.78
4520.48 3322.66 3310.95
4523.39 3257.03 3247.07
4526.3 3238.2 3229.53
4529.2 3251.54 3239.78
4532.11 3295.74 3293.47
4535.02 3299.7 3310.4
4537.92 3309.4 3304.55
4540.83 3302.97 3316.34
4543.74 3336.16 3342.77
4546.64 3299.42 3303.64
4549.55 3227.06 3241.6
4552.45 3142.18 3142.65
4555.36 3116.49 3119.24
4558.27 3152.28 3165.17
4561.17 3186.68 3197.66
4564.08 3262.1 3282.17
4566.98 3297.05 3324.3
4569.89 3298.65 3312.33
4572.8 3300.04 3325.6
4575.7 3333.81 3364.4
4578.61 3301.03 3321.53
4581.51 3291.72 3309.2
4584.42 3286.69 3305.01
4587.32 3288.58 3298.23
4590.23 3285.33 3290.22
4593.14 3253.11 3253.87
4596.04 3305.3 3299.16
4598.95 3337.45 3325.8
4601.85 3323.32 3302.63
4604.76 3327.94 3306.53
4607.66 3364.43 3331.3
4610.57 3384.18 3347.89
4613.47 3410.71 3355.98
4616.38 3356.81 3290.26
4619.28 3369.88 3283.84
4622.19 3431.52 3338.16
4625.09 3434.46 3325.17
4628 3398.56 3273.88
4630.9 3467.2 3326.25
4633.81 3113.37 3258.2
4636.71 3134.4 3272.65
4639.61 3150.37 3276.61
4642.52 3180.86 3297.23
4645.42 3165.41 3264
4648.33 3146.96 3231.11
4651.23 3208.83 3278.91
4654.14 3165.19 3220.97
4657.04 3207.9 3255.23
4659.94 3225.38 3255.68
4662.85 3209.9 3226.55
4665.75 3140.44 3150.76
4668.66 3106.72 3114.53
4671.56 3179.03 3173.39
4674.46 3229.44 3216.65
4677.37 3242.06 3221.9
4680.27 3224.99 3199.95
4683.18 3237.19 3211.54
4686.08 3273.94 3242.14
4688.98 3271.24 3235.17
4691.89 3271.31 3235.44
4694.79 3306.52 3274.29
4697.69 3299.93 3269.09
4700.6 3245.54 3208.14
4703.5 3198.33 3171.47
4706.4 3223.28 3196.2
4709.31 3239.02 3215.99
4712.21 3224.71 3199.57
4715.11 3221.93 3197.64
4718.01 3267.16 3250.3
4720.92 3281.15 3268.44
4723.82 3266.71 3256.92
4726.72 3219.96 3216
4729.63 3207.59 3206.83
4732.53 3231.53 3230.96
4735.43 3176.82 3178.35
4738.33 3199.43 3203.44
4741.24 3184.23 3191.14
4744.14 3184.09 3194.03
4747.04 3170.85 3183.42
4749.94 3187.57 3198.31
4752.85 3161.77 3173.46
4755.75 3152.22 3171.82
4758.65 3134.79 3148.64
4761.55 3114.96 3131.66
4764.45 3094.34 3111.3
4767.36 3096.58 3113.52
4770.26 3111.09 3125.87
4773.16 3108.89 3122.89
4776.06 3112.44 3125.33
4778.96 3132.3 3142.61
4781.86 3075.88 3086.34
4784.76 3061.97 3069.06
4787.67 3011.45 3020.59
4790.57 3027.76 3033.31
4793.47 3017.54 3026.4
4796.37 3021.18 3026.02
4799.27 3014.74 3013.35
4802.17 3005.45 3010.02
4805.07 2961.76 2961.24
4807.97 2938.47 2931.07
4810.88 2944.86 2941.5
4813.78 2969.68 2965.69
4816.68 2984.48 2979.12
4819.58 2920.37 2911.29
4822.48 2868.06 2862.37
4825.38 2861.69 2856.86
4828.28 2839.05 2833.52
4831.18 2861.04 2853.94
4834.08 2839.17 2830.03
4836.98 2833.7 2823.65
4839.88 2803.37 2792.93
4842.78 2726.44 2714.31
4845.68 2656.71 2649.79
4848.58 2594.23 2587.92
4851.48 2461.44 2454.81
4854.38 2261.72 2256.99
4857.28 2038.65 2036.02
4860.18 1804.09 1807.17
4863.08 1795.5 1801
4865.98 1935.61 1942.16
4868.88 2116.58 2119.29
4871.78 2243.96 2243.72
4874.68 2366.95 2365.37
4877.58 2519.39 2518.25
4880.48 2626.02 2624.83
4883.38 2648.68 2650.8
4886.27 2745.79 2744.77
4889.17 2774.68 2777.48
4892.07 2849.1 2851.45
4894.97 2921.67 2927.1
4897.87 2951 2951.81
4900.77 2957.51 2961.79
4903.67 3004.8 3006.88
4906.57 3025.67 3032.9
4909.47 3020.68 3024.68
4912.36 3012.65 3018.37
4915.26 3012.1 3010.49
4918.16 2894.72 2896.92
4921.06 2845.49 2847.15
4923.96 2868.98 2877.36
4926.86 2941.86 2946.97
4929.75 2975.47 2976.21
4932.65 2906.74 2903.96
4935.55 2857.9 2858.8
4938.45 2899.25 2899.72
4941.35 2944.7 2947.65
4944.24 2939.75 2941.18
4947.14 2986.63 2986.36
4950.04 2969.39 2965.75
4952.94 2932.79 2933.39
4955.83 2922.95 2922.28
4958.73 2907.53 2909.53
4961.63 2953.68 2952.97
4964.52 2944.53 2944.04
4967.42 2908.93 2906.24
4970.32 2913.17 2913.03
4973.22 2921.68 2917.91
4976.11 2942.94 2941.09
4979.01 2881.73 2879.43
4981.91 2754.83 2750.17
4984.8 2742.37 2743.95
4987.7 2792.85 2790.57
4990.6 2825.4 2824.56
4993.49 2877.03 2874.53
4996.39 2844.79 2844.19
4999.29 2818.43 2814.95
5002.18 2797.98 2799.48
5005.08 2782.28 2780.83
5007.97 2824.81 2823.65
5010.87 2832.51 2833.51
5013.77 2789.9 2788.05
5016.66 2770.34 2770.25
5019.56 2794.32 2794.56
5022.45 2855.58 2856.78
5025.35 2870.85 2873.31
5028.24 2897.98 2897.66
5031.14 2926.01 2926.44
5034.04 2902.52 2900.68
5036.93 2865.06 2865.76
5039.83 2835.67 2834.22
5042.72 2870.27 2874.11
5045.62 2905.96 2911.27
5048.51 2866.63 2864.44
5051.41 2882.93 2884.07
5054.3 2927 2925.8
5057.2 2918.75 2921.49
5060.09 2982.41 2984.26
5062.99 2930.8 2928.75
5065.88 2929.51 2927.95
5068.77 2893.74 2892.7
5071.67 2859.32 2860.49
5074.56 2803.59 2807.98
5077.46 2756.08 2754.91
5080.35 2728.56 2729.63
5083.25 2739.25 2742.17
5086.14 2765.35 2762.98
5089.03 2793.07 2792.85
5091.93 2801.83 2801.39
5094.82 2830.15 2829.34
5097.72 2751.23 2751.2
5100.61 2760.6 2760.38
5103.5 2771.34 2770.73
5106.4 2778.72 2779.47
5109.29 2760.11 2762.92
5112.18 2783.3 2783.44
5115.08 2773.3 2773.14
5117.97 2777.29 2775.51
5120.86 2729.82 2729.53
5123.76 2663.49 2662.44
5126.65 2684.77 2686.97
5129.54 2701.79 2701.53
5132.43 2691.25 2692.48
5135.33 2691.71 2688.99
5138.22 2696.17 2694.78
5141.11 2690.81 2690.74
5144 2709.37 2705.9
5146.9 2729.7 2729.1
5149.79 2739.42 2739.3
5152.68 2726.93 2727.53
5155.57 2733.03 2734.2
5158.47 2739.12 2738.47
5161.36 2724.22 2720.69
5164.25 2669.9 2670.18
5167.14 2592.41 2590.8
5170.03 2568.48 2569.66
5172.92 2606.05 2606.59
5175.82 2680.05 2682.02
5178.71 2706.15 2706.74
5181.6 2679.33 2675.56
5184.49 2636.74 2638.73
5187.38 2623.54 2621.63
5190.27 2592.87 2596.38
5193.16 2613.87 2614.4
5196.05 2575.97 2575.73
5198.94 2586.61 2589.33
5201.84 2568.6 2572.42
5204.73 2527.23 2526.73
5207.62 2567.99 2572.89
5210.51 2641.23 2643.52
5213.4 2649.77 2652.61
5216.29 2630.96 2632.79
5219.18 2687.05 2686.02
5222.07 2688.25 2686.27
5224.96 2631.48 2625.47
5227.85 2569.41 2563.58
5230.74 2588.86 2583.88
5233.63 2562.9 2555.76
5236.52 2602.87 2599.96
5239.41 2658.61 2657.21
5242.3 2699.18 2700.21
5245.19 2669.92 2669.95
5248.08 2662.88 2666.88
5250.97 2653.98 2656.16
5253.85 2647.37 2651.1
5256.74 2643.33 2648.7
5259.63 2637.26 2641.44
5262.52 2580.59 2584.96
5265.41 2548.05 2551.21
5268.3 2478.87 2480.59
5271.19 2472.21 2477.39
5274.08 2474.06 2473.22
5276.97 2517.61 2515.74
5279.85 2533.99 2529.15
5282.74 2554.66 2549.12
5285.63 2585.55 2580.26
5288.52 2628.32 2625.51
5291.41 2615.47 2611.29
5294.3 2623.1 2620.47
5297.18 2631.83 2629.94
5300.07 2602.42 2602.27
5302.96 2605.58 2607.55
5305.85 2630.93 2635.15
5308.73 2644.64 2649.63
5311.62 2624.6 2625.73
5314.51 2589.71 2588.44
5317.4 2591.42 2591.09
5320.28 2572.43 2572.06
5323.17 2533.83 2534.25
5326.06 2516.52 2515.94
5328.94 2472.45 2471.21
5331.83 2552.93 2553.86
5334.72 2554.7 2554.72
5337.6 2531.03 2532.05
5340.49 2530.92 2530.78
5343.38 2560.22 2561.75
5346.26 2580.25 2580.4
5349.15 2596.96 2595.69
5352.04 2611.72 2611.78
5354.92 2634.29 2633.94
5357.81 2612.48 2611.33
5360.69 2599.35 2597.56
5363.58 2539.08 2537.12
5366.47 2499.82 2500.92
5369.35 2485.62 2485.83
5372.24 2503.76 2507.06
5375.12 2549.51 2552.65
5378.01 2555.85 2553.91
5380.89 2535.57 2536.48
5383.78 2534.03 2534.96
5386.66 2525.31 2526.72
5389.55 2555.73 2555.91
5392.43 2525.51 2524.23
5395.32 2520.56 2522
5398.2 2486.65 2487.38
5401.09 2469.45 2465.64
5403.97 2433.51 2432.03
5406.86 2418.77 2417.42
5409.74 2415.77 2417.35
5412.63 2443.51 2444.97
5415.51 2484.96 2485.45
5418.39 2491.57 2492.93
5421.28 2502.05 2503.36
5424.16 2470.52 2467.37
5427.05 2471.18 2471.26
5429.93 2472.47 2474.47
5432.81 2466.72 2465.97
5435.7 2505.76 2507.11
5438.58 2535.91 2535.06
5441.46 2536.67 2534.56
5444.35 2500.59 2500.59
5447.23 2473.24 2473.83
5450.11 2513.55 2511.85
5453 2500.74 2499.68
5455.88 2480.41 2480.61
5458.76 2495.94 2496.28
5461.64 2472.42 2470.71
5464.53 2479.74 2479.65
5467.41 2508.16 2508.13
5470.29 2472.86 2472.51
5473.17 2421.42 2421.29
5476.06 2401.47 2399.3
5478.94 2405.6 2403.34
5481.82 2440.98 2440.21
5484.7 2473.15 2473.74
5487.58 2477.1 2475.99
5490.46 2485.83 2484.91
5493.35 2506.77 2506.82
5496.23 2470.19 2472.35
5499.11 2440.74 2441.15
5501.99 2446.72 2448.57
5504.87 2454.53 2454.49
5507.75 2437.25 2437.3
5510.63 2422.72 2422.69
5513.51 2439.17 2442.34
5516.4 2471.51 2472.3
5519.28 2463.04 2463.28
5522.16 2451.66 2451.33
5525.04 2444.08 2444.73
5527.92 2426.3 2429.09
5530.8 2444.6 2445.21
5533.68 2416.93 2417.84
5536.56 2433.96 2436.7
5539.44 2458.45 2458.5
5542.32 2425.16 2427.09
5545.2 2391.63 2394.21
5548.08 2418.99 2419.39
5550.96 2435.1 2435.94
5553.84 2457.49 2458.55
5556.72 2426.64 2427.75
5559.6 2443.65 2443.22
5562.47 2424.84 2423.88
5565.35 2420.33 2421.13
5568.23 2414.9 2413.91
5571.11 2397.44 2399.66
5573.99 2392.84 2397.57
5576.87 2408.35 2411.09
5579.75 2418.62 2419.4
5582.63 2411.62 2407.48
5585.5 2378.09 2372.52
5588.38 2385.04 2380.71
5591.26 2379.11 2371.39
5594.14 2368.7 2364.79
5597.02 2392.4 2389.51
5599.89 2363.28 2357.89
5602.77 2380.6 2377.94
5605.65 2399.04 2397.31
5608.53 2390.19 2386.58
5611.4 2394.41 2392.2
5614.28 2372.44 2368.76
5617.16 2359.9 2358.38
5620.04 2355.39 2353.55
5622.91 2353.72 2351.8
5625.79 2360.63 2359.22
5628.67 2381.16 2379.02
5631.54 2385.27 2383.64
5634.42 2368.29 2366.33
5637.3 2353.52 2352.94
5640.17 2341.65 2342.75
5643.05 2350.89 2351.79
5645.93 2351.1 2354.54
5648.8 2343.27 2344.65
5651.68 2357.02 2361.34
5654.55 2332 2335.37
5657.43 2285.6 2288.67
5660.3 2277.65 2280.97
5663.18 2253.84 2259.36
5666.06 2275.09 2280.47
5668.93 2310.07 2316.26
5671.81 2314.85 2321.87
5674.68 2335.8 2341.81
5677.56 2316.22 2322.65
5680.43 2300.16 2306.6
5683.31 2283.45 2289.61
5686.18 2262.11 2270.28
5689.06 2260.62 2268.45
5691.93 2284.84 2291.48
5694.8 2284.26 2291.58
5697.68 2280.56 2286.89
5700.55 2273.16 2280.45
5703.43 2272.96 2277.44
5706.3 2249.44 2254.82
5709.17 2239.87 2244.85
5712.05 2253.17 2256.23
5714.92 2265.59 2267.08
5717.8 2266.54 2267.57
5720.67 2285.92 2285.18
5723.54 2304.9 2302.93
5726.41 2278.94 2274.62
5729.29 2288.26 2280.76
5732.16 2299.04 2289.51
5735.03 2277.49 2264.25
5737.91 2299.6 2283.98
5740.78 2292.67 2272.95
5743.65 2294.91 2270.93
5746.52 2273.76 2248.48
5749.4 2287.36 2255
5752.27 2290.47 2255.53
5755.14 2281.7 2241.51
5758.01 2297.74 2252.65
5760.88 2284.44 2234.74
5763.76 2296.22 2240.44
5766.63 2293.43 2230.76
5769.5 2311.42 2240.67
5772.37 2313.1 2235.2
5775.24 2140.06 2245.65
5778.11 2141.34 2238.84
5780.98 2134.06 2219.96
5783.86 2134.24 2217.22
5786.73 2141.57 2212.07
5789.6 2173.19 2237.21
5792.47 2178.29 2233.33
5795.34 2175.59 2223.42
5798.21 2190.84 2231.92
5801.08 2202.39 2236.03
5803.95 2191.37 2220.17
5806.82 2187.41 2207.93
5809.69 2211.72 2226.19
5812.56 2233.38 2238.74
5815.43 2225.95 2225.6
5818.3 2244.87 2242.74
5821.17 2225.7 2221.18
5824.04 2260.58 2247.03
5826.91 2239.57 2220.16
5829.77 2239.04 2220.88
5832.64 2261.04 2236.49
5835.51 2262.01 2236.58
5838.38 2246.8 2219.13
5841.25 2258.65 2236.31
5844.12 2250.2 2225.54
5846.99 2230.35 2205.52
5849.86 2242.87 2214.14
5852.72 2164.6 2143.25
5855.59 2180.77 2158.04
5858.46 2185.89 2166.57
5861.33 2185.06 2168.19
5864.2 2210.02 2189.08
5867.06 2211.67 2192.3
5869.93 2221.63 2204.34
5872.8 2227.99 2212.15
5875.67 2222.65 2214.93
5878.53 2200.94 2195.91
5881.4 2187.11 2186.22
5884.27 2171.71 2173.74
5887.13 2116.5 2121.75
5890 2051.01 2060.09
5892.87 2054.82 2067.78
5895.73 2066.04 2072.53
5898.6 2108.55 2116.63
5901.47 2124.39 2131.87
5904.33 2140.48 2148.41
5907.2 2136.39 2147.08
5910.06 2142.27 2153.96
5912.93 2134.14 2149.73
5915.79 2129.16 2143.25
5918.66 2150.63 2162.23
5921.53 2136.55 2148.72
5924.39 2137.69 2147.8
5927.26 2143.24 2154.26
5930.12 2107.78 2118.2
5932.99 2111.9 2120.68
5935.85 2128.63 2138.1
5938.72 2137.82 2145.9
5941.58 2134.26 2140.49
5944.44 2119.19 2123.26
5947.31 2110.64 2115.03
5950.17 2124.47 2124.96
5953.04 2107.88 2110.86
5955.9 2118.9 2119.95
5958.76 2124.91 2121.98
5961.63 2130.95 2129.56
5964.49 2108.81 2101.9
5967.36 2114.62 2109.91
5970.22 2132.67 2126.9
5973.08 2111.85 2107.57
5975.95 2107.38 2104.65
5978.81 2079.9 2074.31
5981.67 2074.66 2069.92
5984.53 2087.94 2078.31
5987.4 2062.39 2057.81
5990.26 2088.47 2079.42
5993.12 2098.28 2090.67
5995.98 2086.37 2076.31
5998.85 2100.42 2094.25
6001.71 2091.87 2090.34
6004.57 2064.85 2060.52
6007.43 2064.56 2062.51
6010.29 2068.3 2063.15
6013.15 2046.43 2044.94
6016.02 2053.75 2050.89
6018.88 2045.97 2044.64
6021.74 2029.22 2030.6
6024.6 2035.21 2034.81
6027.46 2044.99 2043.33
6030.32 2050.38 2048.28
6033.18 2046.07 2045.13
6036.04 2053.18 2053.08
6038.9 2052.69 2058.07
6041.76 2044.46 2046.71
6044.62 2032.85 2034.85
6047.48 2045.84 2050.4
6050.34 2035.81 2038.12
6053.2 2041.16 2044.51
6056.06 2039.67 2040.51
6058.92 2057.4 2061.99
6061.78 2035.89 2040.24
6064.64 2024.13 2027.19
6067.5 2029.92 2033.2
6070.36 2045.64 2049.97
6073.22 2038.76 2038.91
6076.08 2029.72 2033.89
6078.93 1996.22 2000.69
6081.79 2006.71 2007.61
6084.65 2009.63 2011.33
6087.51 2002.79 2007.29
6090.37 2004.8 2006.52
6093.23 1997.04 1998.51
6096.08 2009.05 2007.43
6098.94 2002.83 2002.68
6101.8 1987.81 1987.99
6104.66 1983.52 1983
6107.51 1984.19 1983.93
6110.37 1995.25 1992.98
6113.23 1979.64 1978.61
6116.09 1994.13 1992.29
6118.94 1991.8 1990.48
6121.8 1991.3 1987.43
6124.66 1975.78 1972.37
6127.51 1961.4 1959.76
6130.37 1968.45 1965.94
6133.22 1961.55 1962.44
6136.08 1930.97 1930.57
6138.94 1891.89 1893.53
6141.79 1888.12 1887.01
6144.65 1891.88 1890.44
6147.5 1919.53 1917.62
6150.36 1917.72 1915.09
6153.21 1924.21 1921.34
6156.07 1937.17 1933.57
6158.92 1932.38 1930.54
6161.78 1930.46 1929.04
6164.63 1943.09 1942.23
6167.49 1928.89 1929.31
6170.34 1934.14 1932.97
6173.2 1919.93 1920.14
6176.05 1914.27 1916.11
6178.91 1913.26 1913.58
6181.76 1941.95 1943.83
6184.61 1935.46 1933.67
6187.47 1913.71 1913.89
6190.32 1910.81 1914.13
6193.17 1917.28 1918.62
6196.03 1935.58 1936.7
6198.88 1929.8 1931.62
6201.73 1938.72 1936.22
6204.59 1920.33 1923.75
6207.44 1928.51 1931.19
6210.29 1928.41 1928.3
6213.14 1926.61 1927
6216 1918.23 1919.37
6218.85 1923.97 1925
6221.7 1910.42 1913.26
6224.55 1905.43 1905.11
6227.41 1914.81 1916.39
6230.26 1898.75 1899.83
6233.11 1874.76 1877.6
6235.96 1894.34 1895.46
6238.81 1862.34 1862.91
6241.66 1873.67 1872.73
6244.51 1860.64 1861.07
6247.36 1839.3 1839.33
6250.21 1851.9 1850.45
6253.07 1846.5 1844.24
6255.92 1856.6 1854.8
6258.77 1866.41 1864.07
6261.62 1857.03 1854.51
6264.47 1857.79 1857.55
6267.32 1876.77 1874.99
6270.17 1853.79 1853.04
6273.02 1858.87 1857.12
6275.87 1833.89 1832.3
6278.71 1827.57 1830.74
6281.56 1837.06 1835.29
6284.41 1826.05 1825.5
6287.26 1832.21 1832.42
6290.11 1831.97 1829.51
6292.96 1847.41 1848.35
6295.81 1840.35 1847.09
6298.66 1807.48 1814.94
6301.51 1803.27 1807.55
6304.35 1825.35 1824.71
6307.2 1828.9 1825.41
6310.05 1834.56 1830.73
6312.9 1811.12 1806.07
6315.74 1798.22 1795.28
6318.59 1813.27 1810.73
6321.44 1800.66 1799.16
6324.29 1822.96 1822.79
6327.13 1819.29 1817.3
6329.98 1821.39 1821.79
6332.83 1821.58 1820.62
6335.67 1801.03 1801.07
6338.52 1800.1 1801.57
6341.37 1812.15 1814.36
6344.21 1789.51 1790.48
6347.06 1799.62 1801.4
6349.9 1816.38 1818.44
6352.75 1812.11 1813.07
6355.6 1825.8 1825.37
6358.44 1814.46 1816.65
6361.29 1814.98 1819.63
6364.13 1829.19 1831.02
6366.98 1816.26 1817.61
6369.82 1790.36 1789
6372.67 1801.65 1801.72
6375.51 1825.44 1822.78
6378.36 1823.45 1822.16
6381.2 1799.24 1799.46
6384.04 1813.46 1814.82
6386.89 1804.77 1804.27
6389.73 1802.5 1802.32
6392.58 1792.6 1791.74
6395.42 1799.43 1800.23
6398.26 1791.28 1789.69
6401.11 1818.31 1817.26
6403.95 1805.88 1804.49
6406.79 1809.53 1807.81
6409.64 1775.29 1774.89
6412.48 1787 1788.67
6415.32 1774.3 1774.93
6418.16 1779.32 1778.39
6421.01 1776.93 1774.45
6423.85 1775.17 1772.98
6426.69 1768.01 1766.85
6429.53 1769.71 1768.72
6432.37 1761.22 1761.98
6435.22 1779.78 1781.73
6438.06 1784.45 1782.37
6440.9 1766.73 1768.86
6443.74 1785.81 1783.85
6446.58 1778.03 1777.89
6449.42 1764.67 1764.17
6452.26 1754.84 1754.85
6455.1 1741.29 1743.73
6457.94 1748.02 1748.76
6460.78 1742.75 1746.43
6463.62 1741.11 1744.25
6466.46 1762.33 1762.1
6469.3 1750.43 1750.04
6472.14 1759.09 1759.49
6474.98 1758.17 1757.19
6477.82 1739.24 1737.68
6480.66 1720.05 1721.88
6483.5 1746.91 1744.73
6486.34 1723.56 1722.3
6489.18 1725.72 1726.21
6492.02 1677.64 1680.85
6494.86 1621.88 1625.44
6497.7 1643.82 1644.46
6500.53 1694.44 1693.2
6503.37 1688.04 1687.49
6506.21 1704.97 1703.3
6509.05 1707.91 1706.42
6511.89 1691.86 1691.02
6514.72 1671.29 1672.76
6517.56 1674.94 1676
6520.4 1678.44 1677.85
6523.23 1684.32 1684.56
6526.07 1665.84 1666.05
6528.91 1662.2 1662.1
6531.75 1650.32 1649.17
6534.58 1633.68 1631.52
6537.42 1627.96 1627.3
6540.25 1617.46 1616.98
6543.09 1559.13 1559.65
6545.93 1525.76 1533.32
6548.76 1504.46 1505.37
6551.6 1452.27 1453.18
6554.43 1375.21 1378.65
6557.27 1249.8 1254.45
6560.1 1096.6 1103.02
6562.94 1051.76 1055.52
6565.77 1126.62 1124.63
6568.61 1232.08 1224.73
6571.44 1339.62 1330.05
6574.28 1411.59 1404.19
6577.11 1481.93 1476.59
6579.94 1509.49 1503.95
6582.78 1532.14 1526.78
6585.61 1568.21 1565.35
6588.45 1584.19 1582.12
6591.28 1592.12 1590.28
6594.11 1603.08 1601.18
6596.95 1627.06 1623
6599.78 1629.09 1626.35
6602.61 1642.92 1639.95
6605.44 1651.28 1650.35
6608.28 1641.17 1638.69
6611.11 1632.44 1632.22
6613.94 1649.74 1646.62
6616.77 1648.17 1646.46
6619.61 1662.87 1660.3
6622.44 1670.55 1667.77
6625.27 1654.39 1650.36
6628.1 1655.13 1653.3
6630.93 1636.74 1636.28
6633.76 1633.73 1631.4
6636.59 1645.19 1646.26
6639.42 1651.48 1652.71
6642.26 1660.25 1660.84
6645.09 1638.93 1638.28
6647.92 1644.3 1645.53
6650.75 1644.12 1644.53
6653.58 1651.62 1651.7
6656.41 1658.25 1659.31
6659.24 1670.9 1672.31
6662.07 1659.36 1658.95
6664.9 1660.93 1662.23
6667.72 1650.45 1652.28
6670.55 1659.23 1662.37
6673.38 1650.75 1654.08
6676.21 1625.02 1626.08
6679.04 1639.66 1643.54
6681.87 1643.22 1645.33
6684.7 1648.02 1651.23
6687.53 1645.32 1649.68
6690.35 1641.7 1646.44
6693.18 1660.52 1664.76
6696.01 1663.78 1667.28
6698.84 1648.3 1650.45
6701.66 1636.36 1639.68
6704.49 1636.67 1642.68
6707.32 1643.87 1646.7
6710.14 1639.56 1643.09
6712.97 1637.21 1641.91
6715.8 1645.4 1649.39
6718.62 1632.37 1633.84
6721.45 1627.36 1630.79
6724.28 1640.4 1643.49
6727.1 1642.38 1642.68
6729.93 1638.5 1639.1
6732.75 1634.79 1635.62
6735.58 1640.32 1638.84
6738.41 1645.01 1642.42
6741.23 1622.2 1618.62
6744.06 1638.25 1632.91
6746.88 1619.27 1613.2
6749.7 1637.67 1629.32
6752.53 1627.46 1617.38
6755.35 1625.69 1611.94
6758.18 1632.59 1618.45
6761 1638.58 1619.91
6763.83 1630.65 1608.54
6766.65 1641.92 1617.14
6769.47 1625.42 1599.43
6772.3 1638.84 1607.81
6775.12 1632.19 1597.26
6777.94 1636.26 1599.13
6780.77 1665.57 1622.37
6783.59 1644.28 1597.76
6786.41 1652.82 1601.99
6789.23 1516.57 1584.66
6792.06 1509.67 1576.73
6794.88 1509.43 1568.71
6797.7 1516.63 1574.37
6800.52 1515.74 1566.94
6803.34 1535.12 1578.72
6806.16 1529.98 1569.98
6808.99 1528.46 1563.71
6811.81 1527.3 1558.07
6814.63 1518.45 1543.83
6817.45 1539.88 1561.03
6820.27 1528.74 1540.39
6823.09 1524.93 1530.28
6825.91 1531.41 1539.14
6828.73 1536.93 1538.18
6831.55 1551.19 1551.32
6834.37 1542.31 1535.39
6837.19 1529.07 1522.5
6840.01 1514.18 1502.76
6842.83 1526.91 1508.17
6845.65 1532.09 1514.76
6848.47 1527.43 1503.25
6851.28 1521.24 1500.55
6854.1 1510.76 1491.69
6856.92 1527.5 1496.79
6859.74 1525.88 1493.07
6862.56 1456.27 1435.28
6865.38 1297.63 1290.26
6868.19 1192.58 1185.1
6871.01 1192.72 1176.83
6873.83 1220.95 1196.98
6876.65 1312.64 1271.6
6879.46 1379.73 1343.62
6882.28 1386.98 1352.03
6885.1 1364.44 1331.95
6887.91 1357.76 1331.19
6890.73 1359.9 1331.67
6893.55 1359.8 1330.06
6896.36 1360.91 1333.44
6899.18 1381.54 1352.23
6901.99 1369.62 1343.3
6904.81 1435.91 1408.07
6907.62 1421.66 1398.93
6910.44 1422.59 1397.76
6913.25 1440.18 1416.11
6916.07 1459.38 1432.58
6918.88 1466.71 1444.64
6921.7 1470.85 1451.15
6924.51 1471.74 1449.98
6927.33 1477.29 1461.74
6930.14 1476.67 1457.28
6932.96 1479.86 1466.2
6935.77 1476.91 1465.17
6938.58 1471.73 1462.46
6941.4 1469.78 1460.23
6944.21 1464.86 1456.28
6947.02 1474.05 1467.91
6949.84 1480.11 1472.57
6952.65 1461.85 1460.4
6955.46 1471.89 1461.8
6958.27 1480.64 1475.44
6961.09 1476.77 1478.75
6963.9 1497.28 1495.47
6966.71 1481.83 1482.38
6969.52 1487.1 1487.43
6972.33 1471.86 1475.42
6975.14 1465.41 1468.99
6977.95 1459.17 1462.28
6980.77 1465.51 1471.49
6983.58 1465.7 1470.01
6986.39 1459.47 1465.77
6989.2 1461.21 1464.37
6992.01 1459.53 1463.21
6994.82 1456.45 1462.94
6997.63 1461.4 1466.25
7000.44 1446.24 1457.22
7003.25 1436.48 1443.76
7006.06 1451.66 1455.77
7008.87 1448.9 1455.69
7011.67 1445.51 1452.2
7014.48 1433.39 1438.35
7017.29 1441.73 1452.1
7020.1 1449.32 1455.61
7022.91 1442.76 1449.7
7025.72 1457.8 1460.38
7028.53 1440.58 1440.02
7031.33 1449.98 1451.6
7034.14 1433.18 1433.87
7036.95 1439.7 1437.15
7039.76 1442.65 1442.44
7042.56 1446.07 1442.31
7045.37 1450.27 1447.09
7048.18 1448.33 1446.28
7050.98 1443.72 1440.12
7053.79 1449.03 1440.71
7056.6 1449.41 1443.1
7059.4 1451.28 1448.36
7062.21 1429.36 1427.24
7065.01 1429.27 1426
7067.82 1434.88 1431.14
7070.62 1437.49 1436.08
7073.43 1433.74 1428.89
7076.23 1455.16 1449.42
7079.04 1431.98 1424.65
7081.84 1435.29 1430.9
7084.65 1426.97 1424.35
7087.45 1424.41 1421.85
7090.26 1417.21 1419.49
7093.06 1421.65 1420.97
7095.86 1417.25 1416.16
7098.67 1423.62 1422.42
7101.47 1413.65 1412.75
7104.27 1433.27 1431.9
7107.08 1436.45 1435.1
7109.88 1410.1 1409.52
7112.68 1399.98 1399.88
7115.49 1397.62 1396.49
7118.29 1396.73 1395.04
7121.09 1381.19 1382.9
7123.89 1397.36 1401.3
7126.69 1394.14 1391.08
7129.49 1395.88 1398.62
7132.3 1406.99 1408.76
7135.1 1391.95 1392.91
7137.9 1392.54 1394.45
7140.7 1405.15 1404.1
7143.5 1398.33 1401.04
7146.3 1388.48 1394.71
7149.1 1392.62 1396.74
7151.9 1373.13 1378.97
7154.7 1390.22 1389.69
7157.5 1376.12 1374.83
7160.3 1366.79 1369.6
7163.1 1341.22 1347.44
7165.9 1329.12 1331.77
7168.7 1318.51 1322.16
7171.5 1301.56 1301.34
7174.3 1312.28 1311.75
7177.09 1299.46 1300.82
7179.89 1298.97 1300.85
7182.69 1272.12 1271.09
7185.49 1255.17 1255.39
7188.29 1256.38 1255.26
7191.08 1260 1257.95
7193.88 1286.39 1284.51
7196.68 1284.76 1283.28
7199.48 1282.64 1283.76
7202.27 1278.36 1277.1
7205.07 1279.9 1275.29
7207.87 1288.48 1287.44
7210.66 1306.69 1303.1
7213.46 1307.25 1303.75
7216.25 1298.77 1299.07
7219.05 1305.53 1304.27
7221.84 1295.45 1291.8
7224.64 1294.18 1294.34
7227.44 1283.7 1284.35
7230.23 1268.17 1266.81
7233.02 1257.8 1257.16
7235.82 1265.99 1262.59
7238.61 1247.35 1247.18
7241.41 1246.06 1244.07
7244.2 1263.13 1264.71
7247 1265.48 1266.34
7249.79 1253.71 1254.74
7252.58 1263.78 1265.78
7255.38 1267.9 1266.86
7258.17 1278.69 1279.47
7260.96 1272.94 1275.61
7263.75 1252.93 1257.63
7266.55 1261.88 1261.99
7269.34 1272.16 1268.85
7272.13 1251.57 1249.38
7274.92 1231.39 1231.94
7277.72 1256.41 1261.93
7280.51 1274.62 1273.83
7283.3 1247.44 1252.28
7286.09 1261.67 1264.05
7288.88 1234.36 1236.71
7291.67 1248.3 1250.63
7294.46 1268.8 1266.13
7297.25 1276.96 1274.09
7300.04 1262.04 1262.51
7302.83 1265.98 1267.7
7305.62 1254.62 1258.17
7308.41 1271.94 1268.52
7311.2 1260.15 1258.55
7313.99 1275.8 1274.5
7316.78 1281.97 1279.23
7319.57 1284.63 1285.89
7322.36 1289.06 1289.67
7325.15 1279.53 1277.08
7327.94 1287.9 1286.39
7330.72 1281.83 1278.56
7333.51 1293.01 1287.89
7336.3 1301.76 1300.38
7339.09 1304.35 1305.09
7341.87 1297.39 1295.47
7344.66 1287.43 1290.91
7347.45 1272.99 1273.42
7350.24 1268.62 1268.45
7353.02 1279.44 1278.82
7355.81 1279.57 1277.25
7358.59 1278.75 1279.49
7361.38 1274.04 1273.02
7364.17 1273.8 1273.11
7366.95 1266.52 1267.84
7369.74 1266.63 1269.91
7372.52 1268.19 1271.05
7375.31 1277.56 1275.7
7378.09 1265.34 1264.49
7380.88 1269.5 1270.61
7383.66 1248.79 1248.61
7386.45 1246.06 1246.53
7389.23 1239.48 1244.28
7392.01 1228.08 1227.46
7394.8 1253.62 1254.17
7397.58 1255.27 1253.93
7400.36 1245.67 1248.34
7403.15 1244.12 1251.47
7405.93 1234.44 1239.58
7408.71 1238.88 1236.5
7411.5 1247.72 1250.22
7414.28 1244.91 1248.26
7417.06 1231.87 1233.38
7419.84 1247.73 1248.34
7422.62 1234.61 1232.31
7425.41 1244.55 1243.16
7428.19 1256.03 1254.08
7430.97 1274.08 1271.19
7433.75 1262.11 1263.1
7436.53 1272.08 1273.7
7439.31 1252.57 1252.3
7442.09 1254.23 1253.16
7444.87 1259.28 1255.02
7447.65 1256.97 1254.48
7450.43 1249.5 1246.11
7453.21 1277.8 1273.65
7455.99 1285.69 1281.15
7458.77 1277.48 1273.88
7461.55 1264.25 1265.33
7464.33 1269.7 1269.06
7467.11 1269.9 1265.95
7469.88 1282.74 1279.4
7472.66 1277.21 1273.49
7475.44 1269.66 1266.58
7478.22 1284.72 1283.16
7481 1273.54 1271.85
7483.77 1264.1 1262.92
7486.55 1257.01 1257.01
7489.33 1255.66 1259.08
7492.1 1234.77 1239.62
7494.88 1208.3 1214.11
7497.66 1225.47 1224.39
7500.43 1214.04 1210.55
7503.21 1227.35 1229.7
7505.98 1221.95 1221.78
7508.76 1193.74 1196.72
7511.54 1207.62 1208.88
7514.31 1195.39 1194.47
7517.09 1200.92 1202.51
7519.86 1200.83 1201.83
7522.63 1202.94 1205.45
7525.41 1197.27 1201.75
7528.18 1190.51 1195.8
7530.96 1171.97 1174.84
7533.73 1190.12 1193.51
7536.5 1150 1151.14
7539.28 1165.28 1166.15
7542.05 1161.36 1165.47
7544.82 1162.21 1165.57
7547.6 1162.31 1163.99
7550.37 1172.06 1177.28
7553.14 1159.43 1160.2
7555.91 1155.16 1151.11
7558.69 1155.08 1151.13
7561.46 1148.59 1144.36
7564.23 1155.62 1149.9
7567 1157.97 1156.73
7569.77 1142.37 1142.49
7572.54 1145.25 1142.32
7575.31 1138.43 1135.69
7578.08 1145.65 1140.43
7580.85 1121.25 1114.65
7583.62 1114.04 1105.53
7586.39 1089.34 1083.2
7589.16 1029.9 1027.52
7591.93 865.859 872.064
7594.7 689.749 696.107
7597.47 533.445 538.584
7600.24 423.402 423.288
7603.01 374.958 371.417
7605.78 378.679 369.334
7608.55 429.571 416.572
7611.31 534.493 513.548
7614.08 697.255 670.606
7616.85 780.719 760.344
7619.62 792.042 775.666
7622.38 718.159 708.533
7625.15 674.888 662.998
7627.92 650.25 633.418
7630.68 656.257 635.195
7633.45 681.977 659.817
7636.22 699.229 675.145
7638.98 736.712 711.433
7641.75 771.808 743.833
7644.51 794.638 764.411
7647.28 838.58 807.585
7650.04 877.775 844.754
7652.81 906.217 868.825
7655.57 933.239 896.963
7658.34 960.785 919.208
7661.1 970.455 930.664
7663.87 1005.83 959.286
7666.63 1025.02 979.036
7669.39 1062.79 1010.08
7672.16 1093.77 1041.62
7674.92 1105.61 1050
7677.68 1128.25 1069.02
7680.45 1135.56 1074.5
7683.21 1148.89 1088.64
7685.97 1172.38 1108.24
7688.73 1168.99 1103.03
7691.5 1181.24 1116.09
7694.26 1183.91 1116.55
7697.02 1097.02 1113.77
7699.78 1111.56 1121.84
7702.54 1111.21 1124.26
7705.3 1121.9 1127.25
7708.06 1109.81 1120.71
7710.82 1107.17 1119.62
7713.58 1113.69 1128.97
7716.34 1131.47 1144.78
7719.1 1130.56 1138.36
7721.86 1158.36 1166.21
7724.62 1142.84 1155.4
7727.38 1153.96 1157.93
7730.14 1152.59 1153.74
7732.9 1158.01 1160.22
7735.66 1172.38 1172.9
7738.42 1151.35 1148.87
7741.17 1143.07 1139.29
7743.93 1124.12 1125.42
7746.69 1122.94 1124.83
7749.45 1129.37 1128.17
7752.2 1139.47 1143.86
7754.96 1142.87 1142.7
7757.72 1133.69 1137.34
7760.47 1145.81 1145.49
7763.23 1144.24 1145.57
7765.99 1126.26 1125.77
7768.74 1121.4 1120.48
7771.5 1073.37 1074.75
7774.25 1085.52 1080.76
7777.01 1081.96 1074.8
7779.77 1102.82 1092.74
7782.52 1119.91 1110
7785.27 1128.26 1119.44
7788.03 1131.94 1130.6
7790.78 1153.93 1152.93
7793.54 1136.21 1135.83
7796.29 1142.72 1138.11
7799.04 1130.8 1136.23
7801.8 1151.13 1144.62
7804.55 1141.73 1142.45
7807.3 1130.43 1127.88
7810.06 1128.25 1125.41
7812.81 1116.42 1119.27
7815.56 1152.64 1152.23
7818.31 1142.43 1143.06
7821.07 1145.24 1144.7
7823.82 1138.04 1148.37
7826.57 1137.95 1143.94
7829.32 1124.26 1130.19
7832.07 1107.09 1111.07
7834.82 1124.74 1129.21
7837.57 1109.68 1112.63
7840.32 1135.93 1129.27
7843.07 1123.23 1126.37
7845.82 1131.36 1123.87
7848.57 1121.08 1119.95
7851.32 1111.01 1115.24
7854.07 1116.99 1123.51
7856.82 1119.24 1126.51
7859.57 1093.19 1100.55
7862.32 1101.41 1101.79
7865.07 1090.09 1086.39
7867.81 1102.61 1100.81
7870.56 1126.01 1134.37
7873.31 1112.48 1109.59
7876.06 1115.9 1116.03
7878.8 1082.64 1090.78
7881.55 1111.77 1107.4
7884.3 1121.32 1121.54
7887.04 1100.29 1100.98
7889.79 1120.08 1116.4
7892.54 1079.3 1082.41
7895.28 1083.94 1078.08
7898.03 1089.04 1083.98
7900.77 1107.33 1098.59
7903.52 1095.54 1081.92
7906.26 1106.18 1092.35
7909.01 1104.02 1095.87
7911.75 1085.39 1085.59
7914.5 1102.36 1107.4
7917.24 1084.98 1099.79
7919.99 1084.7 1087.35
7922.73 1066.43 1065.67
7925.47 1063.43 1066.96
7928.22 1068.53 1075.22
7930.96 1047.33 1053.81
7933.7 1037.29 1036.56
7936.44 1040.98 1042.37
7939.19 1054.16 1047.72
7941.93 1049.95 1049.52
7944.67 1049.43 1047.84
7947.41 1071.61 1066.84
7950.15 1052.77 1049.3
7952.89 1086.63 1088.01
7955.64 1104.2 1100.12
7958.38 1079.56 1074.32
7961.12 1080.41 1084.03
7963.86 1065.53 1074.53
7966.6 1078.57 1086
7969.34 1093.54 1096.35
7972.08 1096.37 1093.64
7974.82 1072.38 1071.08
7977.55 1083.13 1086.03
7980.29 1074.78 1073.31
7983.03 1071.38 1067.18
7985.77 1073.17 1068.52
7988.51 1074.09 1073.84
7991.25 1075.84 1080.05
7993.98 1066.55 1077.71
7996.72 1073.13 1078.97
7999.46 1067.05 1071.23
8002.2 1067.91 1066.56
8004.93 1065.02 1063.82
8007.67 1071.01 1066.89
8010.41 1074.53 1074.54
8013.14 1074.86 1067.6
8015.88 1074.23 1067.77
8018.61 1059.45 1052.96
8021.35 1053.73 1056.64
8024.09 1041.66 1048.96
8026.82 1057.1 1063.71
8029.55 1045.84 1044.75
8032.29 1050.07 1050.88
8035.02 1046.41 1048.64
8037.76 1062.48 1055.33
8040.49 1038.21 1038.62
8043.23 1033.95 1028.17
8045.96 1044.12 1041.03
8048.69 1038.71 1030.87
8051.42 1041.52 1036.76
8054.16 1046.25 1044.31
8056.89 1038.95 1045.25
8059.62 1027.19 1028.8
8062.35 1033.41 1034.43
8065.09 1049.06 1049.76
8067.82 1032.33 1039.32
8070.55 1043.11 1043.32
8073.28 1040.83 1048.32
8076.01 1037.54 1037.47
8078.74 1041.79 1040.15
8081.47 1021.96 1021.04
8084.2 1025.68 1023.15
8086.93 1005.84 1003.42
8089.66 1015.69 1011.94
8092.39 1030.15 1031.9
8095.12 1031.26 1032.84
8097.85 1018.93 1017
8100.58 1020.64 1025.77
8103.31 1028.32 1035.45
8106.03 1007.46 1011.53
8108.76 1020.08 1029.14
8111.49 1018.89 1008.97
8114.22 1031.44 1024.03
8116.95 1022.8 1028.28
8119.67 1006.83 1006.42
8122.4 1002.06 1003.02
8125.13 1002.16 996.084
8127.85 1005.18 1007.89
8130.58 980.589 980.338
8133.3 984.391 984.741
8136.03 985.531 976.313
8138.76 1004.55 1001.97
8141.48 971.788 972.21
8144.21 963.746 965.024
8146.93 957.863 961.257
8149.66 956.308 961.586
8152.38 962.728 964.7
8155.1 958.346 954.527
8157.83 962.452 962.284
8160.55 941.66 939.61
8163.27 936.287 935.594
8166 932.256 928.954
8168.72 946.33 946.055
8171.44 953.128 958.588
8174.17 952.566 949.619
8176.89 943.344 939.569
8179.61 930.914 934.359
8182.33 928.902 925.016
8185.05 921.863 924.754
8187.77 934.593 937.36
8190.49 915.687 915.841
8193.21 904.42 904.018
8195.94 904.795 900.232
8198.66 902.952 905.189
8201.38 912.263 912.739
8204.1 943.032 937.106
8206.81 934.019 940.072
8209.53 964.959 961.479
8212.25 945.886 953.779
8214.97 958.951 958.512
8217.69 949.916 948.222
8220.41 927.753 926.599
8223.13 927.485 931.852
8225.84 913.421 918.331
8228.56 903.737 900.874
8231.28 913.625 913.79
8234 932.601 930.98
8236.71 946.578 944.077
8239.43 950.591 949.103
8242.15 948.128 950.61
8244.86 954.092 954.827
8247.58 960.272 955.681
8250.29 952.234 952.076
8253.01 937.643 939.115
8255.72 935.565 941.46
8258.44 937.142 937.745
8261.15 939.209 939.844
8263.87 951.388 947.671
8266.58 967.356 968.25
8269.3 949.909 955.152
8272.01 946.209 945.01
8274.72 932.234 929.996
8277.44 928.267 925.782
8280.15 943.728 942.192
8282.86 926.193 927.647
8285.57 931.982 929.501
8288.29 914.641 906.587
8291 914.527 913.454
8293.71 925.625 917.826
8296.42 937.213 941.512
8299.13 942.783 945.126
8301.84 933.218 938.945
8304.56 927.011 927.949
8307.27 929.422 932.966
8309.98 916.384 919.096
8312.69 928.322 931.85
8315.4 927.441 927.882
8318.11 933.532 934.516
8320.81 929.987 930.294
8323.52 926.228 924.293
8326.23 924.768 928.145
8328.94 914.755 915.873
8331.65 894.719 890.968
8334.36 906.181 905.733
8337.06 905.147 893.682
8339.77 921.04 909.01
8342.48 937.623 934.844
8345.19 946.689 951.849
8347.89 943.849 952.369
8350.6 936.576 945.74
8353.31 932.619 932.65
8356.01 936.064 938.437
8358.72 954.582 950.621
8361.42 946.226 945.086
8364.13 937.776 938.712
8366.83 938.519 938.132
8369.54 949.504 950.029
8372.24 945.375 947.547
8374.95 939.248 940.883
8377.65 948.712 944.218
8380.36 949.047 946.73
8383.06 944.73 947.402
8385.76 925.176 926.972
8388.47 923.375 926.77
8391.17 917.747 918.487
8393.87 939.049 926.222
8396.57 941.864 934.338
8399.27 936.687 931.02
8401.98 924.554 930.916
8404.68 919.971 922.245
8407.38 931.315 933.029
8410.08 933.067 931.25
8412.78 927.683 923.385
8415.48 926.358 930.335
8418.18 933.594 933.25
8420.88 939.646 940.702
8423.58 924.411 922.41
8426.28 914.207 913.655
8428.98 924.32 930.777
8431.68 929.089 931.414
8434.38 918.353 927.452
8437.08 909.068 916.171
8439.78 912.522 911.99
8442.47 889.239 891.539
8445.17 890.802 898.153
8447.87 880.147 882.725
8450.57 919.347 918.541
8453.26 906.983 915.226
8455.96 928.022 922.414
8458.66 920.454 927.337
8461.35 893.23 893.281
8464.05 921.072 918.468
8466.74 906.606 908.727
8469.44 894.265 891.616
8472.13 905.051 908.676
8474.83 899.197 899.349
8477.52 903.113 900.458
8480.22 931.497 926.466
8482.91 961.007 959.732
8485.61 947.766 947.549
8488.3 952.44 947.684
8490.99 916.322 915.585
8493.69 912.687 911.435
8496.38 897.516 895.45
8499.07 856.511 840.267
8501.76 861.014 838.046
8504.46 907.967 884.892
8507.15 899.398 869.174
8509.84 920.856 890.344
8512.53 926.185 898.517
8515.22 923.882 889.302
8517.91 922.666 888.086
8520.6 887.085 918.359
8523.29 904.124 943.494
8525.98 904.422 935.747
8528.67 880.341 912.961
8531.36 876.242 906.675
8534.05 868.187 897.167
8536.74 863.663 894.962
8539.43 826.347 850.077
8542.12 806.073 825.339
8544.81 790.726 801.152
8547.49 799.526 809.185
8550.18 843.982 848.505
8552.87 868.787 870.494
8555.56 871.175 875.695
8558.24 890.578 892.487
8560.93 891.76 891.868
8563.62 898.071 893.227
8566.3 917.772 899.993
8568.99 925.052 920.719
8571.67 906.068 908.368
8574.36 896.813 894.064
8577.05 896.2 894.999
8579.73 901.223 894.477
8582.41 908.506 899.335
8585.1 900.974 887.14
8587.78 898.417 887.174
8590.47 880.893 875.837
8593.15 864.101 859.845
8595.83 843.822 844.753
8598.52 828.106 812.391
8601.2 823.156 816.944
8603.88 827.426 816.427
8606.56 865.887 852.867
8609.25 864.103 860.825
8611.93 868.231 865.644
8614.61 877.568 873.71
8617.29 882.398 874.242
8619.97 902.059 891.936
8622.65 890.383 892.233
8625.33 902.952 899.86
8628.01 895.647 900.746
8630.69 905.91 912.756
8633.37 904.062 904.444
8636.05 908.06 909.074
8638.73 913.3 904.072
8641.41 910.352 911.175
8644.09 903.957 897.281
8646.77 878.819 894.255
8649.44 858.969 869.144
8652.12 858.197 877.149
8654.8 866.984 867.69
8657.48 852.466 858.658
8660.15 809.302 819.44
8662.83 753.629 759.026
8665.51 734.543 735.722
8668.18 733.351 733.334
8670.86 763.313 767.693
8673.53 800.708 808.979
8676.21 817.447 824.566
8678.88 826.401 819.038
8681.56 842.792 842.473
8684.23 856.361 853.138
8686.91 858.978 869.741
8689.58 849.594 853.797
8692.25 880.423 873.693
8694.93 885.204 878.182
8697.6 875.415 878.79
8700.27 883.603 882.788
8702.95 888.322 884.519
8705.62 897.346 895.788
8708.29 896.301 895.356
8710.96 892.857 892.909
8713.63 876.579 881.754
8716.31 882.961 873.771
8718.98 916.072 901.401
8721.65 901.259 892.63
8724.32 925.015 922.629
8726.99 895.885 892.064
8729.66 870.182 884.371
8732.33 879 873.271
8735 868.106 866.623
8737.67 863.223 862.562
8740.33 840.767 831.65
8743 835.895 837.943
8745.67 804.797 800.398
8748.34 760.978 766.793
8751.01 743.715 747.781
8753.67 733.084 731.198
8756.34 750.208 752.487
8759.01 762.422 769.248
8761.68 803.533 816.112
8764.34 820.94 832.639
8767.01 818.255 832.948
8769.67 850.539 851.658
8772.34 844.84 847.602
8775 844.867 846.583
8777.67 859.469 858.23
8780.33 861.683 856.513
8783 869.681 855.607
8785.66 878.102 848.898
8788.33 871.985 858.376
8790.99 842.723 825.926
8793.65 845.961 841.111
8796.32 857.763 841.885
8798.98 846.672 838.077
8801.64 855.313 854.134
8804.3 861.744 854.54
8806.97 839.73 839.398
8809.63 847.274 851.096
8812.29 834.608 842.469
8814.95 834.023 840.071
8817.61 845.234 851.607
8820.27 851.35 855.5
8822.93 839.555 860.089
8825.59 851.417 882.667
8828.25 834.051 873.83
8830.91 842.523 896.559
8833.57 816.701 845.606
8836.23 815.779 831.688
8838.89 820.494 818.213
8841.55 820.677 792.36
8844.21 830.502 793.297
8846.86 817.377 787.178
8849.52 818.766 793.807
8852.18 806.551 791.778
8854.84 789.95 784.078
8857.49 749.115 749.669
8860.15 722.4 718.69
8862.8 698.067 704.218
8865.46 693.669 674.683
8868.12 700.629 690.638
8870.77 730.976 727.257
8873.43 770.361 754.234
8876.08 800.057 779.779
8878.74 807.66 797.718
8881.39 809.522 819.51
8884.04 828.365 851.704
8886.7 839.136 876.601
8889.35 831.36 854.436
8892 852.859 860.52
8894.66 863.667 851.677
8897.31 879.536 857.815
8899.96 868.792 857.243
8902.61 866.215 862.894
8905.27 855.712 861.608
8907.92 868.452 871.826
8910.57 870.654 859.078
8913.22 852.601 831.034
8915.87 849.63 845.767
8918.52 843.13 874.373
8921.17 827.587 866.84
8923.82 810.537 858.006
8926.47 811.094 825.462
8929.12 808.712 795.257
8931.77 810.087 771.194
8934.42 810.838 794.04
8937.06 819.885 794.841
8939.71 827.654 825.729
8942.36 798.668 799.31
8945.01 781.578 795.583
8947.65 782.689 785.86
8950.3 762.868 751.806
8952.95 770.89 758.078
8955.59 751.02 762.85
8958.24 758.186 780.567
8960.89 759.697 779.143
8963.53 742.998 756.307
8966.18 732.909 731.836
8968.82 733.501 724.87
8971.47 724.155 720.487
8974.11 725.444 706.783
8976.75 737.156 714.824
8979.4 749.434 732.053
8982.04 749.035 738.219
8984.68 752.272 747.393
8987.33 736.645 749.673
8989.97 713.834 718.005
8992.61 690.671 688.287
8995.25 698.518 704.914
8997.9 723.456 730.812
9000.54 715.822 739.316
9003.18 701.396 723.673
9005.82 709.267 722.078
9008.46 701.268 694.761
9011.1 689.777 687.594
9013.74 646.182 661.327
9016.38 614.245 612.887
9019.02 590.566 573.368
9021.66 614.364 599.481
9024.3 643.699 642.997
9026.94 696.333 674.229
9029.57 708.418 684.998
9032.21 730.531 723.574
9034.85 731.405 741.79
9037.49 737.969 747.566
9040.12 731.402 738.048
9042.76 736.581 738.536
9045.4 725.205 724.104
9048.03 736.618 738.931
9050.67 738.643 739.822
9053.31 750.494 753.36
9055.94 747.205 750.218
9058.58 742.172 735.582
9061.21 768.321 777.376
9063.85 784.197 787.875
