wavelength spectrum_sum 3smoothed_sum spectrum_optimal 3smoothed_optimal
3505.79 118.439 101.008 123.739 102.418
3508.71 184.584 170.438 183.514 172.331
3511.62 208.29 217.315 209.741 213.583
3514.54 259.07 249.925 247.495 237.531
3517.45 282.415 268.523 255.356 247.864
3520.37 264.083 282.788 240.742 265.736
3523.28 301.866 279.827 301.111 262.775
3526.19 273.533 265.634 246.471 246.262
3529.11 221.503 236.435 191.203 204.215
3532.02 214.269 212.289 174.972 187.956
3534.94 201.096 201.992 197.692 188.648
3537.85 190.612 215.859 193.28 203.004
3540.76 255.869 235.617 218.038 221.388
3543.68 260.371 248.399 252.846 232.843
3546.59 228.959 245.613 227.645 237.209
3549.51 247.509 242.567 231.137 239.071
3552.42 251.233 249.516 258.432 246.133
3555.33 249.806 263.075 248.83 269.497
3558.25 288.186 269.092 301.23 272.649
3561.16 269.283 271.726 267.887 266.558
3564.08 257.71 266.651 230.557 255.998
3566.99 272.961 258.964 269.551 247.585
3569.91 246.222 265.535 242.647 257.368
3572.82 277.422 266.348 259.907 259.096
3575.73 275.4 278.74 274.734 267.605
3578.65 283.398 284.255 268.172 271.86
3581.56 293.967 295.306 272.672 272.777
3584.48 308.553 303.94 277.487 270.471
3587.39 309.299 318.023 261.254 278.882
3590.3 336.215 303.73 297.906 268.701
3593.22 265.676 296.788 246.943 274.373
3596.13 288.473 280.722 278.27 267.844
3599.05 288.018 299.385 278.318 286.22
3601.96 321.665 303.049 302.072 290.469
3604.87 299.464 301.931 291.019 286.426
3607.79 284.665 309.623 266.188 295.934
3610.7 344.74 317.56 330.596 299.021
3613.61 323.274 348.441 300.279 331
3616.53 377.308 329.847 362.125 309.503
3619.44 288.958 342.056 266.105 320.165
3622.36 359.904 311.239 332.264 296.132
3625.27 284.855 306.204 290.028 294.467
3628.18 273.854 296.976 261.11 285.464
3631.1 332.22 308.735 305.255 288.842
3634.01 320.132 339.312 300.16 319.672
3636.93 365.583 334.246 353.601 316.113
3639.84 317.024 333.093 294.577 317.811
3642.75 316.672 313.984 305.255 298.022
3645.67 308.256 300.892 294.232 291.451
3648.58 277.747 299.536 274.867 286.184
3651.49 312.604 289.529 289.452 276.256
3654.41 278.237 278.935 264.45 266.056
3657.32 245.963 271.079 244.266 265.586
3660.24 289.035 274.385 288.043 270.575
3663.15 288.156 282.265 279.416 277.439
3666.06 269.605 273.843 264.858 266.638
3668.98 263.769 260.782 255.639 257.681
3671.89 248.971 266.31 252.547 259.218
3674.8 286.19 279.005 269.469 270.259
3677.72 301.856 266.481 288.761 251.621
3680.63 211.399 261.231 196.634 248.695
3683.55 270.438 237.525 260.69 221.119
3686.46 230.74 249.536 206.032 227.49
3689.37 247.431 233.157 215.748 206.863
3692.29 221.301 245.556 198.808 216.581
3695.2 267.936 241.883 235.188 224.906
3698.11 236.413 256.74 240.721 238.506
3701.03 265.871 242.565 239.609 240.505
3703.94 225.412 246.553 241.186 235.937
3706.85 248.376 221.353 227.017 220.036
3709.77 190.27 219.367 191.906 210.857
3712.68 219.456 216.78 213.649 206.23
3715.59 240.615 218.329 213.136 202.091
3718.51 194.917 200.33 179.489 178.537
3721.42 165.456 177.847 142.987 166.656
3724.33 173.169 189.324 177.491 177.417
3727.25 229.348 195.247 211.772 185.742
3730.16 183.225 204.619 167.963 192.995
3733.07 201.284 189.864 199.251 180.95
3735.99 185.084 189.837 175.635 186.015
3738.9 183.143 189.646 183.16 177.637
3741.81 200.71 186.595 174.115 173.502
3744.73 175.932 190.235 163.232 182.001
3747.64 194.063 178.493 208.657 190.222
3750.55 165.483 172.774 198.775 184.463
3753.47 158.776 169.578 145.956 173.474
3756.38 184.476 168.884 175.691 155.002
3759.29 163.4 189.194 143.36 176.975
3762.21 219.707 194.217 211.875 178.485
3765.12 199.544 207.414 180.221 195.505
3768.03 202.99 196.318 194.419 176.956
3770.95 186.42 186.285 156.229 178.998
3773.86 169.445 189.415 186.346 191.886
3776.77 212.381 182.422 233.083 200.562
3779.69 165.441 200.213 182.256 219.725
3782.6 222.816 193.542 243.836 216.048
3785.51 192.371 199.715 222.051 225.726
3788.43 183.959 197.098 211.29 214.513
3791.34 214.965 200.782 210.197 216.383
3794.25 203.421 206.949 227.662 215.561
3797.16 202.462 204.379 208.823 223.617
3800.08 207.254 207.427 234.364 218.224
3802.99 212.565 218.258 211.484 232.484
3805.9 234.954 231.474 251.605 240.895
3808.82 246.903 229.014 259.598 242.086
3811.73 205.184 239.878 215.055 246.749
3814.64 267.547 245.139 265.595 258.338
3817.56 262.686 273.526 294.364 284.663
3820.47 290.346 274.421 294.031 285.662
3823.38 270.232 276.592 268.592 286.378
3826.29 269.199 287.208 296.511 292.36
3829.21 322.195 297.169 311.977 309.269
3832.12 300.114 305.222 319.321 307.749
3835.03 293.359 304.05 291.949 302.059
3837.95 318.677 308.026 294.908 300.97
3840.86 312.041 308.953 316.054 306.754
3843.77 296.14 306.497 309.3 310.482
3846.68 311.308 304.215 306.092 305.54
3849.6 305.197 305.634 301.228 298.25
3852.51 300.397 311.149 287.43 310.922
3855.42 327.855 320.414 344.108 321.698
3858.33 332.991 326.898 333.555 335.099
3861.25 319.849 342.266 327.634 342.505
3864.16 373.958 348.95 366.327 353.355
3867.07 353.044 352.671 366.104 366.083
3869.98 331.011 349.609 365.818 377.878
3872.9 364.773 344.031 401.713 364.626
3875.81 336.31 348.939 326.347 374.372
3878.72 345.735 376 395.055 390.954
3881.63 445.957 392.279 451.459 418.871
3884.55 385.147 434.05 410.1 439.65
3887.46 471.046 454.413 457.391 460.59
3890.37 507.046 495.845 514.278 490.479
3893.28 509.442 506.757 499.769 499.416
3896.2 503.783 504.154 484.202 495.879
3899.11 499.237 517.449 503.665 508.564
3902.02 549.327 532.464 537.823 534.429
3904.93 548.829 547.508 561.799 548.619
3907.85 544.368 564.726 546.234 574.874
3910.76 600.983 581.878 616.588 603.129
3913.67 600.283 603.184 646.565 643.681
3916.58 608.288 619.182 667.89 663.012
3919.49 648.977 650.062 674.582 690.713
3922.41 692.921 674.202 729.666 708.963
3925.32 680.708 685.051 722.64 713.983
3928.23 681.522 684.692 689.643 695.851
3931.14 691.846 705.946 675.269 700.974
3934.05 744.47 715.484 738.01 713.761
3936.97 710.136 753.002 728.006 759.034
3939.88 804.399 764.608 811.087 785.758
3942.79 779.289 801.508 818.183 823.535
3945.7 820.835 823.919 841.334 852.916
3948.61 871.634 854.623 899.232 879.263
3951.53 871.401 884.64 897.222 920.468
3954.44 910.885 887.879 964.949 925.788
3957.35 881.353 903.547 915.193 942.227
3960.26 918.403 905.768 946.539 931.711
3963.17 917.549 923.127 933.402 941.91
3966.09 933.429 946.957 945.789 948.491
3969 989.893 967.705 966.282 973.544
3971.91 979.792 974.99 1008.56 988.48
3974.82 955.285 968.965 990.598 993.75
3977.73 971.818 973.713 982.094 997.971
3980.64 994.037 1005.27 1021.22 1021.25
3983.56 1049.95 1031.21 1060.44 1054.39
3986.47 1049.64 1034.11 1081.52 1049.96
3989.38 1002.74 1025.79 1007.93 1060.77
3992.29 1025 1027.13 1092.87 1077.16
3995.2 1053.64 1045.47 1130.67 1102.21
3998.11 1057.78 1072.44 1083.09 1108.78
4001.03 1105.89 1080.02 1112.59 1097.44
4003.94 1076.39 1087.94 1096.65 1110.06
4006.85 1081.54 1085.14 1120.94 1114.62
4009.76 1097.47 1081.86 1126.27 1133.67
4012.67 1066.56 1115.59 1153.79 1150.84
4015.58 1182.73 1087.9 1172.47 1129.24
4018.49 1014.4 1070.05 1061.47 1106.98
4021.41 1013.02 1020.09 1087 1067.03
4024.32 1032.84 1040.41 1052.62 1073.32
4027.23 1075.37 1037.04 1080.35 1063.64
4030.14 1002.92 1047.8 1057.96 1076.55
4033.05 1065.12 1027.91 1091.34 1061.15
4035.96 1015.67 1032.96 1034.16 1061.75
4038.87 1018.09 1010.93 1059.74 1041.61
4041.78 999.037 1012.55 1030.94 1048.09
4044.69 1020.54 1009.95 1053.59 1039.4
4047.61 1010.29 1006.95 1033.67 1035.7
4050.52 990.027 1003.41 1019.83 1035.33
4053.43 1009.93 983.895 1052.5 1020.39
4056.34 951.731 986.823 988.858 1021.34
4059.25 998.811 986.19 1022.65 1015.78
4062.16 1008.03 963.965 1035.84 1003.09
4065.07 885.057 964.108 950.791 1007.49
4067.98 999.24 943.789 1035.85 998.156
4070.89 947.069 990.064 1007.83 1034.09
4073.8 1023.88 1012.4 1058.58 1061.04
4076.71 1066.25 1068.74 1116.7 1103.24
4079.63 1116.08 1057.06 1134.43 1112.9
4082.54 988.856 1045.89 1087.56 1100.15
4085.45 1032.73 1015.46 1078.47 1079.44
4088.36 1024.8 1027.69 1072.27 1072.64
4091.27 1025.53 1042.94 1067.16 1095.19
4094.18 1078.49 1050.39 1146.12 1091.1
4097.09 1047.15 1089.35 1060.02 1130.64
4100 1142.42 1111.18 1185.79 1142.47
4102.91 1143.96 1164.56 1181.61 1212.49
4105.82 1207.29 1184.91 1270.07 1232.74
4108.73 1203.47 1186.17 1246.54 1265.35
4111.64 1147.76 1207.52 1279.44 1295.21
4114.55 1271.33 1227.56 1359.66 1319.11
4117.46 1263.58 1287.31 1318.21 1355.21
4120.37 1327.01 1293.36 1387.75 1355.61
4123.28 1289.48 1305.98 1360.88 1373.74
4126.19 1301.44 1309.18 1372.58 1381.02
4129.1 1336.62 1328.34 1409.6 1398.04
4132.01 1346.97 1343.41 1411.93 1411.57
4134.92 1346.64 1360.04 1413.18 1439.6
4137.83 1386.51 1357.42 1493.69 1442.57
4140.74 1339.13 1401.39 1420.85 1482.9
4143.65 1478.54 1428.28 1534.14 1498.16
4146.56 1467.19 1470.47 1539.48 1544.97
4149.47 1465.69 1470.65 1561.28 1543.54
4152.38 1479.08 1453.37 1529.87 1537.06
4155.29 1415.32 1454.99 1520.04 1524.61
4158.2 1470.57 1489.96 1523.91 1562.15
4161.11 1583.98 1541.71 1642.51 1609.54
4164.02 1570.59 1575.9 1662.21 1664.45
4166.93 1573.13 1546.62 1688.62 1649.5
4169.84 1496.15 1516.12 1597.66 1614.48
4172.75 1479.07 1488.75 1557.17 1598.3
4175.66 1491.02 1525.66 1640.06 1621.21
4178.57 1606.9 1505.51 1666.4 1622.46
4181.48 1418.63 1527.92 1560.93 1616.97
4184.39 1558.22 1520.51 1623.57 1616.59
4187.3 1584.68 1571.36 1665.27 1648.71
4190.21 1571.16 1559.67 1657.29 1650.47
4193.12 1523.18 1533.61 1628.84 1615.72
4196.03 1506.5 1513.88 1561.01 1572.18
4198.94 1511.97 1508.2 1526.69 1550.2
4201.85 1506.13 1484.95 1562.89 1530.67
4204.76 1436.74 1472.68 1502.44 1539.79
4207.67 1475.18 1457.03 1554.03 1537.65
4210.58 1459.18 1479.98 1556.49 1579.65
4213.49 1505.58 1464.31 1628.41 1572.74
4216.4 1428.18 1467.1 1533.33 1562.3
4219.31 1467.54 1453.45 1525.16 1545.82
4222.21 1464.63 1468.54 1578.97 1554.55
4225.12 1473.44 1481.11 1559.53 1574.54
4228.03 1505.26 1478.17 1585.13 1552.4
4230.94 1455.81 1487.74 1512.55 1565.38
4233.85 1502.16 1444.75 1598.47 1520.57
4236.76 1376.28 1480 1450.7 1564.19
4239.67 1561.58 1450.49 1643.4 1549.56
4242.58 1413.62 1480.36 1554.58 1576.14
4245.49 1465.88 1434.94 1530.42 1528.7
4248.4 1425.34 1441.14 1501.1 1516.71
4251.3 1432.2 1454.47 1518.61 1530.5
4254.21 1505.88 1450.95 1571.79 1534.72
4257.12 1414.78 1474.28 1513.78 1540.4
4260.03 1502.18 1469.28 1535.62 1535.22
4262.94 1490.86 1482.34 1556.25 1541.94
4265.85 1453.98 1452.6 1533.93 1532.04
4268.76 1412.97 1448.3 1505.92 1524.01
4271.67 1477.95 1443.66 1532.16 1514.15
4274.57 1440.06 1425.59 1504.38 1482.73
4277.48 1358.75 1401.63 1411.64 1468.84
4280.39 1406.09 1386.47 1490.49 1472.59
4283.3 1394.57 1368.04 1515.62 1473.14
4286.21 1303.45 1357.87 1413.3 1475.39
4289.12 1375.58 1366.58 1497.24 1479.94
4292.02 1420.73 1402.3 1529.27 1503.11
4294.93 1410.61 1411.42 1482.81 1495.22
4297.84 1402.93 1388.8 1473.58 1468.33
4300.75 1352.86 1346.38 1448.6 1427.16
4303.66 1283.35 1292.05 1359.31 1381.95
4306.57 1239.93 1230.54 1337.95 1325.72
4309.47 1168.34 1208.42 1279.91 1302.37
4312.38 1216.99 1210.05 1289.25 1291.09
4315.29 1244.82 1224.91 1304.09 1300.69
4318.2 1212.93 1226.3 1308.73 1298.62
4321.11 1221.15 1226.65 1283.03 1306.19
4324.01 1245.88 1213.31 1326.81 1279.92
4326.92 1172.88 1198.25 1229.91 1272.13
4329.83 1175.98 1152.55 1259.66 1251.4
4332.74 1108.78 1133.94 1264.63 1235.27
4335.64 1117.06 1111.61 1181.54 1202.15
4338.55 1109 1098.47 1160.28 1164.68
4341.46 1069.35 1058.6 1152.22 1159.55
4344.37 997.435 1052.8 1166.14 1173.02
4347.28 1091.61 1039.58 1200.69 1160.7
4350.18 1029.68 1046.12 1115.26 1146.68
4353.09 1017.08 1035.59 1124.08 1119.27
4356 1060 1061.36 1118.46 1140.45
4358.91 1107 1082.9 1178.81 1149.13
4361.81 1081.7 1069.28 1150.13 1148.38
4364.72 1019.13 1011.28 1116.21 1111.7
4367.63 932.994 995.304 1068.75 1089.62
4370.53 1033.78 973.435 1083.89 1075.85
4373.44 953.528 1021.26 1074.9 1099.47
4376.35 1076.46 1009.73 1139.61 1097.57
4379.26 999.196 1019.78 1078.2 1087.68
4382.16 983.675 1016.56 1045.22 1090.13
4385.07 1066.8 1016.51 1146.98 1078.27
4387.98 999.061 1016.66 1042.62 1076.87
4390.88 984.106 995.999 1041.02 1063.1
4393.79 1004.83 1038.94 1105.66 1102.77
4396.7 1127.9 1072.82 1161.63 1141.57
4399.6 1085.72 1081.67 1157.41 1178.01
4402.51 1031.38 1073.85 1214.99 1173.2
4405.42 1104.45 1068.47 1147.2 1166.34
4408.32 1069.57 1086.26 1136.82 1161.07
4411.23 1084.75 1079.28 1199.18 1162.84
4414.14 1083.52 1102.54 1152.53 1200.53
4417.04 1139.35 1106.07 1249.88 1200.53
4419.95 1095.35 1108 1199.18 1206.47
4422.86 1089.29 1117.59 1170.35 1197.96
4425.76 1168.14 1164.23 1224.36 1247.76
4428.67 1235.27 1176.23 1348.59 1296.52
4431.58 1125.29 1211 1316.63 1360.16
4434.48 1272.44 1189.24 1415.25 1362.35
4437.39 1169.98 1222.17 1355.16 1396.39
4440.3 1224.1 1241.1 1418.76 1416.87
4443.2 1329.23 1285.86 1476.7 1437.74
4446.11 1304.25 1300.52 1417.77 1436.57
4449.01 1268.08 1280.26 1415.24 1434.19
4451.92 1268.45 1262.58 1469.54 1455.19
4454.83 1251.22 1271.69 1480.8 1483.16
4457.73 1295.41 1287.12 1499.13 1471.65
4460.64 1314.75 1288.88 1435.03 1455.53
4463.54 1256.49 1316.95 1432.44 1460.01
4466.45 1379.62 1339.56 1512.57 1474.01
4469.36 1382.58 1405.58 1477.01 1517.5
4472.26 1454.54 1406.73 1562.92 1510.12
4475.17 1383.09 1404.5 1490.44 1514.24
4478.07 1375.87 1350.38 1489.38 1458.92
4480.98 1292.18 1329.22 1396.93 1437.31
4483.88 1319.59 1299.27 1425.63 1428.98
4486.79 1286.04 1321.81 1464.37 1453.52
4489.69 1359.8 1347.79 1470.57 1484.89
4492.6 1397.53 1329.98 1519.73 1475.66
4495.51 1232.61 1290 1436.66 1461
4498.41 1239.86 1245.67 1426.62 1429.09
4501.32 1264.53 1259.68 1423.99 1419.33
4504.22 1274.64 1292.24 1407.38 1428.62
4507.13 1337.55 1282.37 1454.5 1427.31
4510.03 1234.91 1285.1 1420.04 1421.82
4512.94 1282.83 1260.45 1390.93 1415.62
4515.84 1263.6 1269.87 1435.89 1450.45
4518.75 1263.19 1261.56 1524.54 1447
4521.65 1257.9 1286.41 1380.56 1449.8
4524.56 1338.15 1336.06 1444.3 1446.48
4527.46 1412.13 1387.24 1514.6 1506.11
4530.37 1411.44 1410.99 1559.42 1543.56
4533.27 1409.4 1413.47 1556.67 1559.07
4536.18 1419.59 1424.7 1561.12 1567.48
4539.08 1445.12 1428.26 1584.64 1561.3
4541.98 1420.06 1452.76 1538.16 1589.89
4544.89 1493.11 1464.73 1646.87 1608.67
4547.79 1481.03 1464.87 1640.97 1641.33
4550.7 1420.46 1481.17 1636.14 1657.1
4553.6 1542 1470.58 1694.2 1672.07
4556.51 1449.27 1506.15 1685.89 1677.19
4559.41 1527.17 1513.88 1651.5 1679.52
4562.32 1565.19 1578.38 1701.17 1706.27
4565.22 1642.79 1603.68 1766.15 1734.44
4568.12 1603.07 1604.61 1736 1738.87
4571.03 1567.97 1617.67 1714.45 1764.23
4573.93 1681.98 1604.11 1842.24 1767.64
4576.84 1562.38 1636.32 1746.25 1800.34
4579.74 1664.59 1611.17 1812.52 1782.71
4582.64 1606.53 1605.66 1789.38 1804.77
4585.55 1545.85 1620.96 1812.41 1813.37
4588.45 1710.51 1643.99 1838.32 1836.83
4591.35 1675.6 1696.16 1859.76 1861.92
4594.26 1702.35 1671.44 1887.67 1877.8
4597.16 1636.38 1700.26 1885.98 1898.71
4600.07 1762.07 1729.44 1922.49 1926.73
4602.97 1789.87 1783.08 1971.72 1946.44
4605.87 1797.3 1793.36 1945.12 1939.17
4608.78 1792.92 1784.12 1900.68 1921.17
4611.68 1762.14 1757.76 1917.7 1892.58
4614.58 1718.22 1737.99 1859.37 1892.84
4617.49 1733.6 1742.45 1901.46 1889.52
4620.39 1775.53 1764.24 1907.72 1920.55
4623.29 1783.59 1790.9 1952.47 1956.59
4626.2 1813.58 1802.07 2009.57 1963.07
4629.1 1809.03 1814.13 1927.18 1976.97
4632 1819.77 1769.19 1994.17 1954.88
4634.9 1678.79 1751.54 1943.29 1963.52
4637.81 1756.05 1746.09 1953.09 1939.92
4640.71 1803.43 1804.24 1923.38 1965.83
4643.61 1853.23 1772.86 2021.03 1957.55
4646.52 1661.92 1760.3 1928.24 1970.4
4649.42 1765.76 1693.17 1961.94 1921.11
4652.32 1651.84 1704.65 1873.14 1888.94
4655.22 1696.36 1704.55 1831.73 1874.75
4658.13 1765.46 1754.25 1919.39 1908.53
4661.03 1800.95 1785.72 1974.47 1956.96
4663.93 1790.76 1772.69 1977.02 1981.54
4666.83 1726.34 1766.74 1993.12 1962.95
4669.74 1783.13 1768.59 1918.71 1961.06
4672.64 1796.31 1795.16 1971.34 1941.77
4675.54 1806.03 1840.53 1935.26 1993.83
4678.44 1919.26 1875.16 2074.89 2012.53
4681.35 1900.2 1866.19 2027.44 2004.6
4684.25 1779.11 1822.68 1911.49 1964.85
4687.15 1788.72 1786.61 1955.62 1946.55
4690.05 1792.01 1810.22 1972.56 2001.51
4692.95 1849.94 1810.02 2076.37 1998.76
4695.85 1788.1 1819.2 1947.35 2010.88
4698.76 1819.55 1733.53 2008.93 1952.62
4701.66 1592.95 1740.1 1901.59 1965.46
4704.56 1807.8 1695.61 1985.86 1920.64
4707.46 1686.07 1739.01 1874.46 1910.98
4710.36 1723.15 1685.3 1872.61 1869.56
4713.26 1646.68 1667.96 1861.61 1852.36
4716.17 1634.04 1681.14 1822.86 1863.18
4719.07 1762.69 1632.04 1905.06 1830.63
4721.97 1499.38 1627.26 1763.98 1807.3
4724.87 1619.72 1582.85 1752.85 1769.09
4727.77 1629.45 1608.6 1790.43 1766.98
4730.67 1576.63 1569.79 1757.66 1728.6
4733.57 1503.29 1545.15 1637.72 1708.56
4736.47 1555.54 1537.15 1730.29 1688.56
4739.38 1552.61 1525.34 1697.68 1707.6
4742.28 1467.88 1528.74 1694.83 1699.88
4745.18 1565.71 1511.61 1707.12 1721.76
4748.08 1501.23 1535.83 1763.32 1702.71
4750.98 1540.54 1499.68 1637.68 1687.86
4753.88 1457.27 1484.03 1662.57 1644.75
4756.78 1454.3 1435.18 1634.01 1644.48
4759.68 1393.98 1458.83 1636.86 1661.77
4762.58 1528.21 1470.75 1714.45 1655.71
4765.48 1490.07 1518.67 1615.83 1673.74
4768.38 1537.73 1487.15 1690.95 1657.96
4771.28 1433.64 1501.11 1667.11 1685.89
4774.18 1531.95 1502.17 1699.6 1681.95
4777.08 1540.93 1516.57 1679.14 1662.08
4779.98 1476.85 1503.55 1607.48 1646.76
4782.88 1492.88 1466.06 1653.65 1614.53
4785.78 1428.46 1489.48 1582.45 1643.69
4788.68 1547.09 1470.65 1694.99 1654.44
4791.58 1436.4 1488.57 1685.89 1661.53
4794.48 1482.23 1454.09 1603.73 1638.5
4797.38 1443.64 1476.42 1625.87 1622.75
4800.28 1503.39 1447.44 1638.65 1603.37
4803.18 1395.3 1459.64 1545.57 1611.64
4806.08 1480.22 1448.6 1650.71 1596.7
4808.98 1470.28 1463.31 1593.81 1614.03
4811.88 1439.43 1458.33 1597.56 1613.64
4814.78 1465.27 1451.35 1649.55 1608.9
4817.68 1449.35 1441.12 1579.61 1599.71
4820.58 1408.72 1441.29 1569.97 1586.37
4823.48 1465.79 1418.55 1609.52 1605.43
4826.38 1381.15 1391.77 1636.78 1570.97
4829.28 1328.38 1321.79 1466.62 1539.91
4832.18 1255.84 1312.72 1516.32 1506.06
4835.08 1353.94 1319.52 1535.24 1526.6
4837.97 1348.8 1352.06 1528.23 1520.1
4840.87 1353.45 1385.04 1496.84 1561.7
4843.77 1452.89 1381.01 1660.04 1553.81
4846.67 1336.69 1407.2 1504.54 1584.98
4849.57 1432.03 1362.55 1590.36 1556.63
4852.47 1318.93 1320.75 1575.01 1555.22
4855.37 1211.3 1276.68 1500.29 1544.95
4858.27 1299.8 1284.5 1559.57 1528.55
4861.16 1342.39 1332.78 1525.78 1543.04
4864.06 1356.16 1357.46 1543.77 1553.35
4866.96 1373.84 1368.53 1590.51 1566.35
4869.86 1375.6 1381.48 1564.78 1551.4
4872.76 1395 1354.41 1498.9 1534.79
4875.65 1292.63 1369.41 1540.68 1550.92
4878.55 1420.6 1363.08 1613.17 1591.77
4881.45 1376.02 1373.71 1621.48 1572.76
4884.35 1324.51 1312.64 1483.64 1510.01
4887.25 1237.4 1313.6 1424.92 1486.06
4890.14 1378.89 1308.41 1549.62 1527.65
4893.04 1308.93 1359.53 1608.42 1566.16
4895.94 1390.77 1330.4 1540.43 1545.77
4898.84 1291.49 1334.89 1488.46 1504.87
4901.74 1322.4 1292.17 1485.71 1470.37
4904.63 1262.61 1296.76 1436.95 1451.92
4907.53 1305.28 1283.17 1433.11 1434.73
4910.43 1281.63 1217.66 1434.15 1395.28
4913.32 1066.08 1201.34 1318.6 1390.12
4916.22 1256.31 1209.7 1417.63 1383.62
4919.12 1306.7 1253.99 1414.63 1386.22
4922.02 1198.95 1207.67 1326.39 1335.89
4924.91 1117.35 1128.5 1266.66 1258.8
4927.81 1069.19 1115.49 1183.35 1241.91
4930.71 1159.93 1083.39 1275.73 1212.9
4933.6 1021.04 1135.43 1179.62 1261.84
4936.5 1225.34 1119.15 1330.17 1239.25
4939.4 1111.09 1123.54 1207.95 1236.04
4942.29 1034.2 1071.06 1169.98 1171.9
4945.19 1067.88 1044.48 1137.75 1136.98
4948.09 1031.37 1067.78 1103.21 1150.56
4950.98 1104.09 1062.97 1210.73 1161.92
4953.88 1053.47 1053.76 1171.83 1157.96
4956.78 1003.73 1035.66 1091.31 1130.05
4959.67 1049.78 1037.97 1127.01 1122.66
4962.57 1060.39 1037.56 1149.64 1147.32
4965.47 1002.51 1049.92 1165.32 1170.37
4968.36 1086.86 1067.69 1196.16 1191.61
4971.26 1113.72 1138.75 1213.36 1233.79
4974.15 1215.68 1157.86 1291.85 1243.15
4977.05 1144.2 1155.73 1224.25 1230.52
4979.94 1107.32 1128.95 1175.46 1213.12
4982.84 1135.33 1133.88 1239.66 1216.19
4985.74 1158.99 1157.8 1233.45 1249.76
4988.63 1179.07 1157.06 1276.16 1241.87
4991.53 1133.11 1151.68 1216.01 1244.06
4994.42 1142.85 1107.94 1240.01 1229.13
4997.32 1047.87 1112.98 1231.37 1239.08
5000.21 1148.22 1116.55 1245.85 1238.46
5003.11 1153.55 1177.03 1238.16 1279.84
5006 1229.33 1188.52 1355.51 1288.42
5008.9 1182.67 1223.09 1271.58 1328.87
5011.79 1257.28 1235.84 1359.52 1336.56
5014.69 1267.57 1279.68 1378.57 1377.99
5017.58 1314.2 1259.54 1395.9 1390.22
5020.48 1196.85 1250.11 1396.2 1381.4
5023.37 1239.29 1256.99 1352.09 1396.23
5026.27 1334.84 1287.67 1440.39 1387.38
5029.16 1288.89 1309.52 1369.65 1408.71
5032.06 1304.84 1322.48 1416.09 1441.09
5034.95 1373.7 1342.38 1537.52 1469.55
5037.85 1348.58 1361.19 1455.04 1492.25
5040.74 1361.28 1368 1484.17 1477.08
5043.63 1394.14 1383.12 1492.04 1508.82
5046.53 1393.94 1381.98 1550.25 1510.06
5049.42 1357.85 1393.17 1487.89 1546.01
5052.32 1427.71 1358.67 1599.9 1499.12
5055.21 1290.44 1375.87 1409.59 1523.75
5058.1 1409.44 1333.85 1561.77 1467.48
5061 1301.68 1376.41 1431.09 1534.57
5063.89 1418.11 1387.19 1610.84 1554.61
5066.79 1441.79 1419.29 1621.9 1591.61
5069.68 1397.97 1404.54 1542.11 1570.09
5072.57 1373.85 1399.46 1546.27 1555.37
5075.47 1426.55 1390.63 1577.72 1549.55
5078.36 1371.48 1410.68 1524.65 1574.84
5081.25 1434.01 1395.91 1622.15 1572.34
5084.15 1382.22 1391.74 1570.23 1583.48
5087.04 1358.98 1367.63 1558.05 1567.21
5089.93 1361.7 1395.45 1573.36 1605.8
5092.82 1465.67 1388.52 1686 1598.05
5095.72 1338.19 1389.38 1534.8 1612.66
5098.61 1364.27 1368.08 1617.19 1595.19
5101.5 1401.79 1415.1 1633.57 1633.81
5104.4 1479.23 1441.22 1650.68 1632.57
5107.29 1442.63 1460.12 1613.45 1642.37
5110.18 1458.51 1401.95 1662.97 1618.07
5113.07 1304.71 1369.29 1577.8 1639.82
5115.97 1344.66 1385.27 1678.68 1658.43
5118.86 1506.44 1444.77 1718.8 1694.02
5121.75 1483.21 1475.24 1684.59 1729.86
5124.64 1436.07 1482.89 1786.18 1727.69
5127.54 1529.41 1442.02 1712.29 1738.45
5130.43 1360.58 1452.61 1716.87 1693.57
5133.32 1467.85 1441.36 1651.55 1714.82
5136.21 1495.64 1490.9 1776.02 1737.81
5139.1 1509.21 1499.14 1785.86 1774.02
5141.99 1492.56 1483.98 1760.17 1733.11
5144.89 1450.16 1469.96 1653.3 1724.58
5147.78 1467.18 1483.02 1760.27 1717.75
5150.67 1531.72 1522.18 1739.67 1774.86
5153.56 1567.66 1529.07 1824.65 1780.84
5156.45 1487.83 1592.24 1778.21 1859.53
5159.34 1721.23 1611.4 1975.75 1872.58
5162.23 1625.14 1625.61 1863.77 1899.77
5165.13 1530.46 1564.43 1859.78 1826
5168.02 1537.7 1562.4 1754.45 1829.14
5170.91 1619.04 1587.9 1873.2 1833.45
5173.8 1606.95 1593.22 1872.68 1858.74
5176.69 1553.66 1605.28 1830.33 1873.67
5179.58 1655.21 1593.06 1917.99 1850.69
5182.47 1570.29 1623.62 1803.76 1870.98
5185.36 1645.34 1624.95 1891.17 1880.53
5188.25 1659.22 1643.8 1946.64 1935.74
5191.14 1626.84 1637.09 1969.39 1937.61
5194.03 1625.2 1642.9 1896.8 1926.11
5196.92 1676.66 1647.72 1912.12 1909.82
5199.81 1641.3 1675.38 1920.53 1939.27
5202.7 1708.16 1630.09 1985.17 1951.21
5205.59 1540.8 1628.97 1947.93 1947.17
5208.48 1637.93 1570.83 1908.42 1910.69
5211.37 1533.75 1621.45 1875.73 1904.98
5214.26 1692.67 1646.1 1930.8 1915.69
5217.15 1711.87 1667.34 1940.55 1903.95
5220.04 1597.47 1629.36 1840.5 1877.83
5222.93 1578.72 1617.27 1852.45 1870.84
5225.82 1675.61 1607.72 1919.57 1871.7
5228.71 1568.83 1600.95 1843.08 1881.63
5231.6 1558.39 1593.61 1882.23 1873.56
5234.49 1653.61 1629.19 1895.37 1892.41
5237.38 1675.57 1664.79 1899.65 1901.45
5240.27 1665.17 1627.25 1909.33 1874.06
5243.16 1541.01 1579.25 1813.2 1841.44
5246.04 1531.58 1532.17 1801.78 1805.41
5248.93 1523.92 1517.49 1801.24 1793.73
5251.82 1496.97 1516.85 1778.17 1819.23
5254.71 1529.65 1558.6 1878.27 1841.12
5257.6 1649.19 1592.95 1866.93 1858.64
5260.49 1600.02 1633.47 1830.71 1879.78
5263.38 1651.19 1658.17 1941.71 1894.14
5266.26 1723.31 1650.06 1909.99 1882.67
5269.15 1575.68 1642.37 1796.3 1874.73
5272.04 1628.12 1575.08 1917.91 1821.57
5274.93 1521.44 1565.26 1750.5 1847.93
5277.82 1546.21 1572.11 1875.4 1839.1
5280.71 1648.67 1581.08 1891.39 1862.65
5283.59 1548.36 1604.54 1821.15 1852.02
5286.48 1616.59 1620.2 1843.51 1844.37
5289.37 1695.65 1599.29 1868.44 1838.14
5292.26 1485.63 1593.04 1802.47 1831.37
5295.14 1597.85 1580.32 1823.19 1845.39
5298.03 1657.49 1628.38 1910.49 1859.25
5300.92 1629.81 1603.2 1844.05 1850.89
5303.81 1522.31 1534.56 1798.14 1789.24
5306.69 1451.57 1468.05 1725.52 1783.66
5309.58 1430.28 1477.29 1827.32 1782.08
5312.47 1550.03 1438.39 1793.39 1776.12
5315.35 1334.85 1400.98 1707.64 1745.11
5318.24 1318.05 1337.08 1734.3 1703.61
5321.13 1358.36 1322.87 1668.88 1654.94
5324.01 1292.19 1320.15 1561.65 1589.75
5326.9 1309.9 1296.07 1538.73 1547.51
5329.79 1286.1 1306.17 1542.16 1552.16
5332.67 1322.51 1291.32 1575.58 1551.49
5335.56 1265.34 1267.11 1536.73 1522.89
5338.45 1213.49 1237.92 1456.37 1482.59
5341.33 1234.92 1215.24 1454.67 1435.3
5344.22 1197.3 1210.8 1394.84 1419.36
5347.1 1200.16 1208.65 1408.57 1417.41
5349.99 1228.47 1238.57 1448.81 1453.42
5352.88 1287.07 1200.28 1502.88 1450.31
5355.76 1085.31 1163.64 1399.25 1440.04
5358.65 1118.53 1117.79 1417.99 1389.19
5361.53 1149.54 1095.47 1350.33 1353.09
5364.42 1018.35 1082.41 1290.95 1313.89
5367.3 1079.34 1068.14 1300.38 1289.89
5370.19 1106.74 1079.97 1278.33 1317.82
5373.07 1053.82 1106.56 1374.74 1339.28
5375.96 1159.13 1113.86 1364.78 1354.71
5378.84 1128.64 1171.98 1324.6 1361.51
5381.73 1228.16 1195.15 1395.14 1368.81
5384.61 1228.64 1217.94 1386.71 1378.42
5387.5 1197.02 1200.97 1353.42 1357.86
5390.38 1177.26 1193.39 1333.47 1344.57
5393.27 1205.88 1178.64 1346.83 1339.32
5396.15 1152.79 1140.36 1337.66 1310.67
5399.04 1062.4 1142.99 1247.52 1320.04
5401.92 1213.77 1156.65 1374.94 1335.59
5404.81 1193.79 1238.64 1384.31 1407.49
5407.69 1308.35 1217.84 1463.21 1378.9
5410.57 1151.37 1216.27 1289.18 1357.5
5413.46 1189.08 1173 1320.1 1299.62
5416.34 1178.55 1193.19 1289.57 1300.18
5419.23 1211.93 1131.3 1290.88 1284.52
5422.11 1003.41 1139.84 1273.11 1303.44
5424.99 1204.18 1161.76 1346.32 1347.82
5427.88 1277.7 1251.7 1424.03 1392.74
5430.76 1273.23 1235.51 1407.89 1373.46
5433.64 1155.59 1214.9 1288.47 1355.9
5436.53 1215.88 1212.69 1371.35 1352.05
5439.41 1266.61 1244.17 1396.34 1381.53
5442.29 1250.03 1275.92 1376.91 1401.35
5445.18 1311.11 1268.63 1430.82 1433.51
5448.06 1244.75 1246.94 1492.81 1454.63
5450.94 1184.97 1233.52 1440.25 1436.03
5453.82 1270.83 1215.35 1375.02 1414.54
5456.71 1190.26 1226.96 1428.33 1390.69
5459.59 1219.79 1253.76 1368.72 1432.36
5462.47 1351.24 1293.22 1500.03 1443.67
5465.35 1308.62 1316.23 1462.25 1461.32
5468.24 1288.84 1295.99 1421.67 1457.08
5471.12 1290.51 1311.87 1487.31 1457.64
5474 1356.26 1298.62 1463.95 1449.37
5476.88 1249.09 1267.97 1396.84 1419.76
5479.76 1198.55 1266.75 1398.49 1430.19
5482.65 1352.6 1308.3 1495.25 1467.56
5485.53 1373.76 1304.6 1508.95 1477.24
5488.41 1187.45 1298.23 1427.53 1468.17
5491.29 1333.48 1208.15 1468.03 1401.49
5494.17 1103.52 1244.68 1308.91 1433.47
5497.05 1297.04 1163.83 1523.47 1389.89
5499.94 1090.92 1196.13 1337.3 1382.56
5502.82 1200.44 1155.36 1286.91 1308.34
5505.7 1174.74 1219 1300.8 1309.92
5508.58 1281.83 1210.14 1342.04 1302.11
5511.46 1173.83 1222.78 1263.48 1295.46
5514.34 1212.68 1184.77 1280.86 1314.12
5517.22 1167.8 1206.32 1398.03 1335.42
5520.1 1238.48 1170.56 1327.36 1306.97
5522.98 1105.4 1163.51 1195.51 1264.18
5525.86 1146.66 1136.78 1269.66 1218.88
5528.74 1158.3 1149.84 1191.47 1244.23
5531.62 1144.55 1135.37 1271.56 1259.4
5534.5 1103.27 1136.66 1315.18 1323.64
5537.38 1162.16 1145.4 1384.18 1318.08
5540.26 1170.77 1149.94 1254.89 1270.6
5543.14 1116.88 1141.88 1172.73 1210.44
5546.02 1137.99 1129.16 1203.72 1195.39
5548.9 1132.61 1125.25 1209.73 1213.1
5551.78 1105.14 1121.66 1225.86 1211.99
5554.66 1127.23 1121.15 1200.39 1217.84
5557.54 1131.08 1120.73 1227.28 1213.25
5560.42 1103.89 1125.75 1212.08 1243.01
5563.3 1142.28 1124.1 1289.67 1272.07
5566.18 1126.13 1158.03 1314.46 1284.95
5569.06 1205.67 1188.03 1250.73 1264.16
5571.94 1232.3 1255.28 1227.28 1249.92
5574.81 1327.88 1049.95 1271.76 1215
5577.69 589.672 1035.4 1145.95 1231.94
5580.57 1188.66 991.877 1278.11 1232.26
5583.45 1197.3 1088.88 1272.72 1286.86
5586.33 880.69 1027.98 1309.76 1341.53
5589.21 1005.96 1041.78 1442.11 1363.72
5592.09 1238.68 1136.99 1339.28 1377.69
5594.96 1166.33 1168.35 1351.69 1358.28
5597.84 1100.03 1159.57 1383.88 1350.29
5600.72 1212.35 1190.73 1315.31 1418.82
5603.6 1259.82 1240.61 1557.26 1454.89
5606.47 1249.66 1252.92 1492.09 1484.43
5609.35 1249.28 1291.19 1403.93 1462.42
5612.23 1374.61 1332.1 1491.24 1453.69
5615.11 1372.42 1391.54 1465.89 1511.24
5617.98 1427.6 1358.88 1576.58 1522.38
5620.86 1276.62 1332.7 1524.68 1552.84
5623.74 1293.89 1339.18 1557.25 1552.17
5626.62 1447.04 1411.93 1574.59 1587.96
5629.49 1494.87 1434.48 1632.03 1571.61
5632.37 1361.53 1441.8 1508.22 1588.09
5635.25 1469 1436.05 1624.01 1598.27
5638.12 1477.63 1407.55 1662.58 1611.37
5641 1276.03 1382.56 1547.52 1579.34
5643.88 1394.02 1396.8 1527.93 1577.41
5646.75 1520.35 1437.94 1656.79 1568.33
5649.63 1399.46 1455.67 1520.27 1599.33
5652.5 1447.19 1381.41 1620.92 1592.65
5655.38 1297.58 1396.53 1636.77 1601.44
5658.26 1444.83 1386.68 1546.64 1617
5661.13 1417.62 1411.03 1667.59 1617.26
5664.01 1370.62 1402.51 1637.56 1643.35
5666.88 1419.29 1342.33 1624.89 1610.85
5669.76 1237.07 1364.33 1570.1 1586.27
5672.63 1436.63 1371.21 1563.83 1561.21
5675.51 1439.92 1446.76 1549.71 1583.48
5678.39 1463.71 1411.62 1636.89 1597.14
5681.26 1331.24 1388.01 1604.82 1621.16
5684.14 1369.08 1408.56 1621.76 1654.02
5687.01 1525.37 1488.41 1735.49 1716.49
5689.88 1570.77 1503.53 1792.22 1704
5692.76 1414.45 1494.58 1584.28 1682
5695.63 1498.52 1492.52 1669.5 1635.14
5698.51 1564.58 1494.52 1651.64 1635.34
5701.38 1420.46 1479.71 1584.88 1618.95
5704.26 1454.08 1462.6 1620.32 1610.12
5707.13 1513.25 1497.68 1625.18 1644.37
5710.01 1525.71 1537.25 1687.62 1670.84
5712.88 1572.77 1531.15 1699.71 1678.7
5715.75 1494.96 1533.99 1648.76 1679.94
5718.63 1534.23 1493.71 1691.35 1653.77
5721.5 1451.95 1488.67 1621.21 1650.49
5724.37 1479.84 1481.68 1638.92 1649.47
5727.25 1513.24 1497.78 1688.28 1667.3
5730.12 1500.24 1522.52 1674.72 1686.01
5732.99 1554.07 1510.71 1695.04 1686.66
5735.87 1477.82 1450.41 1690.23 1655.31
5738.74 1319.33 1413.2 1580.66 1605.93
5741.61 1442.46 1426.14 1546.89 1584.53
5744.49 1516.62 1491.81 1626.03 1596.68
5747.36 1516.36 1508.03 1617.11 1631.77
5750.23 1491.12 1511.91 1652.16 1663.79
5753.1 1528.25 1465.87 1722.09 1672.93
5755.98 1378.24 1398.54 1644.54 1649.27
5758.85 1289.14 1387.02 1581.16 1617.05
5761.72 1493.69 1452.39 1625.45 1648.76
5764.59 1574.34 1539.19 1739.66 1683.67
5767.46 1549.55 1490.52 1685.9 1685.07
5770.34 1347.68 1480.45 1629.66 1665.5
5773.21 1544.12 1467.29 1680.93 1653.28
5776.08 1510.08 1490.54 1649.26 1681.91
5778.95 1417.43 1451.99 1715.55 1690.98
5781.82 1428.46 1414.95 1708.13 1693.4
5784.69 1398.97 1439.63 1656.53 1660.8
5787.57 1491.45 1464.03 1617.73 1634.22
5790.44 1501.66 1430.2 1628.4 1588.34
5793.31 1297.5 1400.76 1518.9 1607.83
5796.18 1403.13 1399.76 1676.18 1613.14
5799.05 1498.67 1446.93 1644.32 1654.62
5801.92 1439 1469.59 1643.35 1630.77
5804.79 1471.11 1465.88 1604.65 1623.28
5807.66 1487.54 1424.96 1621.86 1608.4
5810.53 1316.23 1388.48 1598.71 1572.36
5813.4 1361.67 1360.87 1496.5 1549.86
5816.27 1404.71 1372.15 1554.36 1499.9
5819.14 1350.06 1357.87 1448.84 1532.66
5822.01 1318.83 1362.63 1594.79 1531.99
5824.88 1418.99 1382.59 1552.34 1555.98
5827.75 1409.94 1435.76 1520.81 1554.42
5830.62 1478.34 1418.13 1590.1 1525.94
5833.49 1366.12 1405.72 1466.9 1506.2
5836.36 1372.7 1343.92 1461.59 1473.35
5839.23 1292.94 1354.97 1491.57 1469.26
5842.1 1399.26 1327.02 1454.62 1442.51
5844.97 1288.85 1359.31 1381.33 1446.59
5847.84 1389.83 1319.86 1503.81 1457.75
5850.7 1280.92 1358.88 1488.13 1502.51
5853.57 1405.9 1317.56 1515.58 1448.91
5856.44 1265.87 1280.07 1343.02 1409.7
5859.31 1168.43 1204.21 1370.51 1365.45
5862.18 1178.32 1236.15 1382.81 1401.94
5865.05 1361.68 1287.75 1452.5 1425.14
5867.91 1323.24 1338.32 1440.11 1434.77
5870.78 1330.05 1346.88 1411.71 1464.15
5873.65 1387.36 1388.27 1540.63 1519.86
5876.52 1447.39 1350.25 1607.23 1552.33
5879.39 1216 1398.58 1509.12 1585.67
5882.25 1532.35 1373.5 1640.67 1544.06
5885.12 1372.16 1390.98 1482.4 1493.58
5887.99 1268.43 1318 1357.69 1425.04
5890.86 1313.4 1284.6 1435.05 1381.92
5893.72 1271.96 1281.89 1353.03 1392.26
5896.59 1260.3 1314.07 1388.7 1419.26
5899.46 1409.96 1337.62 1516.06 1459.33
5902.32 1342.61 1303.52 1473.23 1473.36
5905.19 1158 1259.98 1430.79 1445.17
5908.06 1279.32 1256.06 1431.48 1435.23
5910.92 1330.86 1254.52 1443.43 1421.17
5913.79 1153.39 1255.63 1388.61 1463.06
5916.66 1282.64 1264.91 1557.13 1451.46
5919.52 1358.69 1369.89 1408.64 1520.77
5922.39 1468.34 1405.83 1596.55 1512.84
5925.25 1390.45 1314.05 1533.33 1505.73
5928.12 1083.35 1308.82 1387.3 1492.99
5930.99 1452.67 1241.98 1558.34 1487.39
5933.85 1189.92 1298.12 1516.53 1514.54
5936.72 1251.77 1282.52 1468.75 1505.27
5939.58 1405.86 1306.92 1530.52 1495.84
5942.45 1263.13 1380.84 1488.24 1545.38
5945.31 1473.52 1366.18 1617.37 1526.46
5948.18 1361.89 1444.35 1473.78 1566
5951.04 1497.64 1464.76 1606.87 1582.69
5953.91 1534.76 1475.2 1667.42 1605.38
5956.77 1393.18 1448.11 1541.84 1579.14
5959.64 1416.39 1396.89 1528.16 1547.46
5962.5 1381.1 1385.52 1572.39 1533.18
5965.36 1359.08 1418.09 1498.98 1573.84
5968.23 1514.1 1426.34 1650.16 1557.69
5971.09 1405.84 1469.08 1523.93 1595.37
5973.96 1487.31 1410.22 1612.03 1525.7
5976.82 1337.52 1413.5 1441.16 1527.98
5979.68 1415.66 1323.75 1530.75 1485.57
5982.55 1218.07 1348.66 1484.81 1514.31
5985.41 1412.26 1350.21 1527.38 1513.95
5988.27 1420.29 1416.13 1529.66 1538.65
5991.14 1415.83 1434.75 1558.9 1541.22
5994 1468.14 1454.72 1535.1 1547.83
5996.86 1480.2 1474.32 1549.49 1557.76
5999.73 1474.62 1459.02 1588.69 1556.56
6002.59 1422.24 1455.02 1531.5 1571.31
6005.45 1468.21 1453.37 1593.74 1559.7
6008.31 1469.67 1433.27 1553.85 1587.54
6011.18 1361.92 1365.45 1615.04 1570.16
6014.04 1264.77 1372.4 1541.6 1613.2
6016.9 1490.5 1387.24 1682.98 1588.96
6019.76 1406.46 1413.79 1542.31 1604.3
6022.62 1344.42 1357.9 1587.6 1560.79
6025.49 1322.83 1384.48 1552.47 1584.4
6028.35 1486.19 1370.27 1613.13 1574.6
6031.21 1301.77 1442.04 1558.19 1606.55
6034.07 1538.15 1416.16 1648.32 1573.98
6036.93 1408.54 1447.14 1515.42 1558.57
6039.79 1394.73 1396.27 1511.96 1503.28
6042.65 1385.54 1394.46 1482.45 1518.59
6045.52 1403.12 1363.47 1561.36 1497.86
6048.38 1301.75 1352.27 1449.78 1532.13
6051.24 1351.93 1301.3 1585.24 1528.68
6054.1 1250.21 1282.51 1551.04 1532.71
6056.96 1245.38 1303.56 1461.86 1491.92
6059.82 1415.1 1342.21 1462.86 1455.37
6062.68 1366.15 1372.36 1441.38 1472.65
6065.54 1335.84 1354.65 1513.7 1472.05
6068.4 1361.96 1304.52 1461.08 1469.32
6071.26 1215.77 1285.71 1433.19 1450.66
6074.12 1279.4 1258.49 1457.71 1467.73
6076.98 1280.32 1297.57 1512.27 1448.13
6079.84 1333.01 1330.44 1374.4 1443.79
6082.7 1377.99 1347.28 1444.7 1397.41
6085.56 1330.85 1320.17 1373.12 1382.25
6088.41 1251.69 1221.47 1328.94 1335.73
6091.27 1081.87 1212.39 1305.12 1342.5
6094.13 1303.6 1184.75 1393.44 1355.26
6096.99 1168.76 1245.63 1367.23 1363.78
6099.85 1264.52 1210.7 1330.67 1304.92
6102.71 1198.82 1185.88 1216.85 1217.56
6105.57 1094.31 1174.96 1105.18 1195.62
6108.42 1231.74 1099.71 1264.83 1173.94
6111.28 973.091 1081.79 1151.82 1172.46
6114.14 1040.54 977.26 1100.75 1121.64
6117 918.148 1012.08 1112.36 1101.43
6119.86 1077.56 1037.92 1091.19 1119.6
6122.71 1118.05 1066.57 1155.26 1107.14
6125.57 1004.1 1002.86 1074.96 1055.21
6128.43 886.422 971.108 935.408 1007.48
6131.29 1022.8 977.502 1012.06 977.645
6134.14 1023.28 1003.81 985.464 992.662
6137 965.358 998.44 980.459 969.906
6139.86 1006.68 902.79 943.795 946.918
6142.71 736.332 840.473 916.5 896.936
6145.57 778.406 778.933 830.513 867.707
6148.43 822.06 846.638 856.109 889.057
6151.28 939.448 877.918 980.55 908.938
6154.14 872.246 901.684 890.156 921.156
6157 893.358 826.109 892.761 875.567
6159.85 712.724 807.732 843.784 860.443
6162.71 817.114 769.483 844.783 814.145
6165.56 778.611 768.829 753.867 799.785
6168.42 710.763 691.805 800.704 745.975
6171.27 586.041 702.5 683.353 755.485
6174.13 810.694 716.362 782.398 734.879
6176.98 752.35 714.303 738.886 740.156
6179.84 579.864 712.859 699.184 722.355
6182.69 806.365 713.494 728.994 713.443
6185.55 754.254 768.583 712.15 708.04
6188.4 745.129 747.877 682.975 677.254
6191.26 744.247 731.23 636.638 652.553
6194.11 704.314 743.546 638.046 670.26
6196.97 782.077 737.646 736.095 692.773
6199.82 726.545 744.075 704.179 722.027
6202.68 723.601 710.918 725.808 710.88
6205.53 682.607 706.374 702.652 690.844
6208.38 712.916 674.405 644.073 624.305
6211.24 627.692 679.694 526.191 605.645
6214.09 698.475 623.903 646.673 597.562
6216.94 545.542 635.437 619.824 636.281
6219.8 662.293 609.846 642.345 625.126
6222.65 621.703 649.661 613.21 626.813
6225.5 664.986 659.594 624.884 619.716
6228.36 692.092 616.404 621.053 617.87
6231.21 492.134 612.727 607.674 604.824
6234.06 653.956 628.176 585.744 627.039
6236.91 738.437 694.06 687.699 628.272
6239.77 689.787 732.965 611.373 686.157
6242.62 770.671 710.576 759.399 679.953
6245.47 671.27 706.736 669.088 690.485
6248.32 678.268 691.318 642.968 679.396
6251.17 724.417 700.28 726.132 682.978
6254.03 698.157 727.27 679.834 701.216
6256.88 759.236 657.408 697.683 666.792
6259.73 514.831 657.664 622.857 653.447
6262.58 698.926 669.191 639.801 673.737
6265.43 793.818 747.312 758.553 703.334
6268.28 749.194 762.849 711.647 727.517
6271.13 745.536 733.179 712.351 692.95
6273.98 704.808 740.024 654.852 691.115
6276.83 769.728 701.457 706.142 697.38
6279.68 629.834 692.04 731.146 726.312
6282.54 676.557 708.315 741.648 764.333
6285.39 818.554 743.254 820.206 765.434
6288.24 734.652 689.67 734.448 792.496
6291.09 515.803 759.501 822.833 787.556
6293.94 1028.05 799.781 805.385 731.874
6296.78 855.494 930.424 567.402 664.307
6299.63 907.732 912.217 620.135 671.961
6302.48 973.424 831.155 828.347 687.608
6305.33 612.309 851.348 614.343 830.706
6308.18 968.31 872.486 1049.43 933.998
6311.03 1036.84 887.429 1138.22 1057.3
6313.88 657.136 861.508 984.239 1038.34
6316.73 890.547 853.334 992.555 1040.5
6319.58 1012.32 921.865 1144.71 1050.92
6322.43 862.728 954.139 1015.5 1041.1
6325.27 987.369 940.63 963.093 988.477
6328.12 971.793 985.701 986.835 994.125
6330.97 997.942 999.079 1032.45 1024.24
6333.82 1027.5 977.582 1053.44 1045.07
6336.67 907.303 1008.48 1049.32 1078.44
6339.51 1090.64 985.728 1132.56 1099.83
6342.36 959.243 1030.04 1117.62 1095.06
6345.21 1040.24 1015.31 1035 1077.6
6348.06 1046.46 1018.68 1080.18 1077.23
6350.9 969.358 1045.64 1116.52 1131.5
6353.75 1121.12 1122.71 1197.79 1193.15
6356.6 1277.65 1067.77 1265.13 1197.13
6359.44 804.547 968.368 1128.47 1152.09
6362.29 822.912 920.085 1062.67 1089.17
6365.14 1132.8 944.735 1076.35 1081.79
6367.98 878.497 1011.77 1106.35 1083.74
6370.83 1024.02 1061.33 1068.52 1169.03
6373.67 1281.47 1182.78 1332.21 1257.25
6376.52 1242.86 1210.23 1371.04 1347.58
6379.37 1106.37 1187.64 1339.5 1322.78
6382.21 1213.7 1181.78 1257.8 1292.58
6385.06 1225.26 1127.11 1280.45 1212.99
6387.9 942.367 1099.93 1100.73 1209.41
6390.75 1132.16 1066.37 1247.06 1189.15
6393.59 1124.59 1138.66 1219.66 1251.08
6396.44 1159.24 1111.45 1286.52 1249.54
6399.28 1050.52 1142.29 1242.45 1290.5
6402.13 1217.11 1119.95 1342.54 1309.51
6404.97 1092.22 1174.87 1343.55 1344.31
6407.82 1215.27 1167.6 1346.84 1341.77
6410.66 1195.32 1219.44 1334.91 1332.93
6413.5 1247.73 1205.65 1317.05 1328.1
6416.35 1173.9 1180.84 1332.34 1336.32
6419.19 1120.88 1168.5 1359.57 1350.33
6422.04 1210.72 1196.11 1359.07 1356.11
6424.88 1256.71 1253.47 1349.69 1374.54
6427.72 1292.96 1281.32 1414.87 1396.61
6430.57 1294.29 1235.93 1425.26 1372.1
6433.41 1120.54 1252.71 1276.18 1384.9
6436.25 1343.3 1187.43 1453.27 1346.17
6439.09 1098.45 1201.94 1309.07 1345.6
6441.94 1164.08 1178.95 1274.45 1318.01
6444.78 1274.32 1242.1 1370.51 1344.86
6447.62 1287.9 1239.63 1389.62 1361.56
6450.46 1156.66 1244.36 1324.56 1362.56
6453.31 1288.51 1244.56 1373.5 1355.85
6456.15 1288.52 1228.79 1369.5 1350.23
6458.99 1109.34 1215.17 1307.7 1360.15
6461.83 1247.65 1195.44 1403.25 1358.57
6464.67 1229.33 1236.04 1364.76 1352.96
6467.51 1231.14 1177 1290.88 1323.02
6470.36 1070.55 1204.81 1313.43 1301.62
6473.2 1312.75 1154.65 1300.57 1299.49
6476.04 1080.64 1185.56 1284.47 1322.39
6478.88 1163.27 1118.73 1382.14 1321.01
6481.72 1112.29 1192.51 1296.41 1363.94
6484.56 1301.99 1165.84 1413.26 1340.22
6487.4 1083.24 1192.7 1310.98 1345.95
6490.24 1192.86 1207.45 1313.61 1343.12
6493.08 1346.23 1223.29 1404.77 1352.52
6495.92 1130.79 1267.96 1339.19 1388.18
6498.76 1326.86 1205.51 1420.59 1397.51
6501.6 1158.87 1262.73 1432.75 1426.97
6504.44 1302.47 1233.04 1427.57 1402.24
6507.28 1237.78 1240.16 1346.39 1346.09
6510.12 1180.22 1243.66 1264.32 1343.36
6512.96 1312.99 1197.25 1419.38 1331.8
6515.79 1098.53 1223.16 1311.69 1355.77
6518.63 1257.97 1191.51 1336.25 1331.85
6521.47 1218.02 1201.74 1347.62 1342.8
6524.31 1129.25 1193.37 1344.55 1331.42
6527.15 1232.85 1211.65 1302.09 1339.48
6529.99 1272.87 1238.61 1371.81 1327.67
6532.82 1210.12 1228.76 1309.11 1328.45
6535.66 1203.28 1222.74 1304.42 1328.61
6538.5 1254.8 1243.34 1372.29 1354.89
6541.34 1271.93 1184.38 1387.97 1341.04
6544.18 1026.42 1120.69 1262.85 1331.26
6547.01 1063.72 1080.87 1342.95 1307.26
6549.85 1152.48 1140.44 1315.97 1338.38
6552.69 1205.13 1111.88 1356.22 1294.48
6555.52 978.027 1051.03 1211.25 1274.21
6558.36 969.922 1019.87 1255.16 1236.79
6561.2 1111.67 1073.24 1243.96 1233.13
6564.03 1138.13 1130.78 1200.27 1226.01
6566.87 1142.53 1170.25 1233.81 1245.08
6569.71 1230.1 1162.07 1301.18 1234.7
6572.54 1113.59 1190.1 1169.12 1265.89
6575.38 1226.62 1109.46 1327.39 1264.71
6578.21 988.164 1071.85 1297.61 1296.22
6581.05 1000.76 1047.34 1263.67 1276.14
6583.88 1153.11 1098.43 1267.15 1268.69
6586.72 1141.42 1156.57 1275.25 1270.83
6589.55 1175.2 1161.48 1270.11 1254.96
6592.39 1167.83 1187.23 1219.52 1256.69
6595.22 1218.65 1173.23 1280.45 1250.89
6598.06 1133.22 1152.69 1252.71 1256.55
6600.89 1106.19 1127.35 1236.48 1237.38
6603.73 1142.64 1086.75 1222.94 1223.45
6606.56 1011.43 1094.35 1210.93 1216.82
6609.39 1128.97 1104.21 1216.6 1230.46
6612.23 1172.22 1167.44 1263.84 1243.68
6615.06 1201.14 1114.03 1250.59 1223.36
6617.9 968.729 1124.58 1155.66 1220.55
6620.73 1203.86 1106.95 1255.39 1225.9
6623.56 1148.27 1152.8 1266.64 1236.91
6626.39 1106.25 1099.74 1188.69 1217.11
6629.23 1044.69 1090.8 1196.01 1212.34
6632.06 1121.46 1100.01 1252.32 1238.05
6634.89 1133.87 1110.87 1265.81 1248.93
6637.73 1077.28 1089.96 1228.64 1253.37
6640.56 1058.71 1107.82 1265.65 1239.23
6643.39 1187.46 1070.43 1223.38 1198.36
6646.22 965.127 1093.52 1106.05 1174.72
6649.05 1127.97 1059.93 1194.72 1164.24
6651.89 1086.68 1098.8 1191.96 1181.53
6654.72 1081.75 1112.23 1157.91 1214.19
6657.55 1168.25 1121.31 1292.68 1250.03
6660.38 1113.94 1136.82 1299.5 1255.46
6663.21 1128.27 1087.1 1174.19 1194.19
6666.04 1019.09 1093.79 1108.89 1180.12
6668.87 1134 1111.83 1257.27 1212.96
6671.7 1182.39 1116.26 1272.73 1214.55
6674.53 1032.39 1112.29 1113.64 1200.45
6677.36 1122.08 1069.54 1214.97 1166.89
6680.19 1054.15 1084.91 1172.05 1180.6
6683.02 1078.49 1045.01 1154.77 1168.28
6685.85 1002.4 1044.04 1178.03 1153.31
6688.68 1051.23 1047.13 1127.14 1151.99
6691.51 1087.75 1063.49 1150.81 1139.09
6694.34 1051.47 1090.2 1139.32 1169.54
6697.17 1131.36 1062.1 1218.48 1163.08
6700 1003.45 1070.62 1131.45 1189.76
6702.83 1077.05 1038.23 1219.35 1168.74
6705.66 1034.19 1038.6 1155.42 1189.41
6708.49 1004.55 1019.36 1193.45 1156.21
6711.31 1019.34 1014.81 1119.76 1153.61
6714.14 1020.54 1036.59 1147.62 1146.64
6716.97 1069.89 1051.6 1172.53 1161.91
6719.8 1064.36 1065.85 1165.58 1171.11
6722.63 1063.29 1056.41 1175.22 1158.26
6725.45 1041.58 1051.87 1133.98 1158.81
6728.28 1050.75 1043.34 1167.24 1158.99
6731.11 1037.69 1053.55 1175.76 1188.8
6733.94 1072.21 1073.16 1223.41 1209.01
6736.76 1109.57 1081.9 1227.86 1212.26
6739.59 1063.92 1069.58 1185.5 1182.66
6742.42 1035.26 1047.62 1134.61 1159.27
6745.24 1043.67 1049.96 1157.7 1150.88
6748.07 1070.94 1055.86 1160.33 1158.43
6750.9 1052.97 1076.35 1157.25 1172.98
6753.72 1105.13 1076.79 1201.37 1163.29
6756.55 1072.28 1099.89 1131.25 1188.74
6759.37 1122.27 1094.59 1233.59 1179.19
6762.2 1089.23 1096.92 1172.73 1190.07
6765.02 1079.27 1076.41 1163.9 1174.08
6767.85 1060.73 1061.15 1185.61 1156.57
6770.67 1043.44 1034.6 1120.19 1144.88
6773.5 999.638 988.303 1128.84 1127.09
6776.32 921.836 953.288 1132.25 1099.19
6779.15 938.39 955.16 1036.48 1106.92
6781.97 1005.26 984.909 1152.04 1123.35
6784.8 1011.08 1010.52 1181.51 1161.12
6787.62 1015.21 1001.62 1149.81 1133.77
6790.44 978.57 1005.48 1070 1122.1
6793.27 1022.66 999.715 1146.5 1101.26
6796.09 997.918 990.656 1087.29 1108.92
6798.92 951.39 988.199 1092.97 1094.51
6801.74 1015.29 938.432 1103.26 1075.13
6804.56 848.618 958.516 1029.16 1056.63
6807.38 1011.64 916.432 1037.48 1047.18
6810.21 889.039 914.721 1074.92 1048.13
6813.03 843.486 895.788 1031.98 1060.6
6815.85 954.839 952.205 1074.9 1084.72
6818.67 1058.29 988.95 1147.3 1093.43
6821.5 953.72 961.154 1058.1 1111.65
6824.32 871.453 908.24 1129.56 1040.96
6827.14 899.549 917.473 935.206 1041.74
6829.96 981.418 954.098 1060.47 1003.35
6832.78 981.327 992.968 1014.36 1045.98
6835.6 1016.16 979.065 1063.11 1022.11
6838.43 939.71 971.362 988.857 1025.6
6841.25 958.219 920.759 1024.82 1025.17
6844.07 864.346 897.81 1061.84 1027.7
6846.89 870.865 899.077 996.446 1018.38
6849.71 962.018 931.653 996.851 1013.39
6852.53 962.076 960.674 1046.89 1024.59
6855.35 957.927 893.89 1030.04 1014.29
6858.17 761.666 858.805 965.935 975.79
6860.99 856.822 862.185 931.393 980.61
6863.81 968.066 863.944 1044.5 919.151
6866.63 766.945 838.896 781.56 869.863
6869.45 781.678 754.667 783.528 780.665
6872.27 715.38 764.985 776.907 798.872
6875.09 797.898 761.019 836.182 850.143
6877.9 769.779 800.624 937.34 885.764
6880.72 834.194 824.939 883.769 906.75
6883.54 870.843 849.559 899.14 894.942
6886.36 843.641 839.447 901.916 893.453
6889.18 803.859 822.185 879.304 892.352
6892 819.056 788.723 895.836 893.927
6894.81 743.254 814.348 906.64 918.746
6897.63 880.734 844.382 953.762 929.643
6900.45 909.158 834.926 928.526 922.988
6903.27 714.884 840.631 886.675 926.035
6906.08 897.852 767.234 962.903 896.043
6908.9 688.966 768.735 838.552 925.554
6911.72 719.387 767.306 975.208 928.989
6914.53 893.564 824.316 973.209 961.908
6917.35 859.996 847.452 937.307 938.68
6920.17 788.796 831.504 905.524 904.067
6922.98 845.719 775.53 869.37 874.846
6925.8 692.076 784.824 849.644 879.158
6928.61 816.676 757.349 918.461 890.653
6931.43 763.296 816.345 903.855 923.172
6934.25 869.063 831.709 947.199 929.467
6937.06 862.767 846.295 937.348 939.79
6939.88 807.055 819.588 934.823 906.84
6942.69 788.94 802.613 848.348 877.018
6945.51 811.843 764.159 847.883 886.464
6948.32 691.695 783.474 963.16 878.947
6951.13 846.886 756.41 825.796 906.338
6953.95 730.649 819.248 930.057 903.801
6956.76 880.21 869.835 955.55 968.284
6959.58 998.647 911.177 1019.25 967.937
6962.39 854.673 889.74 929.016 951.81
6965.2 815.9 846.142 907.168 921.808
6968.02 867.852 806.807 929.241 902.532
6970.83 736.67 804.311 871.186 897.636
6973.64 808.41 782.053 892.481 864.519
6976.46 801.078 768.324 829.889 862.841
6979.27 695.484 763.057 866.153 876.358
6982.08 792.608 784.806 933.033 898.309
6984.89 866.326 808.524 895.742 889.758
6987.71 766.64 810.025 840.499 865.829
6990.52 797.109 785.187 861.246 862.014
6993.33 791.812 834.496 884.298 896.002
6996.14 914.565 813.938 942.463 863.792
6998.95 735.435 791.486 764.616 837.121
7001.76 724.457 742.242 804.283 822.706
7004.58 766.833 790.886 899.219 883.427
7007.39 881.369 824.56 946.778 893.59
7010.2 825.479 839.111 834.772 884.332
7013.01 810.484 824.078 871.447 856.834
7015.82 836.27 782.321 864.284 845.147
7018.63 700.207 783.643 799.71 825.805
7021.44 814.451 766.694 813.42 808.415
7024.25 785.422 816.855 812.114 826.935
7027.06 850.69 793.664 855.272 839.108
7029.87 744.88 797.952 849.938 879.393
7032.68 798.284 806.775 932.968 894.067
7035.49 877.16 818.834 899.296 877.656
7038.3 781.057 832.28 800.702 844.689
7041.1 838.622 817.796 834.068 835.55
7043.91 833.708 805.371 871.881 828.127
7046.72 743.783 791.826 778.432 830.802
7049.53 797.987 814.647 842.094 851.862
7052.34 902.17 804.172 935.06 875.154
7055.15 712.358 791.394 848.309 851.843
7057.95 759.654 782.963 772.161 839.313
7060.76 876.876 823.49 897.469 861.203
7063.57 833.939 839.09 913.979 890.269
7066.38 806.454 828.858 859.359 884.152
7069.18 846.181 767.871 879.119 849.216
7071.99 650.979 752.453 809.17 836.074
7074.8 760.2 750.126 819.933 819.209
7077.6 839.2 809.361 828.525 830.177
7080.41 828.682 833.468 842.072 843.925
7083.22 832.523 807.365 861.177 830.635
7086.02 760.888 789.931 788.656 817.749
7088.83 776.382 752.817 803.414 817.447
7091.63 721.182 775.827 860.272 826.008
7094.44 829.915 793.719 814.337 836.353
7097.24 830.058 841.07 834.45 836.236
7100.05 863.237 815.466 859.922 818.646
7102.85 753.103 789.769 761.567 798.137
7105.66 752.966 749.039 772.921 779.964
7108.46 741.046 760.847 805.403 797.806
7111.27 788.53 769.363 815.093 821.001
7114.07 778.513 786.226 842.508 828.807
7116.88 791.634 783.231 828.82 820.673
7119.68 779.545 776.252 790.692 788.216
7122.48 757.577 757.573 745.137 774.771
7125.29 735.597 720.61 788.485 748.493
7128.09 668.656 704.708 711.858 780.878
7130.89 709.87 724.986 842.29 807.363
7133.7 796.432 775.731 867.942 835.639
7136.5 820.891 810.219 796.685 835.276
7139.3 813.335 773.326 841.201 810.715
7142.1 685.752 766.166 794.26 824.835
7144.91 799.412 739.498 839.044 796.227
7147.71 733.329 729.127 755.377 779.044
7150.51 654.639 725.163 742.711 756.02
7153.31 787.521 732.96 769.973 768.58
7156.11 756.72 759.204 793.056 764.52
7158.91 733.371 750.306 730.532 773.754
7161.72 760.828 768.199 797.675 769.814
7164.52 810.399 756.044 781.234 780.64
7167.32 696.904 762.511 763.011 787.02
7170.12 780.229 731.822 816.813 792.267
7172.92 718.332 705.514 796.975 764.482
7175.72 617.98 651.877 679.657 730.52
7178.52 619.318 661.881 714.929 714.981
7181.32 748.345 687.754 750.358 732.054
7184.12 695.598 684.469 730.876 732.039
7186.92 609.464 668.346 714.885 718.433
7189.72 699.975 668.29 709.539 703.099
7192.52 695.43 690.471 684.873 717.537
7195.31 676.007 682.867 758.198 709.496
7198.11 677.165 677.938 685.416 722.637
7200.91 680.643 682.518 724.296 700.319
7203.71 689.746 704.598 691.245 734.71
7206.51 743.405 725.417 788.589 742.833
7209.31 743.101 723.813 748.666 738.482
7212.1 684.933 713.818 678.19 722.823
7214.9 713.42 695.648 741.613 721.105
7217.7 688.59 702.738 743.512 725.666
7220.5 706.205 705.765 691.873 728.042
7223.29 722.5 727.282 748.741 727.551
7226.09 753.142 718.278 742.037 735.505
7228.89 679.192 710.136 715.737 724.361
7231.68 698.074 628.398 715.309 704.139
7234.48 507.927 612.454 681.37 677.259
7237.27 631.361 617.971 635.098 666.366
7240.07 714.626 712.038 682.63 701.079
7242.87 790.128 635.818 785.509 731.152
7245.66 402.699 620.412 725.316 719.241
7248.46 668.41 491.333 646.897 696.31
7251.25 402.891 589.758 716.716 701.779
7254.05 697.972 567.079 741.723 688.086
7256.84 600.373 635.115 605.817 659.953
7259.64 607.001 619.451 632.32 622.971
7262.43 650.979 633.078 630.777 649.54
7265.22 641.255 654.748 685.523 654.901
7268.02 672.009 677.633 648.401 683.308
7270.81 719.635 693.784 716 665.839
7273.61 689.707 737.798 633.117 692.302
7276.4 804.051 714.268 727.789 668.846
7279.19 649.048 719.528 645.632 706.302
7281.99 705.485 657.675 745.484 666.096
7284.78 618.493 668.708 607.172 668.692
7287.57 682.146 665.046 653.421 657.13
7290.36 694.498 655.06 710.796 668.842
7293.16 588.537 654.552 642.31 678.105
7295.95 680.622 630.676 681.21 629.262
7298.74 622.868 638.145 564.267 618.219
7301.53 610.944 614.073 609.179 585.958
7304.32 608.406 625.158 584.428 620.978
7307.11 656.125 655.713 669.325 629.09
7309.91 702.608 667.349 633.516 632.899
7312.7 643.314 687.934 595.857 629.619
7315.49 717.88 688.953 659.485 650.152
7318.28 705.665 675.357 695.115 655.149
7321.07 602.525 643.457 610.846 652.284
7323.86 622.181 616.212 650.892 615.611
7326.65 623.929 641.414 585.096 632.76
7329.44 678.132 636.713 662.29 614.016
7332.23 608.079 644.806 594.663 640.197
7335.02 648.209 611.046 663.638 580.068
7337.81 576.851 650.091 481.904 598.972
7340.6 725.214 625.212 651.373 603.984
7343.38 573.571 641.988 678.675 667.558
7346.17 627.18 591.858 672.627 677.375
7348.96 574.823 592.028 680.823 660.876
7351.75 574.082 591.472 629.178 659.345
7354.54 625.512 583.365 668.035 637.55
7357.33 550.5 579.307 615.437 640.426
7360.11 561.907 598.892 637.807 634.295
7362.9 684.269 560.941 649.642 641.24
7365.69 436.648 596.397 636.271 648.373
7368.47 668.274 552.308 659.205 629.591
7371.26 552.004 584.354 593.295 626.643
7374.05 532.785 543.186 627.428 618.087
7376.83 544.769 560.271 633.539 640.469
7379.62 603.26 571.928 660.44 630.231
7382.41 567.755 549.736 596.715 599.576
7385.19 478.193 543.504 541.574 583.125
7387.98 584.565 497.096 611.086 558.638
7390.76 428.529 501.695 523.256 572.384
7393.55 491.989 530.855 582.81 575.237
7396.33 672.048 579.217 619.645 613.443
7399.12 573.615 547.955 637.876 637.224
7401.9 398.202 492.057 654.152 615.974
7404.69 504.354 502.156 555.896 605.455
7407.47 603.913 556.337 606.318 589.006
7410.26 560.745 569.532 604.805 575.506
7413.04 543.939 548.658 515.394 542.559
7415.82 541.29 546.541 507.478 538.184
7418.61 554.393 537.614 591.681 536.407
7421.39 517.158 535.59 510.062 559.222
7424.17 535.219 548.476 575.924 553.958
7426.96 593.052 579.243 575.889 588.345
7429.74 609.46 576.089 613.222 579.406
7432.52 525.757 579.29 549.108 585.942
7435.3 602.654 582.853 595.496 584.708
7438.09 620.15 594.707 609.52 599.659
7440.87 561.318 574.804 593.961 603.109
7443.65 542.943 559.422 605.847 599.317
7446.43 574.006 543.258 598.144 558.424
7449.21 512.825 515.526 471.28 537.897
7451.99 459.746 494.212 544.268 523.608
7454.77 510.066 497.304 555.276 551.298
7457.55 522.1 530.977 554.348 564.444
7460.33 560.765 534.029 583.708 551.911
7463.12 519.222 507.428 517.679 548.071
7465.9 442.298 491.329 542.827 519.595
7468.67 512.468 498.077 498.281 548.582
7471.45 539.466 528.956 604.638 564.363
7474.23 534.934 541.082 590.169 591.504
7477.01 548.846 522.189 579.703 556.686
7479.79 482.786 521.738 500.187 568.979
7482.57 533.584 484.179 627.046 568.937
7485.35 436.169 510.346 579.578 585.148
7488.13 561.286 497.664 548.818 558.488
7490.91 495.538 513.387 547.067 540.566
7493.68 483.338 474.768 525.812 507.737
7496.46 445.429 445.216 450.331 490.137
7499.24 406.88 441.799 494.269 510.592
7502.02 473.087 463.176 587.177 534.746
7504.79 509.561 497.794 522.791 548.724
7507.57 510.735 504.097 536.203 510.37
7510.35 491.995 479.28 472.115 503.386
7513.12 435.109 476.308 501.841 473.962
7515.9 501.821 492.486 447.928 504.45
7518.68 540.529 534.249 563.581 508.123
7521.45 560.396 531.867 512.859 541.234
7524.23 494.675 523.497 547.261 521.645
7527 515.42 461.251 504.814 533.537
7529.78 373.658 439.525 548.534 515.381
7532.56 429.496 420.558 492.795 497.691
7535.33 458.521 467.254 451.742 475.807
7538.1 513.744 463.373 482.884 449.424
7540.88 417.854 435.3 413.645 449.861
7543.65 374.302 426.126 453.056 458.43
7546.43 486.222 445.204 508.591 466.009
7549.2 475.086 477.345 436.38 483.142
7551.98 470.726 462.66 504.456 467.431
7554.75 442.167 445.923 461.457 454.775
7557.52 424.875 421.486 398.411 444.923
7560.29 397.416 423.107 474.902 420.708
7563.07 447.029 455.202 388.812 447.941
7565.84 521.161 480.38 480.11 419.554
7568.61 472.949 478.318 389.739 430.814
7571.39 440.843 408.531 422.593 422.459
7574.16 311.8 347.06 455.046 446.961
7576.93 288.537 324.825 463.244 437.6
7579.7 374.139 378.754 394.51 437.193
7582.47 473.587 419.548 453.826 421.846
7585.24 410.918 379.055 417.203 422.122
7588.01 252.659 341.281 395.336 384.707
7590.78 360.265 306.406 341.582 359.448
7593.56 306.294 304.383 341.425 322.137
7596.33 246.59 250.47 283.405 274.313
7599.1 198.526 193.38 198.109 207.688
7601.87 135.024 151.52 141.551 161.164
7604.64 121.009 122.721 143.83 130.173
7607.4 112.13 136.418 105.139 136.799
7610.17 176.113 179.521 161.427 168.243
7612.94 250.32 236.224 238.164 221.113
7615.71 282.24 264.428 263.749 250.805
7618.48 260.723 241.674 250.504 261.89
7621.25 182.057 216.864 271.417 264.71
7624.02 207.812 188.251 272.21 259.122
7626.79 174.885 195.101 233.74 239.341
7629.55 202.606 190.84 212.074 214.58
7632.32 195.029 207.401 197.925 204.61
7635.09 224.568 208.595 203.829 217.586
7637.86 206.187 234.559 251.005 245.328
7640.62 272.921 248.082 281.15 255.741
7643.39 265.138 276.532 235.067 269.488
7646.16 291.536 285.396 292.248 264.442
7648.92 299.513 289.555 266.011 272.983
7651.69 277.616 298.121 260.69 281.676
7654.45 317.233 324.169 318.325 311.82
7657.22 377.659 338.414 356.445 338.758
7659.98 320.351 328.708 341.504 352.791
7662.75 288.115 349.544 360.424 368.699
7665.52 440.167 368.283 404.17 377.173
7668.28 376.567 407.597 366.926 380.411
7671.04 406.056 390.695 370.137 377.464
7673.81 389.461 393.742 395.33 394.955
7676.57 385.708 358.416 419.399 386.426
7679.34 300.078 375.868 344.551 380.23
7682.1 441.819 400.064 376.74 377.923
7684.86 458.295 430.259 412.478 374.917
7687.63 390.662 409.413 335.534 379.176
7690.39 379.281 393.49 389.515 368.915
7693.15 410.526 400.932 381.697 387.815
7695.92 412.988 408.604 392.233 389.215
7698.68 402.298 428.866 393.716 394.361
7701.44 471.311 461.59 397.135 390.041
7704.2 511.161 531.797 379.273 376.62
7706.96 612.921 496.816 353.451 357.174
7709.73 366.365 342.838 338.797 351.093
7712.49 49.228 303.045 361.031 387.027
7715.25 493.541 340.437 461.254 446.544
7718.01 478.543 447.764 517.348 484.351
7720.77 371.208 403.53 474.452 472.075
7723.53 360.838 399.095 424.426 434.946
7726.29 465.24 431.601 405.96 435.888
7729.05 468.725 438.733 477.277 421.537
7731.81 382.234 422.921 381.375 405.294
7734.57 417.804 406.143 357.229 363.665
7737.33 418.389 425.312 352.393 358.989
7740.09 439.743 436.682 367.345 352.98
7742.85 451.914 440.307 339.201 364.513
7745.61 429.264 437.89 386.993 366.628
7748.36 432.49 434.543 373.689 371.155
7751.12 441.876 446.043 352.782 405.068
7753.88 463.762 353.963 488.734 420.946
7756.64 156.251 340.843 421.323 464.499
7759.4 402.516 319.574 483.439 447.382
7762.15 399.955 414.158 437.385 468.171
7764.91 440.004 428.823 483.689 463.566
7767.67 446.509 395.364 469.624 454.364
7770.42 299.58 408.521 409.779 420.962
7773.18 479.474 406.426 383.481 389.042
7775.94 440.225 476.578 373.865 404.688
7778.69 510.035 462.601 456.717 406.837
7781.45 437.541 386.11 389.93 401.006
7784.2 210.753 363.126 356.37 367.119
7786.96 441.083 355.25 355.058 350.531
7789.72 413.915 422.543 340.164 352.145
7792.47 412.632 424.281 361.213 369.441
7795.22 446.297 390.19 406.948 424.633
7797.98 311.64 384.545 505.737 424.108
7800.73 395.698 347.909 359.639 435.885
7803.49 336.39 396.099 442.279 401.43
7806.24 456.209 430.284 402.371 417.781
7809 498.254 429.711 408.693 408.894
7811.75 334.671 427.224 415.618 392.318
7814.5 448.748 405.425 352.644 373.174
7817.25 432.854 416.385 351.259 324.467
7820.01 367.552 405.991 269.498 336.295
7822.76 417.567 410.292 388.129 405.661
7825.51 445.756 422.442 559.356 458.672
7828.26 404.004 412.751 428.53 468.69
7831.02 388.491 401.894 418.184 414.114
7833.77 413.187 377.668 395.63 382.871
7836.52 331.325 410.497 334.801 385.3
7839.27 486.979 431.156 425.468 387.679
7842.02 475.164 389.714 402.769 390.236
7844.77 206.998 296.768 342.47 336.799
7847.52 208.141 316.458 265.157 325.537
7850.27 534.235 411.391 368.983 352.499
7853.02 491.798 484.223 423.358 384.143
7855.77 426.635 338.805 360.088 396.2
7858.52 97.9834 253.892 405.154 410.069
7861.27 237.058 165.298 464.963 419.625
7864.02 160.855 281.578 388.757 431.39
7866.77 446.822 295.96 440.45 419.481
7869.52 280.205 396.726 429.237 411.272
7872.27 463.151 320.918 364.13 412.981
7875.01 219.399 377.404 445.574 407.836
7877.76 449.662 356.309 413.802 422.191
7880.51 399.867 424.061 407.196 393.293
7883.26 422.654 423.766 358.882 399.15
7886 448.776 380.941 431.374 399.635
7888.75 271.392 352.569 408.65 392.455
7891.5 337.539 324.123 337.34 359.982
7894.24 363.438 349.044 333.957 342.783
7896.99 346.156 375.425 357.051 372.583
7899.74 416.681 417.188 426.742 408.306
7902.48 488.727 418.728 441.127 386.851
7905.23 350.776 440.598 292.684 361.008
7907.97 482.293 418.866 349.214 306.612
7910.72 423.529 337.174 277.937 311.75
7913.46 105.7 174.073 308.099 306.026
7916.21 -7.00879 153.29 332.043 349.637
7918.95 361.178 197.347 408.768 402.18
7921.7 237.871 336.949 465.727 439.284
7924.44 411.797 338.758 443.357 421.445
7927.18 366.607 404.044 355.249 410.069
7929.93 433.728 394.637 431.6 401.583
7932.67 383.577 408.523 417.902 398.228
7935.41 408.263 399.771 345.183 386.661
7938.16 407.473 377.089 396.899 347.175
7940.9 315.531 382.667 299.444 359.467
7943.64 424.998 372.703 382.058 325.577
7946.38 377.578 428.085 295.228 348.162
7949.13 481.677 425.98 367.201 351.784
7951.87 418.685 416.659 392.924 374.23
7954.61 349.615 390.932 362.564 366.139
7957.35 404.497 413.999 342.928 370.18
7960.09 487.885 418.627 405.046 342.313
7962.83 363.5 431.401 278.966 350.114
7965.57 442.82 338.332 366.329 353.502
7968.31 208.677 347.886 415.211 392.657
7971.05 392.162 324.214 396.432 378.316
7973.79 371.804 374.719 323.304 334.924
7976.53 360.19 389.476 285.037 319.492
7979.27 436.433 389.831 350.136 322.418
7982.01 372.869 378.013 332.081 313.913
7984.75 324.738 367.127 259.523 286.671
7987.49 403.775 400.68 268.41 264.64
7990.23 473.526 430.135 265.987 267.628
7992.97 413.105 407.459 268.486 318.582
7995.7 335.747 397.484 421.274 374.594
7998.44 443.6 387.429 434.021 416.519
8001.18 382.94 370.01 394.261 399.691
8003.92 283.489 321.901 370.79 358.514
8006.65 299.275 265.937 310.491 308.731
8009.39 215.048 307.503 244.912 275.304
8012.13 408.187 317.712 270.509 276.36
8014.86 329.902 378.971 313.659 310.622
8017.6 398.825 327.29 347.698 321.534
8020.33 253.142 336.425 303.243 300.258
8023.07 357.307 310.502 249.831 282.856
8025.8 321.058 287.803 295.493 293.866
8028.54 185.044 284.451 336.273 333.968
8031.27 347.251 280.739 370.138 330.944
8034.01 309.921 342.598 286.421 322.433
8036.74 370.621 335.609 310.741 299.006
8039.48 326.285 360.902 299.856 311.808
8042.21 385.802 342.817 324.826 296.98
8044.95 316.364 350.599 266.257 290.461
8047.68 349.632 304.64 280.3 273.714
8050.41 247.922 307.951 274.586 282.422
8053.14 326.299 311.104 292.379 302.155
8055.88 359.091 331.047 339.499 306.673
8058.61 307.75 331.243 288.14 313.719
8061.34 326.888 295.941 313.518 284.422
8064.07 253.185 312.381 251.607 290.711
8066.81 357.069 305.122 307.007 290.117
8069.54 305.113 317.188 311.736 297.95
8072.27 289.383 315.534 275.107 295.714
8075 352.107 321.45 300.298 280.936
8077.73 322.86 344.735 267.405 286.452
8080.46 359.237 330.377 291.653 264.822
8083.19 309.034 311.507 235.408 263.007
8085.92 266.251 282.616 261.96 257.482
8088.65 272.562 295.975 275.079 278.373
8091.38 349.11 289.612 298.081 267.097
8094.11 247.164 307.251 228.13 252.274
8096.84 325.479 298.376 230.61 227.185
8099.57 322.486 336.024 222.814 234.65
8102.3 360.107 341.018 250.527 253.064
8105.02 340.462 317.532 285.852 256.903
8107.75 252.027 282.237 234.33 248.37
8110.48 254.222 272.37 224.928 237.181
8113.21 310.861 284.435 252.286 241.801
8115.93 288.222 312.268 248.19 264.453
8118.66 337.72 307.664 292.884 255.659
8121.39 297.051 309.574 225.903 245.68
8124.12 293.95 301.615 218.252 232.912
8126.84 313.845 289.798 254.582 236.887
8129.57 261.601 291.818 237.828 235.302
8132.29 300.007 289.67 213.495 233.257
8135.02 307.403 300.339 248.447 227.44
8137.74 293.606 291.801 220.379 235.425
8140.47 274.395 264.12 237.448 207.937
8143.19 224.36 269.3 165.982 228.681
8145.92 309.145 267.678 282.612 223.485
8148.64 269.528 293.528 221.862 230.297
8151.37 301.912 266.896 186.416 214.46
8154.09 229.248 273.715 235.1 221.557
8156.82 289.983 261.248 243.154 229.907
8159.54 264.513 278.428 211.467 212.945
8162.26 280.787 275.082 184.213 201.291
8164.98 279.945 282.462 208.192 206.086
8167.71 286.655 300.42 225.854 226.794
8170.43 334.661 294.139 246.335 238.367
8173.15 261.1 287.063 242.913 243.197
8175.87 265.428 252.453 240.345 224.76
8178.6 230.832 244.89 191.023 211.928
8181.32 238.411 233.99 204.417 197.871
8184.04 232.729 253.458 198.173 196.228
8186.76 289.233 254.288 186.095 196.117
8189.48 240.903 266.02 204.084 203.244
8192.2 267.924 266.016 219.553 231.406
8194.92 289.22 262.896 270.58 222.278
8197.64 231.545 261.464 176.7 226.215
8200.36 263.627 241.055 231.366 215.136
8203.08 227.994 248.696 237.342 236.147
8205.8 254.467 240.323 239.732 231.263
8208.52 238.507 249.932 216.716 223.923
8211.24 256.823 251.092 215.322 217.383
8213.95 257.946 253.881 220.111 209.14
8216.67 246.873 273.361 191.988 208.889
8219.39 315.263 289.998 214.567 208.02
8222.11 307.858 291.641 217.504 219.989
8224.83 251.802 267.96 227.896 219.46
8227.54 244.221 238.369 212.98 212.606
8230.26 219.085 229.597 196.942 199.801
8232.98 225.485 239.43 189.48 193.819
8235.69 273.72 256.621 195.033 206.162
8238.41 270.657 272.845 233.972 211.105
8241.12 274.159 267.227 204.31 210.386
8243.84 256.864 269.225 192.876 206.328
8246.56 276.652 275.614 221.797 207.249
8249.27 293.327 298.876 207.074 223.036
8251.99 326.651 291.569 240.236 223.72
8254.7 254.729 265.926 223.849 220.58
8257.41 216.397 244.836 197.654 212.596
8260.13 263.38 243.95 216.285 214.527
8262.84 252.072 258.91 229.641 214.963
8265.56 261.279 254.545 198.962 206.428
8268.27 250.284 251.576 190.681 190.487
8270.98 243.166 240.251 181.817 188.13
8273.7 227.303 237.509 191.892 177.744
8276.41 242.057 224.486 159.524 171.375
8279.12 204.097 239.739 162.708 190.613
8281.83 273.063 235.818 249.607 201.435
8284.54 230.294 234.578 191.989 193.147
8287.26 200.378 211.718 137.844 155.917
8289.97 204.482 232.667 137.918 157.48
8292.68 293.141 252.46 196.678 180.038
8295.39 259.757 296.027 205.517 231.605
8298.1 335.184 261.345 292.619 216.461
8300.81 189.095 258.173 151.248 222.31
8303.52 250.239 226.889 223.063 205.357
8306.23 241.332 244.571 241.759 195.89
8308.94 242.141 228.294 122.848 175.816
8311.65 201.409 227.866 162.84 160.606
8314.36 240.047 217.492 196.129 186.579
8317.07 211.019 214.196 200.768 193.548
8319.77 191.521 232.303 183.748 194.226
8322.48 294.37 242.576 198.162 190.031
8325.19 241.836 248.421 188.183 191.895
8327.9 209.057 229.876 189.339 194.368
8330.61 238.735 223.016 205.583 172.86
8333.31 221.256 227.477 123.659 161.885
8336.02 222.44 265.797 156.414 158.55
8338.73 353.694 310.046 195.576 170.911
8341.43 354.004 351.111 160.743 168.2
8344.14 345.634 294.014 148.281 155.595
8346.84 182.402 227.53 157.761 181.806
8349.55 154.555 182.951 239.376 206.273
8352.26 211.895 188.875 221.683 211.022
8354.96 200.176 179.318 172.008 196.899
8357.67 125.885 150.409 197.008 180.072
8360.37 125.166 146.632 171.201 173.766
8363.07 188.847 163.763 153.089 160.778
8365.78 177.276 194.983 158.045 178.134
8368.48 218.826 215.422 223.266 201.098
8371.19 250.164 227.15 221.982 211.914
8373.89 212.461 263.545 190.493 221.039
8376.59 328.009 279.342 250.641 186.514
8379.29 297.556 281.947 118.407 182.033
8382 220.276 228.194 177.051 142.731
8384.7 166.748 181.252 132.736 142.028
8387.4 156.731 179.275 116.297 144.479
8390.1 214.345 218.794 184.405 171.375
8392.8 285.305 247.213 213.422 179.895
8395.51 241.99 245.815 141.858 186.67
8398.21 210.151 263.264 204.73 180.954
8400.91 337.651 272.317 196.273 200.009
8403.61 269.151 262.535 199.026 181.709
8406.31 180.804 211.992 149.83 167.269
8409.01 186.02 202.833 152.951 136.472
8411.71 241.674 195.995 106.633 130.595
8414.41 160.291 200.44 132.199 119.49
8417.11 199.355 171.964 119.637 113.056
8419.8 156.246 196.971 87.3329 126.632
8422.5 235.311 209.481 172.927 121.318
8425.2 236.884 262.872 103.695 137.979
8427.9 316.42 304.409 137.317 131.093
8430.6 359.923 272.38 152.268 118.15
8433.29 140.797 215.26 64.8641 130.054
8435.99 145.06 164.95 173.03 147.256
8438.69 208.992 197.787 203.874 176.651
8441.38 239.309 225.257 153.049 172.711
8444.08 227.469 231.484 161.209 160.135
8446.78 227.675 225.841 166.147 153.172
8449.47 222.379 226.045 132.16 152.094
8452.17 228.08 220.591 157.977 156.634
8454.86 211.313 193.063 179.765 171.788
8457.56 139.794 210.927 177.623 185.688
8460.25 281.675 237.244 199.676 166.415
8462.95 290.264 246.31 121.946 152.439
8465.64 166.991 234.146 135.694 137.623
8468.34 245.182 151.187 155.23 139.17
8471.03 41.3891 154.642 126.586 120.684
8473.72 177.356 140.689 80.2365 113.357
8476.42 203.323 205.924 133.249 111.179
8479.11 237.094 224.231 120.053 141.225
8481.8 232.277 234.281 170.373 135.821
8484.49 233.471 251.395 117.039 161.355
8487.19 288.438 263.016 196.653 149.575
8489.88 267.14 240.664 135.032 141.865
8492.57 166.416 258.618 93.9101 139.277
8495.26 342.298 262.446 188.887 142.396
8497.95 278.625 286.612 144.392 158.691
8500.64 238.912 274.078 142.795 140.271
8503.33 304.697 288.639 133.625 129.804
8506.02 322.31 290.533 112.992 128.766
8508.71 244.592 271.935 139.682 143.42
8511.4 248.902 239.795 177.588 135.667
8514.09 225.89 240.681 89.7316 138.045
8516.78 247.252 245.985 146.814 128.553
8519.47 264.814 248.445 149.112 144.138
8522.16 233.27 246.88 136.488 138.774
8524.85 242.557 243.97 130.723 144.06
8527.53 256.082 252.218 164.969 150.41
8530.22 258.016 262.525 155.538 141.356
8532.91 273.477 255.658 103.56 147.121
8535.6 235.48 261.903 182.265 142.109
8538.28 276.753 252.263 140.503 156.018
8540.97 244.555 245.256 145.286 142.84
8543.66 214.461 232.488 142.73 151.987
8546.34 238.447 238.452 167.943 157.527
8549.03 262.447 253.758 161.907 154.777
8551.71 260.38 268.221 134.482 151.262
8554.4 281.835 248.673 157.398 130.116
8557.08 203.805 244.556 98.4671 128.314
8559.77 248.028 238.376 129.077 128.372
8562.45 263.294 254.956 157.572 149.619
8565.14 253.545 265.781 162.208 154.918
8567.82 280.504 268.883 144.972 152.691
8570.51 272.599 268.346 150.892 165.058
8573.19 251.935 268.995 199.308 172.594
8575.87 282.449 280.056 167.582 177.402
8578.55 305.782 287.413 165.315 156.348
8581.24 274.006 278.652 136.148 151.244
8583.92 256.168 255.105 152.27 135.276
8586.6 235.14 249.402 117.41 158.746
8589.28 256.898 251.608 206.559 163.091
8591.96 262.788 268.274 165.303 180.376
8594.65 285.138 265.027 169.266 166.043
8597.33 247.157 272.232 163.561 168.628
8600.01 284.402 263.858 173.058 160.467
8602.69 260.015 284.475 144.781 154.446
8605.37 309.008 280.156 145.499 150.061
8608.05 271.444 269.805 159.901 147.996
8610.73 228.963 258.172 138.587 153.873
8613.41 274.108 262.277 163.129 163.722
8616.08 283.761 282.762 189.451 168.325
8618.76 290.419 285.754 152.396 169.64
8621.44 283.081 283.485 167.074 170.725
8624.12 276.954 271.442 192.705 174.045
8626.8 254.289 264.091 162.357 167.455
8629.47 261.03 252.795 147.304 139.118
8632.15 243.066 251.987 107.692 143.13
8634.83 251.864 234.502 174.393 117.307
8637.5 208.577 257.959 69.8367 133.176
8640.18 313.437 259.64 155.299 121.545
8642.86 256.905 283.858 139.498 132.2
8645.53 281.231 281.445 101.801 132.534
8648.21 306.2 324.351 156.303 136.561
8650.88 385.624 360.486 151.58 170.798
8653.56 389.636 345.299 204.51 159.273
8656.23 260.638 336.046 121.73 158.7
8658.91 357.864 300.718 149.859 119.318
8661.58 283.653 314.12 86.3641 147.221
8664.26 300.842 310.711 205.439 149.733
8666.93 347.637 327.436 157.396 176.017
8669.6 333.831 329.967 165.215 152.196
8672.28 308.434 299.934 133.976 136.202
8674.95 257.539 279.294 109.416 116.484
8677.62 271.908 260.346 106.059 115.406
8680.29 251.591 272.351 130.742 139.715
8682.96 293.553 278.155 182.344 157.838
8685.64 289.319 289.929 160.428 167.65
8688.31 286.914 279.449 160.177 153.514
8690.98 262.114 280.921 139.937 152.174
8693.65 293.734 294.896 156.41 151.425
8696.32 328.84 314.568 157.927 170.211
8698.99 321.131 317.597 196.297 175.575
8701.66 302.82 307.876 172.5 158.818
8704.33 299.677 289.484 107.656 124.655
8707 265.954 279.298 93.8084 123.011
8709.67 272.263 273.463 167.569 129.916
8712.34 282.17 276.068 128.372 139.424
8715 273.772 275.166 122.331 118.469
8717.67 269.555 267.414 104.703 111.912
8720.34 258.915 267.149 108.703 117.408
8723.01 272.978 282.844 138.819 139.687
8725.67 316.639 296.455 171.54 150.856
8728.34 299.748 297.296 142.21 152.491
8731.01 275.502 285.688 143.724 137.113
8733.67 281.815 282.815 125.406 136.661
8736.34 291.128 292.689 140.853 147.182
8739.01 305.125 290.708 175.287 149.098
8741.67 275.87 275.051 131.152 131.775
8744.34 244.158 256.177 88.8847 100.911
8747 248.504 255.644 82.6956 90.656
8749.67 274.271 270.451 100.388 106.886
8752.33 288.578 263.106 137.575 118.99
8755 226.468 267.2 119.007 152.884
8757.66 286.554 243.976 202.069 122.171
8760.32 218.905 297.006 45.4365 94.8795
8762.99 385.558 281.725 37.1328 -5.78906
8765.65 240.712 286.412 -99.9364 -36.0185
8768.31 232.964 191.967 -45.2518 -96.0574
8770.97 102.224 205.715 -142.984 -38.8663
8773.64 281.957 240.634 71.6368 4.33756
8776.3 337.72 304.6 84.3597 29.2549
8778.96 294.123 322.863 -68.2318 -3.3549
8781.62 336.744 305.788 -26.1927 -58.1544
8784.28 286.498 304.898 -80.0389 -2.77798
8786.94 291.453 283.701 97.8976 19.6828
8789.6 273.153 273.364 41.1897 45.9918
8792.26 255.487 267.544 -1.11184 38.6018
8794.92 273.991 244.349 75.7277 31.1126
8797.58 203.57 260.409 18.722 67.1185
8800.24 303.665 257.795 106.906 61.1704
8802.9 266.149 280.604 57.8835 73.0271
8805.56 271.999 271.44 54.2919 48.9141
8808.22 276.171 276.029 34.5669 37.2404
8810.87 279.918 292.469 22.8623 24.7378
8813.53 321.317 309.882 16.7842 41.3379
8816.19 328.411 305.774 84.3671 59.5139
8818.85 267.594 285.729 77.3904 108.791
8821.5 261.183 322.671 164.614 44.0653
8824.16 439.235 379.392 -109.809 -24.9088
8826.82 437.758 352.699 -129.532 -183.831
8829.47 181.104 296.238 -312.153 -179.385
8832.13 269.854 216.933 -96.4717 -98.9579
8834.78 199.843 248.926 111.751 0.0827862
8837.44 277.081 255.681 -15.0308 41.3339
8840.09 290.119 250.514 27.2817 59.3657
8842.75 184.341 249.835 165.846 86.5087
8845.4 275.045 237.589 66.3985 117.031
8848.05 253.383 262.504 118.849 71.3069
8850.71 259.085 278.145 28.6731 24.3379
8853.36 321.969 291.041 -74.5085 14.3469
8856.01 292.071 285.312 88.876 16.8344
8858.67 241.895 271.513 36.1358 48.3407
8861.32 280.571 271.893 20.0103 12.6016
8863.97 293.212 274.637 -18.3412 1.54949
8866.62 250.127 279.307 2.97934 -6.42608
8869.27 294.581 281.564 -3.91639 -5.28151
8871.93 299.984 294.917 -14.9075 39.1634
8874.58 290.185 285.106 136.314 43.3258
8877.23 265.148 246.356 8.57066 44.7124
8879.88 183.736 256.936 -10.7476 -33.0095
8882.53 321.925 284.953 -96.8517 -23.4803
8885.18 349.196 326.656 37.1585 7.12598
8887.83 308.847 275.814 81.0711 108.669
8890.48 169.399 183.147 207.778 138.199
8893.12 71.1951 138.002 125.748 136.483
8895.77 173.41 155.411 75.9232 52.1015
8898.42 221.629 234.895 -45.367 -8.86067
8901.07 309.646 219.568 -57.1382 -46.4357
8903.72 127.43 244.048 -36.8019 -16.0728
8906.36 295.067 209.868 45.7217 -0.945064
8909.01 207.107 238.148 -11.755 9.75038
8911.66 212.27 183.734 -4.71552 -59.6469
8914.3 131.826 225.588 -162.47 -86.1702
8916.95 332.669 275.777 -91.3251 -41.6533
8919.6 362.834 303.58 128.835 -30.2021
8922.24 215.236 261.68 -128.117 37.2765
8924.89 206.969 151.777 111.111 -53.7254
8927.53 33.1279 138.488 -144.17 -20.1949
8930.18 175.368 133.531 -27.5252 -55.663
8932.82 192.098 203.527 4.70654 -34.7221
8935.46 243.114 232.469 -81.3477 -22.9076
8938.11 262.195 271.284 7.9185 -40.8714
8940.75 308.542 249.952 -49.1849 -10.2592
8943.39 179.119 254.992 10.489 14.4385
8946.04 277.314 222.21 82.0114 -17.147
8948.68 210.197 198.685 -143.941 -99.9245
8951.32 108.543 166.096 -237.843 -199.79
8953.96 179.549 183.816 -217.585 -122.422
8956.6 263.357 250.562 88.1622 12.4691
8959.25 308.779 263.45 166.83 78.668
8961.89 218.216 200.263 -18.9881 -67.7202
8964.53 73.7949 132.877 -351.002 -219.292
8967.17 106.622 108.813 -287.887 -288.832
8969.81 146.021 152.865 -227.606 -185.452
8972.45 205.951 200.503 -40.8639 -80.6363
8975.09 249.537 217.475 26.5615 1.04324
8977.73 196.938 216.371 17.4321 29.3149
8980.36 202.639 212.443 43.9512 32.7723
8983 237.751 215.028 36.9336 43.1015
8985.64 204.695 225.48 48.4198 66.4178
8988.28 233.994 229.858 113.9 81.5546
8990.92 250.885 238.942 82.344 70.7287
8993.55 231.946 231.157 15.9421 -11.3342
8996.19 210.64 207.564 -132.289 44.6013
8998.83 180.106 193.901 250.151 110.939
9001.46 190.957 199.396 214.954 226.329
9004.1 227.124 183.367 213.882 92.4506
9006.73 132.019 172.661 -151.485 -119.804
9009.37 158.839 158.617 -421.809 -250.513
9012.01 184.993 176.353 -178.245 -222.255
9014.64 185.226 189.475 -66.7107 -67.9717
9017.27 198.206 189.671 41.0411 27.8256
9019.91 185.579 198.768 109.146 63.1065
9022.54 212.519 193.42 39.1319 76.5251
9025.18 182.162 199.559 81.2971 88.8657
9027.81 203.995 190.028 146.168 123.011
9030.44 183.926 195.113 141.568 125.167
9033.07 197.419 205.203 87.7663 139.955
9035.71 234.264 218.649 190.53 159.148
9038.34 224.262 231.649 199.149 154.676
9040.97 236.42 220.851 74.3487 99.2826
9043.6 201.871 237.743 24.3503 81.0765
9046.23 274.939 232.297 144.53 152.533
9048.86 220.082 241.36 288.718 180.901
9051.49 229.059 212.813 109.455 135.66
9054.12 189.298 204.953 8.8068 -13.2521
9056.75 196.501 184.887 -158.018 -87.7117
9059.38 168.861 195.998 -113.923 -88.5791
9062.01 222.631 194.429 6.20452 -13.7037
9064.64 191.794 191.549 66.6079 62.4495
9067.27 160.222 159.236 114.536 77.6957
9069.9 125.693 95.3051 51.9434 55.4931
