wavelength spectrum_sum 3smoothed_sum spectrum_optimal 3smoothed_optimal
3507.1 21.4191 13.9195 36.9578 20.4449
3510.01 20.3394 23.7579 24.3769 34.488
3512.93 29.5151 25.2395 42.1293 34.2411
3515.85 25.8639 27.886 36.2172 35.9412
3518.76 28.2791 31.9577 29.4769 33.328
3521.68 41.7302 30.0091 34.2897 27.3826
3524.6 20.018 27.3595 18.3811 26.3457
3527.51 20.3303 25.5871 26.3662 24.5007
3530.43 36.4129 28.8155 28.7548 25.6645
3533.35 29.7034 34.9415 21.8726 29.3265
3536.26 38.7081 33.5664 37.3522 22.6492
3539.18 32.2877 33.9781 8.72278 28.1901
3542.1 30.9384 25.6478 38.4954 27.7764
3545.02 13.7172 17.6739 36.1111 33.5788
3547.93 8.36621 21.2952 26.1298 33.4951
3550.85 41.8022 36.1222 38.2444 40.9189
3553.77 58.1981 40.4153 58.3825 46.6722
3556.68 21.2457 41.6207 43.3896 46.81
3559.6 45.4183 37.0933 38.6579 42.3196
3562.52 44.6158 42.4747 44.9115 40.5005
3565.43 37.3901 42.869 37.9321 39.8659
3568.35 46.601 45.5506 36.754 44.9659
3571.27 52.6608 46.4676 60.2116 40.4074
3574.18 40.1411 45.9074 24.2566 40.5089
3577.1 44.9202 41.9134 37.0584 34.609
3580.02 40.6789 39.4284 42.5119 38.7384
3582.93 32.686 40.094 36.645 42.5726
3585.85 46.917 43.5375 48.5609 43.8674
3588.77 51.0094 47.4427 46.3962 48.8563
3591.68 44.4018 44.0376 51.612 48.5476
3594.6 36.7016 39.6665 47.6348 49.0957
3597.52 37.8961 48.385 48.0402 53.8895
3600.44 70.5573 59.476 65.9935 59.3882
3603.35 69.9746 58.6178 64.1308 60.1155
3606.27 35.3215 57.8189 50.2222 57.9291
3609.19 68.1606 45.5617 59.4344 49.635
3612.1 33.2029 53.1087 39.2485 50.7303
3615.02 57.9625 52.4829 53.5081 53.114
3617.94 66.2833 60.6838 66.5854 56.1916
3620.85 57.8057 59.5985 48.4814 59.4267
3623.77 54.7064 55.7701 63.2134 49.5395
3626.69 54.7981 48.6168 36.9236 45.4976
3629.6 36.3458 49.0376 36.3558 44.9655
3632.52 55.969 47.0634 61.6171 48.0221
3635.44 48.8756 50 46.0935 52.9997
3638.35 45.1555 52.4725 51.2886 53.6184
3641.27 63.3864 50.8672 63.4731 45.4118
3644.18 44.0598 57.8595 21.4738 46.5353
3647.1 66.1324 56.7356 54.6589 42.1328
3650.02 60.0147 61.0878 50.2657 49.0198
3652.93 57.1165 57.3159 42.1347 46.1507
3655.85 54.8167 53.1769 46.0516 40.5728
3658.77 47.5976 59.9284 33.5322 53.3053
3661.68 77.3709 66.4333 80.3321 61.2219
3664.6 74.3313 72.6425 69.8014 70.9678
3667.52 66.2253 65.9714 62.7699 65.5605
3670.43 57.3575 52.2668 64.1104 55.2861
3673.35 33.2176 52.2755 38.9781 49.4998
3676.27 66.2515 50.1427 45.4108 42.9546
3679.18 50.9591 59.4236 44.475 47.5524
3682.1 61.0601 63.6814 52.7716 54.953
3685.02 79.0249 72.2429 67.6124 64.0778
3687.93 76.6435 74.4345 71.8494 64.3575
3690.85 67.6352 73.1151 53.6106 58.8955
3693.76 75.0667 75.1202 51.2266 59.9058
3696.68 82.6588 73.9232 74.8801 54.0665
3699.6 64.044 74.9473 36.0927 65.7557
3702.51 78.1392 79.3694 86.2944 66.7586
3705.43 95.925 84.8047 77.8887 75.7751
3708.35 80.3499 79.5905 63.142 61.7164
3711.26 62.4965 84.7713 44.1185 63.0834
3714.18 111.467 81.2436 81.9895 55.2258
3717.1 69.767 94.2088 39.5694 65.0883
3720.01 101.392 89.8015 73.706 59.3797
3722.93 98.2457 86.563 64.8638 68.9988
3725.84 60.0514 85.8348 68.4267 63.5136
3728.76 99.2073 74.2209 57.2504 66.8466
3731.68 63.404 77.2666 74.8627 61.7189
3734.59 69.1885 73.8298 53.0435 65.1513
3737.51 88.897 76.4235 67.5477 55.6857
3740.42 71.1849 87.3094 46.466 67.6611
3743.34 101.846 77.1714 88.9695 63.6125
3746.26 58.483 90.1151 55.4019 81.9762
3749.17 110.016 88.867 101.557 85.179
3752.09 98.1018 102.091 98.5778 87.8725
3755 98.1556 99.6138 63.4823 89.5094
3757.92 102.584 105.89 106.468 99.6848
3760.84 116.93 118.381 129.104 108.346
3763.75 135.63 109.389 89.465 97.4618
3766.67 75.6075 101.736 73.8161 83.8478
3769.58 93.9706 91.3681 88.2622 93.1471
3772.5 104.526 110.739 117.363 106.258
3775.42 133.721 114.66 113.149 114.598
3778.33 105.732 122.187 113.28 117.761
3781.25 127.108 125.043 126.854 132.071
3784.16 142.289 130.521 156.077 138.878
3787.08 122.167 126.834 133.702 134.359
3790 116.046 116.198 113.297 124.131
3792.91 110.38 109.506 125.394 116.686
3795.83 102.093 100.934 111.366 110.172
3798.74 90.3278 96.1554 93.7567 94.512
3801.66 96.0456 97.6575 78.4133 94.3475
3804.57 106.599 106.98 110.873 96.6204
3807.49 118.294 103.619 100.576 99.7299
3810.41 85.9646 106.28 87.7417 92.0671
3813.32 114.582 108.148 87.8842 100.899
3816.24 123.898 121.014 127.07 115.773
3819.15 124.561 129.525 132.366 131.71
3822.07 140.114 129.897 135.696 129.273
3824.98 125.016 132.694 119.758 120.364
3827.9 132.951 132.5 105.64 123.237
3830.82 139.533 140.623 144.313 124.54
3833.73 149.384 149.274 123.668 134.015
3836.65 158.906 167.821 134.065 145.533
3839.56 195.173 173.597 178.866 157.597
3842.48 166.712 169.964 159.859 167.372
3845.39 148.008 146.843 163.392 147.89
3848.31 125.81 150.966 120.419 143.801
3851.22 179.078 149.774 147.594 129.946
3854.14 144.433 161.028 121.825 138.741
3857.05 159.572 148.631 146.804 133.218
3859.97 141.887 154.345 131.024 140.344
3862.89 161.577 147.127 143.204 137.603
3865.8 137.917 153.063 138.58 145.485
3868.72 159.694 147.584 154.671 142.471
3871.63 145.142 149.262 134.163 145.406
3874.55 142.951 149.943 147.385 134.597
3877.46 161.737 145.916 122.242 133.26
3880.38 133.059 151.359 130.153 130.457
3883.29 159.283 162.554 138.976 146.571
3886.21 195.319 160.254 170.584 141.176
3889.12 126.16 153.105 113.968 135.952
3892.04 137.837 138.594 123.305 116.723
3894.95 151.785 145.816 112.896 125.732
3897.87 147.826 144.151 140.995 120.479
3900.78 132.843 150.956 107.546 130.965
3903.7 172.199 155.443 144.354 133.71
3906.61 161.289 184.113 149.229 168.335
3909.53 218.851 177.769 211.422 177.066
3912.44 153.167 210.566 170.546 207.11
3915.36 259.682 211.977 239.363 210.077
3918.27 223.083 234.007 220.321 219.697
3921.19 219.257 213.843 199.405 206.925
3924.1 199.189 194.385 201.049 184.477
3927.02 164.71 181.605 152.976 177.479
3929.93 180.917 175.227 178.413 165.98
3932.85 180.054 179.336 166.552 163.97
3935.76 177.036 180.935 146.946 161.667
3938.68 185.716 173.755 171.502 152.714
3941.59 158.512 171.876 139.694 153.552
3944.51 171.401 171.017 149.46 157.443
3947.42 183.139 184.22 183.174 179.772
3950.33 198.119 202.314 206.683 204.82
3953.25 225.682 197.386 224.604 198.748
3956.16 168.358 192.054 164.957 190.835
3959.08 182.122 183.435 182.943 183.423
3961.99 199.826 194.161 202.369 184.653
3964.91 200.536 196.28 168.647 184.714
3967.82 188.48 210.022 183.125 188.783
3970.74 241.049 205.232 214.576 197.63
3973.65 186.166 212.162 195.189 203.732
3976.56 209.272 203.552 201.43 201.431
3979.48 215.217 200.227 207.673 193.427
3982.39 176.194 199.119 171.178 182.362
3985.31 205.946 179.894 168.234 162.699
3988.22 157.542 176.191 148.686 159.639
3991.14 165.084 170.396 161.997 165.923
3994.05 188.561 191.001 187.086 181.348
3996.96 219.358 198.209 194.962 186.768
3999.88 186.708 207.025 178.257 188.074
4002.79 215.009 204.871 191.002 189.748
4005.71 212.898 212.158 199.984 192.245
4008.62 208.568 226.063 185.75 206.944
4011.53 256.725 233.541 235.098 220.46
4014.45 235.33 235.674 240.534 222.017
4017.36 214.968 225.101 190.419 210.976
4020.28 225.006 222.404 201.975 198.004
4023.19 227.237 204.987 201.62 186.214
4026.1 162.719 184.556 155.048 174.922
4029.02 163.713 177.955 168.098 167.454
4031.93 207.434 180.371 179.216 181.518
4034.85 169.965 208.68 197.239 209.676
4037.76 248.641 208.86 252.572 216.284
4040.67 207.973 246.478 199.039 240.426
4043.59 282.822 248.822 269.667 233.51
4046.5 255.672 265.702 231.825 252.589
4049.41 258.612 258.207 256.275 254.773
4052.33 260.338 292.655 276.218 281.247
4055.24 359.016 305.324 311.247 281.786
4058.16 296.619 308.9 257.892 284.076
4061.07 271.064 295.856 283.089 269.433
4063.98 319.885 301.655 267.318 277.851
4066.9 314.016 312.762 283.145 277.837
4069.81 304.384 314.91 283.048 287.905
4072.72 326.329 324.526 297.523 305.532
4075.64 342.865 327.55 336.025 308.337
4078.55 313.455 343.505 291.462 319.1
4081.46 374.194 345.34 329.813 318.598
4084.38 348.372 349.696 334.519 339.661
4087.29 326.523 335.656 354.652 332.665
4090.2 332.073 326.087 308.825 325.861
4093.12 319.664 335.981 314.106 317.246
4096.03 356.207 347.485 328.807 325.89
4098.94 366.583 341.003 334.758 313.981
4101.86 300.219 345.239 278.378 323.666
4104.77 368.915 331.703 357.863 313.855
4107.68 325.975 364.177 305.326 333.463
4110.59 397.64 354.084 337.202 332.281
4113.51 338.638 359.82 354.317 335.344
4116.42 343.182 358.823 314.514 331.863
4119.33 394.649 346.488 326.757 304.225
4122.25 301.633 349.971 271.406 316.08
4125.16 353.632 329.316 350.079 305.896
4128.07 332.684 367.939 296.205 334.576
4130.98 417.501 357.774 357.443 308.942
4133.9 323.137 372.984 273.177 335.211
4136.81 378.315 357.421 375.012 344.283
4139.72 370.81 354.987 384.66 363.303
4142.63 315.836 363.326 330.238 361.307
4145.55 403.331 356.262 369.023 346.606
4148.46 349.618 369.087 340.556 350.534
4151.37 354.312 352.77 342.023 339.28
4154.28 354.38 364.96 335.262 350.573
4157.2 386.186 347.68 374.433 337.842
4160.11 302.474 351.178 303.829 350.51
4163.02 364.874 336.847 373.267 331.505
4165.93 343.193 364.331 317.417 350.573
4168.85 384.925 369.837 361.033 346.138
4171.76 381.392 373.033 359.964 361.381
4174.67 352.78 381.418 363.146 362.583
4177.58 410.081 388.708 364.639 368.54
4180.5 403.262 403.704 377.836 374.2
4183.41 397.77 394.4 380.126 372.231
4186.32 382.168 387.823 358.732 367.562
4189.23 383.531 403.047 363.827 370.162
4192.14 443.442 413.347 387.928 381.71
4195.06 413.068 406.135 393.373 375.888
4197.97 361.894 396.368 346.362 371.567
4200.88 414.143 399.686 374.965 373.011
4203.79 423.02 415.021 397.705 399.113
4206.7 407.901 410.123 424.67 398.119
4209.61 399.449 401.513 371.981 395.745
4212.53 397.19 418.76 390.585 399.991
4215.44 459.64 420.885 437.408 401.831
4218.35 405.825 423.934 377.501 410.642
4221.26 406.335 424.015 417.017 409.31
4224.17 459.886 428.247 433.411 405.571
4227.08 418.52 445.491 366.285 395.5
4230 458.066 419.77 386.805 382.888
4232.91 382.724 415.619 395.574 398.65
4235.82 406.067 406.659 413.572 405.2
4238.73 431.186 439.747 406.454 423.217
4241.64 481.988 449.841 449.624 427.734
4244.55 436.35 452.655 427.125 431.051
4247.46 439.626 446.307 416.404 426.776
4250.38 462.944 444.337 436.798 416.73
4253.29 430.44 447.456 396.988 419.547
4256.2 448.984 435.816 424.856 407.215
4259.11 428.025 436.887 399.802 406.905
4262.02 433.651 424.676 396.058 399.146
4264.93 412.351 440.42 401.579 419.572
4267.84 475.257 443.685 461.08 420.736
4270.75 443.448 438.457 399.548 415.942
4273.66 396.665 435.715 387.199 407.894
4276.57 467.033 424.373 436.936 408.055
4279.49 409.423 425.07 400.03 403.388
4282.4 398.756 433.311 373.2 422.527
4285.31 491.754 461.418 494.352 447.894
4288.22 493.744 490.382 476.131 481.993
4291.13 485.648 472.528 475.497 465.887
4294.04 438.191 462.524 446.034 453.306
4296.95 463.733 441.574 438.387 440.873
4299.86 422.799 467.297 438.197 458.267
4302.77 515.358 475.969 498.216 463.235
4305.68 489.751 505.591 453.292 472.826
4308.59 511.665 498.916 466.971 458.377
4311.5 495.33 519.25 454.868 479.484
4314.41 550.753 518.15 516.614 479.703
4317.32 508.367 510.389 467.626 485.151
4320.23 472.046 494.231 471.214 465.081
4323.14 502.279 512.601 456.404 481.398
4326.05 563.476 505.231 516.576 473.276
4328.96 449.938 506.091 446.848 493.757
4331.87 504.858 491.835 517.847 488.649
4334.78 520.708 508.515 501.253 502.629
4337.69 499.979 507.338 488.788 484.081
4340.6 501.326 501.691 462.201 467.232
4343.51 503.767 489.641 450.706 454.804
4346.42 463.831 483.903 451.504 449.616
4349.33 484.11 485.091 446.637 453.146
4352.24 507.332 491.297 461.296 469.324
4355.15 482.448 495.699 500.039 495.056
4358.06 497.317 481.688 523.834 489.744
4360.97 465.299 479.689 445.359 476.315
4363.88 476.45 465.282 459.753 448.871
4366.79 454.097 470.663 441.501 459.275
4369.7 481.442 466.707 476.57 451.352
4372.61 464.582 467.561 435.986 453.364
4375.52 456.659 465.387 447.536 446.57
4378.43 474.92 495.087 456.188 481.955
4381.34 553.683 527.379 542.142 508.133
4384.25 553.534 533.802 526.069 523.644
4387.15 494.191 518.624 502.72 509.07
4390.06 508.148 521.016 498.422 511.896
4392.97 560.709 553.071 534.546 523.007
4395.88 590.354 560.999 536.054 521.72
4398.79 531.935 546.305 494.56 510.283
4401.7 516.626 529.879 500.235 504.375
4404.61 541.075 530.179 518.329 520.999
4407.52 532.836 557.353 544.432 537.754
4410.43 598.147 556.605 550.502 540.353
4413.34 538.833 543.545 526.125 510.985
4416.24 493.654 539.548 456.329 512.655
4419.15 586.156 543.161 555.509 523.768
4422.06 549.673 576.465 559.465 575.472
4424.97 593.567 577.164 611.442 573.704
4427.88 588.253 593.641 550.204 573.945
4430.79 599.104 581.186 560.19 571.4
4433.7 556.2 576.356 603.805 568.624
4436.6 573.762 584.147 541.877 586.202
4439.51 622.477 606.359 612.924 579.979
4442.42 622.839 612.91 585.135 590.484
4445.33 593.413 574.918 573.394 554.63
4448.24 508.503 537.117 505.361 529.671
4451.14 509.435 528.101 510.257 525.863
4454.05 566.366 549.131 561.97 559.857
4456.96 571.59 575.312 607.342 581.845
4459.87 587.979 571.341 576.222 589.624
4462.78 554.454 605.337 585.306 596.412
4465.68 673.579 578.171 627.707 564.937
4468.59 506.48 595.484 481.799 562.861
4471.5 606.394 573.435 579.078 541.024
4474.41 607.431 619.501 562.196 592.464
4477.32 644.678 623.366 636.117 607.368
4480.22 617.991 630.238 623.79 638.438
4483.13 628.045 610.144 655.406 614.91
4486.04 584.396 609.46 565.533 608.133
4488.95 615.939 598.295 603.459 585.676
4491.85 594.552 625.471 588.035 600.055
4494.76 665.923 622.113 608.671 583.602
4497.67 605.865 652.173 554.099 607.553
4500.58 684.731 624.945 659.89 596.244
4503.48 584.237 654.874 574.743 643.104
4506.39 695.654 628.257 694.68 623.49
4509.3 604.879 646.264 601.046 648.836
4512.2 638.257 651.757 650.781 644.92
4515.11 712.134 669.32 682.934 667.005
4518.02 657.569 685.077 667.3 685.583
4520.92 685.529 666.038 706.516 670.258
4523.83 655.015 656.315 636.959 676.569
4526.74 628.4 626.381 686.232 633.205
4529.65 595.727 627.401 576.423 645.73
4532.55 658.075 645.433 674.537 653.731
4535.46 682.498 677.13 710.233 690.376
4538.37 690.819 665.275 686.358 667.775
4541.27 622.508 660.076 606.734 649.657
4544.18 666.9 644.822 655.878 628.372
4547.08 645.058 669.843 622.505 646.376
4549.99 697.569 693.895 660.745 659.529
4552.9 739.058 710.067 695.337 675.187
4555.8 693.575 719.409 669.478 690.05
4558.71 725.593 730.811 705.334 694.444
4561.62 773.265 755.702 708.519 709.667
4564.52 768.246 738.819 715.148 681.09
4567.43 674.947 723.922 619.603 668.284
4570.33 728.574 728.518 670.101 669.361
4573.24 782.034 772.43 718.379 699.991
4576.15 806.684 794.395 711.494 725.187
4579.05 794.469 809.713 745.688 745.027
4581.96 827.985 750.586 777.901 712.27
4584.86 629.305 742.511 613.22 708.706
4587.77 770.244 716.45 734.998 666.475
4590.67 749.801 743.287 651.208 682.169
4593.58 709.816 716.848 660.301 650.447
4596.49 690.927 726.772 639.833 665.1
4599.39 779.575 751.146 695.164 676.945
4602.3 782.935 773.495 695.838 661.497
4605.2 757.973 782.671 593.49 664.343
4608.11 807.103 760.62 703.703 646.963
4611.01 716.784 765.999 643.695 677.534
4613.92 774.112 750.161 685.203 669.214
4616.82 759.586 768.405 678.745 686.958
4619.73 771.516 762.284 696.928 677.394
4622.63 755.75 765.38 656.508 665.622
4625.54 768.872 786.538 643.429 656.657
4628.44 834.99 800.52 670.034 650.256
4631.35 797.698 788.796 637.305 642.055
4634.25 733.699 763.66 618.826 645.589
4637.16 759.583 772.673 680.638 664.641
4640.06 824.737 827.6 694.461 711.111
4642.97 898.48 842.025 758.234 718.251
4645.87 802.858 843.193 702.056 724.661
4648.77 828.241 796.948 713.692 688.859
4651.68 759.744 818.47 650.828 689.941
4654.58 867.426 799.568 705.301 677.945
4657.49 771.533 810.897 677.705 677.384
4660.39 793.733 790.783 649.146 667.625
4663.3 807.083 796.217 676.024 655.435
4666.2 787.834 801.494 641.136 663.786
4669.1 809.565 793.902 674.197 644.688
4672.01 784.307 833.291 618.73 673.932
4674.91 906.002 831.304 728.868 678.085
4677.82 803.602 840.729 686.657 694.807
4680.72 812.582 843.409 668.896 718.362
4683.62 914.043 848.885 799.533 740.119
4686.53 820.03 882.902 751.929 759.107
4689.43 914.634 867.356 725.86 721.755
4692.33 867.404 857.445 687.476 710.788
4695.24 790.297 822.184 719.028 695.011
4698.14 808.85 842.907 678.528 744.236
4701.04 929.574 882.146 835.151 781.912
4703.95 908.014 886.657 832.058 799.163
4706.85 822.385 862.216 730.28 782.71
4709.75 856.25 830.847 785.792 765.485
4712.66 813.905 798.396 780.384 759.543
4715.56 725.034 776.656 712.452 745.271
4718.46 791.029 790.256 742.976 737.193
4721.37 854.704 814.559 756.151 769.715
4724.27 797.944 800.061 810.018 768.301
4727.17 747.537 772.528 738.735 752.912
4730.08 772.104 745.872 709.982 705.087
4732.98 717.975 760.11 666.543 693.807
4735.88 790.252 761.306 704.895 694.249
4738.78 775.692 813.031 711.309 741.427
4741.69 873.148 825.758 808.077 757.691
4744.59 828.434 847.202 753.687 768.28
4747.49 840.023 835.583 743.078 761.391
4750.39 838.293 836.561 787.407 744.768
4753.29 831.365 817.241 703.819 732.711
4756.2 782.065 815.434 706.908 731.679
4759.1 832.871 794.464 784.309 756.46
4762 768.456 793.201 778.163 765.53
4764.9 778.275 796.26 734.116 753.905
4767.81 842.05 807.332 749.436 728.583
4770.71 801.672 809.822 702.196 753.123
4773.61 785.746 792.459 807.737 747.812
4776.51 789.961 800.179 733.502 774.947
4779.41 824.832 800.842 783.601 752.967
4782.31 787.735 807.892 741.798 757.4
4785.22 811.109 818.148 746.801 763.626
4788.12 855.601 857.106 802.279 796.199
4791.02 904.609 886.715 839.518 816.079
4793.92 899.936 864.609 806.44 785.225
4796.82 789.28 859.448 709.718 776.681
4799.72 889.128 838.531 813.884 768.079
4802.62 837.184 886.306 780.635 821.983
4805.52 932.608 858.513 871.43 824.488
4808.43 805.749 874.934 821.398 836.896
4811.33 886.446 846.395 817.86 809.975
4814.23 846.992 831.547 790.667 812.488
4817.13 761.203 809.733 828.937 815.213
4820.03 821.004 804.603 826.035 817.754
4822.93 831.602 850.037 798.29 811.154
4825.83 897.506 879.155 809.137 831.392
4828.73 908.356 895.58 886.749 845.256
4831.63 880.878 903.485 839.881 847.201
4834.53 921.221 886.999 814.971 811.1
4837.43 858.898 909.096 778.448 819.213
4840.33 947.168 901.949 864.219 826.25
4843.23 899.781 892.509 836.084 854.564
4846.13 830.577 870.045 863.389 839.015
4849.03 879.778 863.695 817.573 842.496
4851.93 880.729 849.84 846.525 831.062
4854.83 789.013 853.298 829.087 859.656
4857.73 890.153 842.23 903.356 844.924
4860.63 847.526 874.409 802.329 841.187
4863.53 885.547 862.812 817.876 837.283
4866.43 855.362 888.489 891.646 842.754
4869.33 924.557 891.025 818.742 837.501
4872.23 893.155 860.372 802.115 812.483
4875.13 763.403 854.62 816.592 825.517
4878.03 907.3 839.355 857.843 831.233
4880.93 847.361 847.617 819.263 845.986
4883.83 788.19 852.767 860.852 852.765
4886.73 922.751 876.962 878.18 882.571
4889.63 919.945 923.796 908.679 908.533
4892.53 928.692 891.967 938.741 889.421
4895.42 827.262 911.784 820.844 912.418
4898.32 979.398 880.164 977.67 902.82
4901.22 833.831 915.867 909.946 955.106
4904.12 934.371 846.476 977.703 915.168
4907.02 771.227 846.129 857.856 908.496
4909.92 832.789 814.599 889.93 880.989
4912.82 839.782 865.179 895.181 892.569
4915.72 922.967 920.364 892.597 927.079
4918.61 998.343 931.055 993.459 908.714
4921.51 871.856 909.103 840.086 888.053
4924.41 857.11 879.064 830.614 841.471
4927.31 908.225 865.671 853.713 847.028
4930.21 831.677 895.197 856.758 880.981
4933.1 945.688 896.28 932.471 890.074
4936 911.474 906.606 880.994 878.814
4938.9 862.657 878.193 822.979 858.279
4941.8 860.447 869.943 870.863 839.718
4944.7 886.726 847.797 825.311 852.209
4947.59 796.22 868.411 860.452 853.799
4950.49 922.289 849.334 875.634 868.593
4953.39 829.494 893.142 869.693 875.229
4956.29 927.643 830.511 880.361 847.969
4959.18 734.396 843.509 793.853 830.576
4962.08 868.488 845.929 817.514 840.613
4964.98 934.904 898.728 910.473 886.514
4967.88 892.793 953.674 931.555 942.732
4970.77 1033.33 931.893 986.169 936.202
4973.67 869.559 922.881 890.883 933.083
4976.57 865.757 900.617 922.195 919.299
4979.46 966.535 948.243 944.819 941.973
4982.36 1012.44 968.979 958.906 965.458
4985.26 927.965 991.734 992.65 985.154
4988.15 1034.8 966.873 1003.91 955.47
4991.05 937.854 981.655 869.853 923.932
4993.95 972.31 972.677 898.036 910.822
4996.84 1007.87 956.74 964.576 936.752
4999.74 890.043 976.079 947.643 977.541
5002.64 1030.33 970.868 1020.4 982.589
5005.53 992.231 1019.18 979.719 991.797
5008.43 1034.99 993.987 975.267 962.911
5011.32 954.735 988.148 933.747 958.528
5014.22 974.715 989.941 966.57 970.822
5017.12 1040.37 1022.23 1012.15 1011.09
5020.01 1051.61 1028.36 1054.55 1042.04
5022.91 993.083 1032.73 1059.42 1045.79
5025.8 1053.5 1015.52 1023.42 1010.68
5028.7 999.976 1007.44 949.192 972.031
5031.59 968.847 1008.78 943.482 984.359
5034.49 1057.53 1029.64 1060.4 1021.85
5037.39 1062.53 1048.41 1061.67 1031.72
5040.28 1025.18 1043.3 973.08 1026.79
5043.18 1042.18 1043.49 1045.63 1036.54
5046.07 1063.1 1057.21 1090.92 1067.27
5048.97 1066.36 1074.28 1065.27 1091.67
5051.86 1093.38 1052.85 1118.83 1062.21
5054.76 998.813 1038.05 1002.53 1055.15
5057.65 1021.95 1010.89 1044.08 1026.32
5060.55 1011.9 1024.98 1032.34 1044.77
5063.44 1041.08 1012.53 1057.89 1072.72
5066.34 984.611 1026.53 1127.92 1083.39
5069.23 1053.91 1019.1 1064.36 1090.1
5072.12 1018.79 1029.6 1078.01 1064.57
5075.02 1016.12 1042.94 1051.32 1078.76
5077.91 1093.92 1067.63 1106.94 1072.93
5080.81 1092.86 1094.21 1060.53 1094.42
5083.7 1095.86 1090.62 1115.78 1088.6
5086.6 1083.12 1084.39 1089.51 1102.91
5089.49 1074.18 1066.96 1103.44 1098.47
5092.38 1043.57 1071.77 1102.45 1104.78
5095.28 1097.56 1076.44 1108.45 1115.91
5098.17 1088.19 1062.55 1136.83 1108.64
5101.06 1001.89 1058.45 1080.65 1105.07
5103.96 1085.26 1063.55 1097.72 1113.61
5106.85 1103.5 1088.52 1162.45 1123.8
5109.74 1076.79 1079.46 1111.23 1132.93
5112.64 1058.08 1088.3 1125.11 1127.72
5115.53 1130.03 1056.22 1146.83 1103.33
5118.42 980.56 1049.09 1038.05 1101.22
5121.32 1036.67 1031.31 1118.77 1111.26
5124.21 1076.71 1064.67 1176.98 1136.86
5127.1 1080.64 1039.6 1114.83 1117.22
5130 961.437 1049.26 1059.84 1105.64
5132.89 1105.72 1077.78 1142.26 1136.52
5135.78 1166.17 1132.95 1207.45 1141.22
5138.67 1126.94 1116.26 1073.95 1154.17
5141.57 1055.66 1104.99 1181.11 1137.15
5144.46 1132.36 1099.39 1156.39 1160.82
5147.35 1110.16 1124.57 1144.96 1164.35
5150.24 1131.19 1127.1 1191.71 1166.33
5153.14 1139.94 1144.16 1162.31 1183.2
5156.03 1161.36 1135.15 1195.58 1180.8
5158.92 1104.15 1110.72 1184.5 1158.75
5161.81 1066.65 1082.73 1096.15 1133.15
5164.7 1077.39 1066.72 1118.79 1127.53
5167.6 1056.11 1061.35 1167.64 1118.11
5170.49 1050.55 1087.88 1067.89 1145.71
5173.38 1156.97 1107.16 1201.58 1151.21
5176.27 1113.97 1108.42 1184.15 1179.09
5179.16 1054.32 1066.39 1151.52 1176.59
5182.05 1030.87 1070.18 1194.1 1191.79
5184.94 1125.35 1109.34 1229.74 1221
5187.84 1171.79 1148.65 1239.17 1227.34
5190.73 1148.79 1175.83 1213.11 1244.82
5193.62 1206.91 1158.49 1282.17 1223.08
5196.51 1119.77 1139.05 1173.96 1221.97
5199.4 1090.46 1089.81 1209.78 1199.07
5202.29 1059.2 1073.35 1213.46 1190.6
5205.18 1070.41 1074.4 1148.56 1187.62
5208.07 1093.6 1096.79 1200.83 1172.07
5210.96 1126.38 1110.46 1166.82 1198.82
5213.85 1111.4 1086.39 1228.79 1204.09
5216.74 1021.39 1109.28 1216.65 1220.53
5219.63 1195.05 1080.26 1216.14 1174.86
5222.52 1024.34 1106.1 1091.8 1147.76
5225.41 1098.92 1082.73 1135.35 1143.29
5228.3 1124.94 1105.51 1202.71 1164.07
5231.19 1092.66 1102.04 1154.16 1165.05
5234.08 1088.52 1089.05 1138.29 1158.86
5236.97 1085.97 1103.87 1184.14 1175.38
5239.86 1137.12 1112.83 1203.7 1193.35
5242.75 1115.39 1114.86 1192.2 1195.64
5245.64 1092.07 1091.02 1191.03 1174.75
5248.53 1065.6 1080.35 1141.01 1149.24
5251.42 1083.36 1072.86 1115.68 1115.47
5254.31 1069.61 1070.02 1089.72 1112.02
5257.2 1057.08 1069.08 1130.66 1140.23
5260.09 1080.55 1100.12 1200.31 1180.32
5262.98 1162.72 1116.23 1210 1200.44
5265.86 1105.42 1109.41 1191.01 1178.74
5268.75 1060.07 1095.5 1135.22 1159.13
5271.64 1121.01 1124.45 1151.16 1174.94
5274.53 1192.27 1135.27 1238.45 1178.46
5277.42 1092.53 1158.49 1145.78 1206.2
5280.31 1190.68 1140.47 1234.37 1192.48
5283.2 1138.21 1160.24 1197.29 1217.12
5286.08 1151.85 1126.49 1219.69 1206.43
5288.97 1089.42 1127.72 1202.31 1203.8
5291.86 1141.9 1118.35 1189.39 1197.76
5294.75 1123.74 1157.67 1201.57 1234.42
5297.64 1207.37 1180.73 1312.3 1281.08
5300.52 1211.09 1191.05 1329.35 1297.21
5303.41 1154.68 1166.75 1249.97 1277.54
5306.3 1134.47 1140.47 1253.3 1261.84
5309.19 1132.27 1121.29 1282.25 1284.45
5312.07 1097.14 1140.12 1317.81 1294.69
5314.96 1190.95 1173.59 1284.02 1297.37
5317.85 1232.68 1181.61 1290.28 1304.83
5320.74 1121.2 1203.32 1340.18 1319.14
5323.62 1256.08 1203.58 1326.97 1335.34
5326.51 1233.46 1251.06 1338.89 1339.6
5329.4 1263.64 1192.77 1352.95 1289.55
5332.28 1081.2 1184.16 1176.81 1310.49
5335.17 1207.63 1169.47 1401.71 1293.09
5338.06 1219.56 1196.98 1300.75 1311.22
5340.94 1163.75 1190.91 1231.2 1269.8
5343.83 1189.4 1179.43 1277.44 1261.67
5346.72 1185.13 1191.36 1276.37 1275.13
5349.6 1199.56 1180.46 1271.57 1277.23
5352.49 1156.68 1124.5 1283.75 1261.69
5355.38 1017.24 1142.38 1229.74 1286.21
5358.26 1253.23 1181.95 1345.15 1326.58
5361.15 1275.39 1252.71 1404.84 1381.04
5364.03 1229.51 1262.95 1393.13 1385.48
5366.92 1283.95 1236.34 1358.46 1391.95
5369.8 1195.56 1279.38 1424.25 1424.57
5372.69 1358.65 1237.42 1490.99 1440.77
5375.58 1158.06 1240.71 1407.07 1395.45
5378.46 1205.41 1207.87 1288.29 1346.51
5381.35 1260.13 1232.54 1344.18 1332.08
5384.23 1232.09 1267.32 1363.76 1374.92
5387.12 1309.75 1294.29 1416.82 1426.54
5390 1341.04 1317.63 1499.06 1471.41
5392.89 1302.09 1324.4 1498.35 1479.09
5395.77 1330.06 1340.76 1439.87 1481.5
5398.66 1390.14 1345.22 1506.27 1475
5401.54 1315.45 1331.64 1478.85 1455.56
5404.42 1289.32 1288.19 1381.56 1407.27
5407.31 1259.8 1278.46 1361.41 1380.75
5410.19 1286.26 1249.97 1399.29 1356.64
5413.08 1203.85 1269.49 1309.23 1386.45
5415.96 1318.36 1251.7 1450.82 1362.29
5418.85 1232.89 1274.28 1326.82 1392.22
5421.73 1271.59 1275.05 1399.02 1387.27
5424.61 1320.68 1296.81 1435.96 1413.05
5427.5 1298.14 1313.88 1404.16 1432.14
5430.38 1322.82 1313.27 1456.3 1443.09
5433.26 1318.84 1312.33 1468.82 1486.36
5436.15 1295.32 1322.03 1533.97 1509.5
5439.03 1351.93 1338.23 1525.73 1510.15
5441.91 1367.44 1358.19 1470.74 1496.94
5444.8 1355.2 1352.74 1494.35 1479.13
5447.68 1335.58 1362.61 1472.3 1495.99
5450.56 1397.04 1349.75 1521.32 1479.23
5453.45 1316.65 1349.17 1444.08 1486.06
5456.33 1333.82 1281.59 1492.79 1468.71
5459.21 1194.32 1296.63 1469.26 1486.22
5462.09 1361.76 1307.4 1496.62 1493.55
5464.98 1366.12 1361.84 1514.78 1505.7
5467.86 1357.64 1355.25 1505.69 1491.92
5470.74 1341.98 1361.68 1455.3 1488.44
5473.62 1385.41 1323.14 1504.32 1482.89
5476.51 1242.03 1271.52 1489.06 1468.95
5479.39 1187.14 1255.21 1413.46 1463.33
5482.27 1336.46 1286.72 1487.48 1451.88
5485.15 1336.56 1319.52 1454.7 1447.04
5488.03 1285.54 1326.36 1398.93 1459.49
5490.91 1356.99 1292.7 1524.84 1470.39
5493.8 1235.56 1326.81 1487.39 1512.47
5496.68 1387.89 1299.61 1525.18 1484.16
5499.56 1275.38 1323.49 1439.9 1486.47
5502.44 1307.2 1304.23 1494.32 1474.73
5505.32 1330.11 1339.7 1489.96 1500.67
5508.2 1381.79 1394.16 1517.74 1552.58
5511.08 1470.59 1411.22 1650.05 1551.18
5513.96 1381.28 1382.82 1485.74 1532.94
5516.84 1296.6 1355.5 1463.04 1514
5519.73 1388.64 1366.21 1593.21 1534.9
5522.61 1413.39 1430.99 1548.45 1582.93
5525.49 1490.95 1424.52 1607.14 1553.92
5528.37 1369.22 1392.65 1506.18 1524.64
5531.25 1317.78 1344 1460.61 1494.04
5534.13 1345 1353.3 1515.34 1511.51
5537.01 1397.12 1365.74 1558.58 1535.63
5539.89 1355.11 1334.67 1532.97 1524.26
5542.77 1251.79 1300.91 1481.24 1511.28
5545.65 1295.84 1289.89 1519.62 1506.87
5548.53 1322.04 1324.5 1519.74 1515.58
5551.41 1355.61 1343.44 1507.38 1506.25
5554.28 1352.65 1326.15 1491.62 1503.41
5557.16 1270.18 1343.06 1511.22 1524.27
5560.04 1406.36 1362.35 1569.98 1557.11
5562.92 1410.52 1385.57 1590.13 1617.09
5565.8 1339.84 1399.02 1691.16 1673.11
5568.68 1446.69 1428.57 1738.05 1744.5
5571.56 1499.18 1455.75 1804.29 1706.1
5574.44 1421.36 1491.24 1575.96 1664.93
5577.32 1553.17 1509.12 1614.53 1679.39
5580.19 1552.82 1510.69 1847.69 1701.85
5583.07 1426.07 1463.42 1643.32 1699.37
5585.95 1411.39 1404.41 1607.1 1608.12
5588.83 1375.79 1392.9 1573.94 1566.86
5591.71 1391.54 1310.93 1519.56 1531.54
5594.59 1165.47 1280.91 1501.12 1545.81
5597.46 1285.71 1237.89 1616.76 1557.8
5600.34 1262.5 1343.13 1555.51 1602.96
5603.22 1481.2 1391.15 1636.62 1631.5
5606.1 1429.76 1439.16 1702.35 1645.22
5608.97 1406.54 1423.78 1596.68 1630.3
5611.85 1435.06 1351.24 1591.86 1562.26
5614.73 1212.12 1358.95 1498.24 1559.64
5617.61 1429.68 1317.49 1588.82 1569.48
5620.48 1310.67 1413.95 1621.39 1626.63
5623.36 1501.51 1366 1669.68 1628.7
5626.24 1285.83 1401.64 1595.02 1614.6
5629.11 1417.58 1410.14 1579.11 1637.3
5631.99 1527.01 1482.77 1737.77 1677.19
5634.87 1503.74 1492.94 1714.69 1688.48
5637.74 1448.08 1484.04 1612.96 1656.23
5640.62 1500.3 1471.25 1641.03 1629.56
5643.49 1465.39 1449.63 1634.7 1622.91
5646.37 1383.21 1442.35 1593.01 1627.33
5649.25 1478.46 1442.25 1654.28 1620.2
5652.12 1465.07 1422.18 1613.3 1625.14
5655 1323 1405.94 1607.84 1612.62
5657.87 1429.76 1407.06 1616.7 1610.97
5660.75 1468.41 1416.11 1608.36 1628.04
5663.63 1350.18 1392.17 1659.07 1605.33
5666.5 1357.92 1363.21 1548.54 1594.95
5669.38 1381.54 1373.81 1577.23 1558.74
5672.25 1381.97 1379.57 1550.45 1599.6
5675.13 1375.19 1335.9 1671.13 1590.26
5678 1250.53 1349.12 1549.22 1609.12
5680.88 1421.62 1369.76 1607.02 1576.98
5683.75 1437.11 1428.84 1574.71 1578.89
5686.62 1427.78 1444.55 1554.94 1601.41
5689.5 1468.76 1477.24 1674.59 1637.51
5692.37 1535.19 1476.76 1683.01 1650.34
5695.25 1426.32 1474.94 1593.42 1654.82
5698.12 1463.3 1456.85 1688.04 1657.11
5701 1480.92 1467.38 1689.86 1679.3
5703.87 1457.91 1469.94 1660.02 1666.74
5706.74 1470.98 1462.68 1650.33 1664.61
5709.62 1459.15 1448.84 1683.47 1634.77
5712.49 1416.38 1481.31 1570.52 1669.15
5715.36 1568.39 1467.2 1753.47 1639.68
5718.24 1416.83 1499.16 1595.04 1684.63
5721.11 1512.24 1462.3 1705.39 1646.08
5723.98 1457.82 1439.07 1637.82 1669.43
5726.86 1347.14 1391.56 1665.08 1656.25
5729.73 1369.71 1381.18 1665.83 1643.3
5732.6 1426.7 1426.13 1598.97 1649.18
5735.48 1481.99 1459.18 1682.73 1644.5
5738.35 1468.86 1446.19 1651.79 1673.74
5741.22 1387.72 1431.62 1686.68 1663.1
5744.09 1438.27 1441.06 1650.82 1676.49
5746.97 1497.2 1432.73 1691.95 1668.11
5749.84 1362.71 1430.37 1661.56 1662.68
5752.71 1431.2 1423.46 1634.53 1656.1
5755.58 1476.47 1476.17 1672.23 1676.73
5758.45 1520.83 1484.4 1723.43 1717.41
5761.33 1455.91 1467.89 1756.58 1701.95
5764.2 1426.93 1449.99 1625.83 1664.61
5767.07 1467.12 1482.54 1611.42 1679.45
5769.94 1553.57 1482.75 1801.11 1688.88
5772.81 1427.56 1479.84 1654.1 1707.17
5775.68 1458.4 1440.4 1666.3 1683.56
5778.55 1435.25 1444.57 1730.28 1665.95
5781.43 1440.05 1398.46 1601.25 1646.56
5784.3 1320.08 1427.99 1608.15 1649.43
5787.17 1523.83 1428.93 1738.89 1664.35
5790.04 1442.87 1477.15 1646.02 1676.39
5792.91 1464.75 1458.97 1644.27 1645.2
5795.78 1469.28 1448.9 1645.3 1654.48
5798.65 1412.67 1459.2 1673.86 1664.12
5801.52 1495.65 1438.17 1673.2 1689.77
5804.39 1406.18 1453.04 1722.24 1675.71
5807.26 1457.28 1453.61 1631.67 1714.56
5810.13 1497.38 1492.48 1789.76 1717.29
5813 1522.78 1542.05 1730.45 1793.77
5815.87 1605.98 1570.14 1861.1 1782.94
5818.74 1581.67 1598.2 1757.26 1811.98
5821.61 1606.95 1570.31 1817.57 1762.38
5824.48 1522.32 1521.97 1712.3 1758.1
5827.34 1436.64 1496.38 1744.43 1728.57
5830.21 1530.17 1510.06 1728.99 1754.09
5833.08 1563.37 1553.83 1788.85 1765.67
5835.95 1567.94 1553.64 1779.19 1760.31
5838.82 1529.62 1530.66 1712.88 1743.22
5841.69 1494.41 1477.9 1737.6 1732.17
5844.56 1409.68 1464.21 1746.02 1751.43
5847.43 1488.55 1492.93 1770.66 1764.7
5850.29 1580.57 1544.98 1777.41 1756.73
5853.16 1565.83 1506.36 1722.13 1724.86
5856.03 1372.67 1468.44 1675.05 1743.28
5858.9 1466.81 1438.37 1832.65 1804.81
5861.77 1475.62 1503.85 1906.74 1846.33
5864.63 1569.13 1501.72 1799.61 1796.69
5867.5 1460.41 1517.17 1683.72 1739.99
5870.37 1521.95 1496.79 1736.65 1714.22
5873.24 1508.01 1528.34 1722.28 1757.96
5876.1 1555.06 1505.55 1814.94 1733.61
5878.97 1453.58 1536.93 1663.6 1760.69
5881.84 1602.15 1464.68 1803.52 1738.16
5884.7 1338.3 1449.19 1747.37 1821.38
5887.57 1407.12 1442.36 1913.25 1820.31
5890.44 1581.66 1496.91 1800.3 1801.82
5893.3 1501.96 1546.97 1691.9 1780.67
5896.17 1557.28 1504.44 1849.8 1741.67
5899.04 1454.07 1503.2 1683.3 1740.65
5901.9 1498.26 1503.5 1688.86 1690.63
5904.77 1558.18 1468.22 1699.72 1705.48
5907.63 1348.21 1489.35 1727.85 1735.18
5910.5 1561.66 1469.01 1777.96 1742.51
5913.37 1497.15 1485.38 1721.73 1764.38
5916.23 1397.33 1492.11 1793.44 1779.92
5919.1 1581.84 1493.72 1824.61 1830.49
5921.96 1501.99 1588.1 1873.43 1868.96
5924.83 1680.47 1563.52 1908.85 1874.86
5927.69 1508.1 1615.52 1842.31 1875.26
5930.56 1658 1553.12 1874.62 1831.87
5933.42 1493.26 1563.05 1778.66 1793.12
5936.29 1537.9 1531.75 1726.08 1764.4
5939.15 1564.09 1531.44 1788.45 1756.23
5942.02 1492.34 1515.57 1754.17 1754.99
5944.88 1490.29 1507.54 1722.33 1758.7
5947.74 1540 1538.98 1799.58 1786.95
5950.61 1586.66 1550.85 1838.92 1788.25
5953.47 1525.88 1552.1 1726.26 1776.46
5956.34 1543.77 1503 1764.19 1761.82
5959.2 1439.36 1518.58 1795 1803.62
5962.06 1572.59 1546.57 1851.68 1836.03
5964.93 1627.74 1593.3 1861.43 1839.79
5967.79 1579.58 1531.98 1806.28 1815.41
5970.65 1388.63 1509.77 1778.53 1772.23
5973.52 1561.12 1435.48 1731.89 1694.97
5976.38 1356.7 1400.79 1574.51 1598
5979.24 1284.56 1326.98 1487.6 1526.53
5982.11 1339.69 1298.48 1517.47 1549.02
5984.97 1271.2 1338.28 1641.99 1581.21
5987.83 1403.94 1366.97 1584.18 1631.24
5990.69 1425.77 1408.97 1667.56 1623.32
5993.56 1397.22 1434.57 1618.22 1666.72
5996.42 1480.73 1453.86 1714.4 1690.35
5999.28 1483.64 1509.14 1738.44 1769.01
6002.14 1563.03 1513.17 1854.2 1793.15
6005 1492.85 1505.27 1786.82 1802.58
6007.86 1459.92 1469.81 1766.72 1742.71
6010.73 1456.67 1479.23 1674.6 1741.74
6013.59 1521.09 1506.17 1783.89 1763.62
6016.45 1540.76 1536.93 1832.37 1810.63
6019.31 1548.93 1550.84 1815.61 1840.49
6022.17 1562.83 1495.57 1873.48 1818.26
6025.03 1374.94 1502.33 1765.7 1833.22
6027.89 1569.24 1481.93 1860.48 1805.94
6030.75 1501.61 1527.18 1791.64 1810.71
6033.61 1510.69 1502.04 1779.99 1786.69
6036.47 1493.81 1503.35 1788.44 1786.31
6039.33 1505.54 1508.3 1790.51 1790.4
6042.2 1525.56 1500.26 1792.25 1777.24
6045.06 1469.67 1523.49 1748.97 1788.92
6047.92 1575.24 1522.15 1825.53 1799.26
6050.77 1521.54 1546.6 1823.28 1861.34
6053.63 1543.03 1549.94 1935.21 1861.78
6056.49 1585.24 1503.34 1826.85 1837.8
6059.35 1381.76 1470.39 1751.34 1767.56
6062.21 1444.19 1451.77 1724.5 1745.54
6065.07 1529.37 1514.4 1760.78 1770.58
6067.93 1569.65 1552.48 1826.47 1788.58
6070.79 1558.41 1571.94 1778.5 1827.4
6073.65 1587.77 1545.51 1877.24 1816.66
6076.51 1490.35 1512.13 1794.24 1844.29
6079.37 1458.27 1489.28 1861.4 1828.31
6082.22 1519.21 1490.04 1829.29 1819.98
6085.08 1492.65 1499.09 1769.27 1786.21
6087.94 1485.4 1519.62 1760.09 1805.15
6090.8 1580.8 1516.27 1886.09 1801.08
6093.66 1482.62 1551.86 1757.05 1840.22
6096.51 1592.17 1519.97 1877.52 1803.92
6099.37 1485.13 1486.08 1777.18 1808.71
6102.23 1380.92 1484.35 1771.43 1801.36
6105.09 1587 1481.89 1855.47 1800.69
6107.94 1477.76 1542.89 1775.17 1827.1
6110.8 1563.91 1490.86 1850.65 1775.28
6113.66 1430.9 1507.33 1700.03 1779.62
6116.52 1527.17 1471.12 1788.17 1777.36
6119.37 1455.28 1509.76 1843.87 1819.56
6122.23 1546.82 1503.41 1826.64 1860.78
6125.09 1508.13 1544.37 1911.83 1863.59
6127.94 1578.17 1536.92 1852.28 1884.66
6130.8 1524.48 1569.44 1889.87 1879.01
6133.65 1605.68 1581.96 1894.88 1892.35
6136.51 1615.73 1563.42 1892.29 1869.65
6139.37 1468.84 1553.43 1821.76 1855.65
6142.22 1575.7 1526.25 1852.89 1838.74
6145.08 1534.21 1527.81 1841.56 1866.81
6147.93 1473.53 1533.26 1905.97 1873.99
6150.79 1592.03 1542.38 1874.43 1884.03
6153.64 1561.59 1543.18 1871.67 1861.41
6156.5 1475.92 1551.98 1838.12 1866.3
6159.35 1618.43 1535.17 1889.12 1837.42
6162.21 1511.16 1538.45 1785.03 1853.62
6165.06 1485.76 1535.57 1886.71 1843.54
6167.92 1609.79 1577.8 1858.88 1890.42
6170.77 1637.86 1562.79 1925.68 1866.37
6173.63 1440.72 1502.77 1814.56 1851.27
6176.48 1429.72 1471.91 1813.57 1836.98
6179.33 1545.28 1497.87 1882.81 1871.25
6182.19 1518.62 1542.62 1917.38 1890.61
6185.04 1563.96 1547.61 1871.63 1880.95
6187.9 1560.24 1537.77 1853.84 1822.45
6190.75 1489.12 1548.8 1741.87 1818.11
6193.6 1597.03 1523.33 1858.63 1788.09
6196.46 1483.85 1515.96 1763.77 1785.33
6199.31 1467 1505.4 1733.58 1779.21
6202.16 1565.35 1487.47 1840.29 1788.36
6205.01 1430.05 1500.22 1791.21 1815.49
6207.87 1505.25 1504.68 1814.96 1831.8
6210.72 1578.72 1488.11 1889.23 1829.02
6213.57 1380.37 1487.63 1782.88 1815.92
6216.43 1503.79 1499.65 1775.66 1810.87
6219.28 1614.8 1554.48 1874.07 1822.74
6222.13 1544.85 1496.35 1818.48 1806.78
6224.98 1329.4 1438.08 1727.8 1794.49
6227.83 1439.98 1415.86 1837.18 1773.65
6230.68 1478.22 1478.49 1755.97 1774.94
6233.54 1517.28 1506.62 1731.66 1756.32
6236.39 1524.36 1555.67 1781.32 1795.07
6239.24 1625.38 1565.85 1872.23 1822.01
6242.09 1547.81 1570.27 1812.49 1819.15
6244.94 1537.6 1547.06 1772.74 1790.34
6247.79 1555.78 1478.94 1785.8 1765.47
6250.64 1343.43 1395.16 1737.87 1728
6253.49 1286.27 1350.66 1660.33 1698.95
6256.34 1422.28 1368.23 1698.65 1678.08
6259.19 1396.16 1427.03 1675.27 1704.96
6262.04 1462.66 1433.66 1740.98 1717.57
6264.89 1442.15 1442.34 1736.45 1723.79
6267.74 1422.23 1446.02 1693.95 1734.14
6270.59 1473.68 1433.21 1772.02 1742.79
6273.44 1403.72 1453.51 1762.39 1766.8
6276.29 1483.14 1455.42 1766.01 1753.85
6279.14 1479.4 1414.72 1733.14 1734.45
6281.99 1281.62 1416.16 1704.19 1734.64
6284.84 1487.47 1346.16 1766.58 1708
6287.69 1269.4 1417.64 1653.22 1747.41
6290.54 1496.05 1421.73 1822.41 1727.67
6293.39 1499.72 1367.95 1707.38 1763.39
6296.24 1108.07 1380.93 1760.39 1747.08
6299.08 1534.99 1390.79 1773.48 1775.34
6301.93 1529.32 1505.72 1792.15 1765.44
6304.78 1452.86 1455.97 1730.68 1714.86
6307.63 1385.74 1417.81 1621.76 1679.79
6310.48 1414.83 1415.93 1686.92 1678.42
6313.32 1447.21 1357.1 1726.58 1685.66
6316.17 1209.26 1348.8 1643.49 1705.49
6319.02 1389.93 1360.97 1746.41 1709.79
6321.87 1483.72 1452.76 1739.48 1737.48
6324.71 1484.64 1505.4 1726.55 1755.72
6327.56 1547.83 1454.46 1801.14 1709.01
6330.41 1330.91 1441.73 1599.34 1700.95
6333.25 1446.45 1427.35 1702.37 1690.07
6336.1 1504.67 1473.8 1768.49 1747.9
6338.95 1470.28 1437.52 1772.83 1709.41
6341.79 1337.62 1436.65 1586.9 1687.75
6344.64 1502.06 1447.14 1703.53 1691.03
6347.49 1501.76 1478.79 1782.67 1720.82
6350.33 1432.57 1472.69 1676.26 1731.68
6353.18 1483.75 1473.9 1736.12 1704.12
6356.02 1505.38 1511.52 1699.98 1755.03
6358.87 1545.43 1534.25 1829 1790.8
6361.71 1551.94 1532.65 1843.42 1813.7
6364.56 1500.59 1452.26 1768.68 1782.06
6367.4 1304.25 1422.19 1734.08 1734.82
6370.25 1461.72 1384.01 1701.7 1755.74
6373.09 1386.05 1430.38 1831.45 1734.41
6375.94 1443.38 1391.06 1670.08 1714.01
6378.78 1343.77 1458.14 1640.51 1709.58
6381.63 1587.28 1450.31 1818.16 1739.78
6384.47 1419.9 1503.44 1760.67 1773.42
6387.32 1503.15 1456.96 1741.41 1725.42
6390.16 1447.84 1480.28 1674.19 1719.39
6393 1489.84 1470.21 1742.56 1723.6
6395.85 1472.94 1475.96 1754.05 1738.86
6398.69 1465.11 1498.67 1719.98 1758.2
6401.53 1557.97 1515.12 1800.58 1768.88
6404.38 1522.28 1522.59 1786.09 1792.19
6407.22 1487.52 1505.14 1789.89 1784.88
6410.06 1505.62 1498.43 1778.64 1785.65
6412.91 1502.16 1464.91 1788.41 1740.85
6415.75 1386.94 1477.83 1655.49 1756.01
6418.59 1544.38 1467.56 1824.13 1740.15
6421.43 1471.36 1539.39 1740.84 1824.54
6424.28 1602.44 1471.2 1908.65 1771.51
6427.12 1339.81 1486.08 1665.03 1788.45
6429.96 1515.97 1413.61 1791.67 1709.65
6432.8 1385.06 1481.28 1672.25 1733.74
6435.64 1542.81 1489.57 1737.3 1730.82
6438.49 1540.85 1522.17 1782.91 1749.29
6441.33 1482.86 1507.69 1727.65 1747.49
6444.17 1499.37 1474.63 1731.91 1712.83
6447.01 1441.68 1481.31 1678.92 1718.6
6449.85 1502.89 1481.35 1744.97 1737.27
6452.69 1499.47 1477.16 1787.93 1746.32
6455.53 1429.11 1444.77 1706.06 1752.06
6458.37 1405.72 1370.89 1762.19 1708.17
6461.21 1277.83 1339.06 1656.28 1716.28
6464.05 1333.61 1363.39 1730.39 1713.66
6466.89 1478.74 1381.22 1754.31 1750.15
6469.73 1331.32 1413.83 1765.74 1777.5
6472.57 1431.44 1386.7 1812.45 1779.79
6475.41 1397.34 1454.06 1761.18 1780.07
6478.25 1533.41 1501.44 1766.58 1780.68
6481.09 1573.56 1554.3 1814.27 1795.29
6483.93 1555.93 1553.23 1805.02 1800.42
6486.77 1530.22 1497.58 1781.96 1746.58
6489.61 1406.59 1454.96 1652.76 1705.29
6492.45 1428.07 1425.91 1681.15 1673.17
6495.29 1443.06 1470.52 1685.6 1722
6498.12 1540.44 1489.02 1799.25 1754.04
6500.96 1483.58 1513.75 1777.27 1783.97
6503.8 1517.23 1454.94 1775.4 1757.15
6506.64 1364.02 1433.64 1718.77 1709.44
6509.48 1419.67 1374.68 1634.14 1655.31
6512.31 1340.34 1396.12 1613 1622.36
6515.15 1428.36 1367.32 1619.93 1639.68
6517.99 1333.27 1415.57 1686.11 1682.82
6520.83 1485.07 1427.57 1742.43 1713.12
6523.66 1464.38 1498.75 1710.82 1760.16
6526.5 1546.8 1469.59 1827.23 1732.41
6529.34 1397.6 1488.6 1659.17 1757.63
6532.17 1521.4 1443.04 1786.49 1702.82
6535.01 1410.11 1454.46 1662.79 1714.51
6537.85 1431.88 1466.07 1694.24 1721.92
6540.68 1556.21 1497.06 1808.72 1743.58
6543.52 1503.1 1510.71 1727.77 1744.72
6546.36 1472.83 1432.66 1697.67 1696.81
6549.19 1322.04 1373.65 1665 1699.65
6552.03 1326.07 1310.22 1736.27 1687.01
6554.86 1282.56 1376.11 1659.77 1728.23
6557.7 1519.7 1378.63 1788.65 1719.3
6560.53 1333.63 1402.11 1709.48 1740.28
6563.37 1353 1365.99 1722.72 1726
6566.2 1411.35 1412.66 1745.79 1714.56
6569.04 1473.63 1453.73 1675.16 1691.28
6571.87 1476.21 1487.4 1652.88 1702.21
6574.71 1512.36 1512.23 1778.6 1742.76
6577.54 1548.12 1492.74 1796.78 1739.14
6580.38 1417.73 1482.44 1642.03 1714.35
6583.21 1481.46 1485.65 1704.24 1706.51
6586.04 1557.77 1486.68 1773.27 1710.88
6588.88 1420.81 1456.61 1655.12 1679.58
6591.71 1391.24 1413.38 1610.35 1642.06
6594.54 1428.1 1445.13 1660.71 1670.6
6597.38 1516.05 1469.81 1740.75 1684.67
6600.21 1465.29 1486.41 1652.56 1700.05
6603.04 1477.88 1486.98 1706.84 1705.9
6605.88 1517.77 1486.6 1758.31 1717.12
6608.71 1464.16 1525.96 1686.21 1753.54
6611.54 1595.97 1506.83 1816.11 1722.93
6614.37 1460.35 1558.4 1666.47 1795.43
6617.21 1618.88 1541.71 1903.7 1784.63
6620.04 1545.9 1550.95 1783.73 1814.84
6622.87 1488.08 1535.82 1757.09 1784.29
6625.7 1573.48 1524.44 1812.04 1766.98
6628.53 1511.76 1541.89 1731.81 1778.4
6631.37 1540.41 1536.73 1791.36 1772.59
6634.2 1558.03 1531.14 1794.61 1768.16
6637.03 1494.97 1554.64 1718.51 1805.15
6639.86 1610.92 1562.02 1902.33 1820.29
6642.69 1580.17 1606.12 1840.02 1910.77
6645.52 1627.26 1634.1 1989.98 1925.68
6648.35 1694.87 1628.01 1947.05 1946
6651.18 1561.91 1665.38 1900.96 1946.43
6654.01 1739.37 1822.43 1991.28 2135.96
6656.84 2166.01 2127.99 2515.65 2473.82
6659.67 2478.6 2414.7 2914.52 2818.63
6662.5 2599.5 2531.13 3025.71 2924.03
6665.33 2515.31 2416.91 2831.86 2755.87
6668.16 2135.93 2186.56 2410.04 2477.38
6670.99 1908.44 1932.42 2190.26 2201.09
6673.82 1752.9 1807.75 2002.99 2067.54
6676.65 1761.89 1776.78 2009.37 2068.13
6679.48 1815.56 1789.19 2192.05 2125.71
6682.31 1790.13 1840.91 2175.71 2191.57
6685.13 1917.06 1841.82 2206.95 2161.74
6687.96 1818.27 1798.29 2102.56 2071.35
6690.79 1659.54 1704.55 1904.53 1955.01
6693.62 1635.84 1631.41 1857.94 1872.73
6696.45 1598.85 1607.74 1855.71 1843.83
6699.27 1588.52 1575.55 1817.85 1813.48
6702.1 1539.27 1575.54 1766.89 1840.09
6704.93 1598.83 1532.71 1935.52 1818.64
6707.76 1460.03 1536.2 1753.52 1823.58
6710.58 1549.74 1524.72 1781.69 1779.59
6713.41 1564.38 1562.64 1803.56 1801.05
6716.24 1573.8 1590.46 1817.89 1823.38
6719.06 1633.2 1600.92 1848.69 1850
6721.89 1595.77 1607.49 1883.43 1865.62
6724.72 1593.51 1558.59 1864.76 1853.75
6727.54 1486.5 1561.58 1813.05 1836.46
6730.37 1604.73 1526.43 1831.58 1790.47
6733.19 1488.05 1532.48 1726.77 1752.3
6736.02 1504.67 1498.77 1698.56 1725.97
6738.85 1503.58 1529 1752.57 1754.46
6741.67 1578.75 1536.18 1812.25 1775.44
6744.5 1526.21 1533.51 1761.5 1766.3
6747.32 1495.56 1485.88 1725.15 1747.95
6750.15 1435.86 1477.65 1757.2 1728.23
6752.97 1501.52 1523.28 1702.33 1776.54
6755.8 1632.46 1541.16 1870.09 1781.55
6758.62 1489.51 1541.67 1772.24 1773.4
6761.44 1503.05 1541.14 1677.87 1768.46
6764.27 1630.86 1532.75 1855.27 1744.7
6767.09 1464.33 1547.64 1700.98 1796.7
6769.92 1547.74 1483.82 1833.84 1765.92
6772.74 1439.38 1508.45 1762.93 1785.82
6775.56 1538.22 1502.58 1760.7 1743.13
6778.39 1530.12 1535.84 1705.75 1741.4
6781.21 1539.17 1564.07 1757.77 1762.21
6784.03 1622.9 1577.08 1823.12 1803.5
6786.86 1569.17 1605.63 1829.6 1843.45
6789.68 1624.8 1574.02 1877.62 1824.7
6792.5 1528.09 1564.62 1766.89 1821.08
6795.32 1540.95 1533.13 1818.73 1799.28
6798.15 1530.34 1552.18 1812.23 1845.99
6800.97 1585.24 1541 1907.02 1817.19
6803.79 1507.41 1542.78 1732.33 1805.16
6806.61 1535.69 1511.16 1776.14 1757.02
6809.43 1490.38 1520.05 1762.6 1795.08
6812.25 1534.07 1565.74 1846.48 1852.43
6815.08 1672.76 1671.52 1948.21 1950.52
6817.9 1807.72 1725.92 2056.87 1975.53
6820.72 1697.29 1720.01 1921.53 1958.47
6823.54 1655 1666.65 1897.02 1907.08
6826.36 1647.67 1653.42 1902.69 1890.34
6829.18 1657.6 1621.46 1871.3 1846.28
6832 1559.1 1653.53 1764.84 1847.28
6834.82 1743.88 1653.66 1905.7 1851.92
6837.64 1658.01 1652.01 1885.21 1847.86
6840.46 1554.14 1573.32 1752.66 1778.11
6843.28 1507.82 1494.68 1696.47 1719.99
6846.1 1422.09 1425.64 1710.84 1688.83
6848.92 1346.99 1415.52 1659.18 1715.01
6851.74 1477.47 1432.05 1775.02 1705.12
6854.56 1471.67 1432.69 1681.15 1717.55
6857.37 1348.91 1436.01 1696.48 1693.92
6860.19 1487.43 1416.33 1704.14 1677.02
6863.01 1412.63 1307.68 1630.44 1582.16
6865.83 1022.98 1215.86 1411.9 1486.11
6868.65 1211.98 1145.3 1416 1400
6871.47 1200.95 1172.29 1372.09 1380.37
6874.28 1103.94 1131.49 1353.01 1355.13
6877.1 1089.59 1174.54 1340.3 1406.39
6879.92 1330.09 1227.6 1525.84 1470.52
6882.74 1263.13 1318.82 1545.42 1542.52
6885.55 1363.26 1314.5 1556.3 1537.08
6888.37 1317.11 1308.3 1509.52 1538.54
6891.19 1244.54 1304.07 1549.78 1523.42
6894 1350.55 1274.85 1510.96 1533.61
6896.82 1229.45 1304.37 1540.1 1518.16
6899.64 1333.11 1292.64 1503.43 1515.53
6902.45 1315.35 1343.15 1503.06 1526.39
6905.27 1380.99 1369.83 1572.69 1561.26
6908.08 1413.16 1416.35 1608.04 1609.34
6910.9 1454.91 1459.17 1647.29 1666.2
6913.72 1509.45 1465.18 1743.27 1675.38
6916.53 1431.18 1467.71 1635.57 1675.88
6919.35 1462.49 1433.57 1648.79 1610.6
6922.16 1407.05 1455.44 1547.43 1634.02
6924.98 1496.79 1437.45 1705.84 1617.55
6927.79 1408.52 1448.2 1599.37 1625.94
6930.6 1439.31 1382.23 1572.62 1593.14
6933.42 1298.87 1382.58 1607.43 1574.07
6936.23 1409.57 1373.85 1542.17 1588.43
6939.05 1413.11 1417.7 1615.68 1579.32
6941.86 1430.43 1433.35 1580.09 1613.13
6944.67 1456.5 1416.1 1643.62 1598.04
6947.49 1361.38 1378.01 1570.41 1575.64
6950.3 1316.15 1370.55 1512.89 1560.82
6953.11 1434.11 1389.28 1599.16 1569.93
6955.93 1417.6 1424.09 1597.74 1609.65
6958.74 1420.56 1428.49 1632.03 1622.16
6961.55 1447.3 1435.36 1636.7 1632.79
6964.37 1438.23 1425.82 1629.64 1630.66
6967.18 1391.92 1412.43 1625.66 1613.33
6969.99 1407.15 1416.24 1584.7 1615.68
6972.8 1449.65 1430.66 1636.68 1629.74
6975.61 1435.17 1454.44 1667.84 1658.65
6978.42 1478.5 1445.65 1671.43 1649.4
6981.24 1423.28 1403.18 1608.92 1639.29
6984.05 1307.76 1388.59 1637.53 1625.87
6986.86 1434.72 1377.32 1631.17 1618.26
6989.67 1389.48 1433.25 1586.1 1625.47
6992.48 1475.56 1431.65 1659.15 1617.63
6995.29 1429.92 1436.37 1607.66 1623.21
6998.1 1403.64 1431.46 1602.82 1618.66
7000.91 1460.82 1370.97 1645.5 1599.52
7003.72 1248.46 1355.3 1550.25 1579.46
7006.53 1356.63 1351.01 1542.62 1558.23
7009.34 1447.93 1400.17 1581.81 1580.89
7012.15 1395.94 1420.46 1618.25 1623.5
7014.96 1417.51 1374.52 1670.44 1625.64
7017.77 1310.12 1390.17 1588.22 1632.35
7020.58 1442.89 1388.69 1638.38 1612.57
7023.39 1413.07 1409.91 1611.12 1598.05
7026.2 1373.77 1404.68 1544.65 1589.78
7029 1427.2 1378.83 1613.56 1546.83
7031.81 1335.52 1379.09 1482.27 1549.96
7034.62 1374.55 1378.96 1554.05 1555.51
7037.43 1426.82 1377.94 1630.22 1568.78
7040.24 1332.45 1397.82 1522.08 1570.47
7043.04 1434.18 1397 1559.11 1557.48
7045.85 1424.36 1363.96 1591.24 1551.76
7048.66 1233.33 1356.43 1504.94 1554.79
7051.47 1411.6 1346.17 1568.18 1538.68
7054.27 1393.58 1379.12 1542.92 1552.29
7057.08 1332.19 1370.28 1545.77 1555.7
7059.89 1385.07 1344.87 1578.42 1543.66
7062.69 1317.34 1378.61 1506.8 1582.86
7065.5 1433.43 1364.17 1663.35 1575.84
7068.31 1341.74 1384.8 1557.36 1600.04
7071.11 1379.22 1345.71 1579.41 1552.58
7073.92 1316.18 1366.05 1520.97 1569.62
7076.72 1402.75 1375.56 1608.48 1601.57
7079.53 1407.76 1409.19 1675.25 1619.59
7082.33 1417.07 1400.2 1575.03 1612.74
7085.14 1375.77 1357.17 1587.95 1572.2
7087.94 1278.66 1336.61 1553.62 1572.44
7090.75 1355.4 1328.54 1575.74 1559.68
7093.55 1351.55 1332.67 1549.69 1561.62
7096.36 1291.06 1339.14 1559.43 1539.69
7099.16 1374.8 1326.36 1509.94 1520.9
7101.97 1313.22 1333.43 1493.33 1497.77
7104.77 1312.26 1320.46 1490.05 1513.94
7107.57 1335.89 1325.06 1558.45 1549.97
7110.38 1327.03 1302.26 1601.42 1521
7113.18 1243.87 1303.27 1403.15 1507.78
7115.98 1338.91 1286.03 1518.77 1482.01
7118.79 1275.31 1326.01 1524.11 1532.77
7121.59 1363.82 1328.89 1555.43 1528.37
7124.39 1347.54 1332.26 1505.57 1528.31
7127.19 1285.43 1289.59 1523.94 1489.25
7130 1235.81 1280.69 1438.23 1507.02
7132.8 1320.84 1300.59 1558.9 1508.35
7135.6 1345.13 1350.28 1527.91 1542.01
7138.4 1384.86 1375.75 1539.22 1544.76
7141.2 1397.27 1359.59 1567.16 1540.19
7144 1296.64 1321.27 1514.21 1508.74
7146.81 1269.89 1287.4 1444.85 1461.32
7149.61 1295.66 1295.2 1424.9 1460.15
7152.41 1320.05 1343.16 1510.71 1531.07
7155.21 1413.76 1332.77 1657.6 1556.5
7158.01 1264.51 1339.86 1501.18 1566.99
7160.81 1341.3 1294.31 1542.19 1493.77
7163.61 1277.13 1269.52 1437.94 1452.42
7166.41 1190.14 1219.94 1377.13 1384.47
7169.21 1192.56 1177.04 1338.33 1363.75
7172.01 1148.42 1163.13 1375.8 1315
7174.81 1148.41 1156.56 1230.87 1300.25
7177.61 1172.85 1151.77 1294.1 1271.59
7180.41 1134.05 1155.67 1289.81 1297.54
7183.2 1160.1 1136.97 1308.71 1260.5
7186 1116.75 1120.71 1182.96 1258.61
7188.8 1085.28 1094.59 1284.14 1221.5
7191.6 1081.74 1094.06 1197.39 1228.04
7194.4 1115.15 1106.04 1202.58 1211.33
7197.2 1121.24 1113.6 1234.03 1224.68
7199.99 1104.42 1151.07 1237.44 1294
7202.79 1227.54 1163.9 1410.54 1315.64
7205.59 1159.74 1172.54 1298.95 1323.37
7208.39 1130.35 1193.64 1260.63 1341.83
7211.18 1290.84 1214.1 1465.91 1368.28
7213.98 1221.11 1260.76 1378.29 1420.73
7216.78 1270.33 1253.9 1418 1398.45
7219.57 1270.27 1247.14 1399.06 1366.73
7222.37 1200.82 1218.54 1283.14 1348.88
7225.17 1184.52 1182.41 1364.45 1315.65
7227.96 1161.89 1152.66 1299.35 1301.74
7230.76 1111.59 1163.81 1241.43 1273.15
7233.55 1217.95 1198.71 1278.67 1282.25
7236.35 1266.6 1064.32 1326.66 1258.04
7239.14 708.396 1020.16 1168.8 1224.42
7241.94 1085.47 961.24 1177.8 1179.26
7244.73 1089.85 1078.37 1191.18 1224.51
7247.53 1059.79 1050.47 1304.55 1214.37
7250.32 1001.77 1028.01 1147.39 1250.24
7253.12 1022.48 1044.44 1298.8 1221.09
7255.91 1109.08 1061.07 1217.08 1224.05
7258.71 1051.66 1096.18 1156.26 1208.12
7261.5 1127.81 1092.96 1251.02 1207.31
7264.29 1099.41 1084.26 1214.66 1194.93
7267.09 1025.56 1028.92 1119.1 1186.27
7269.88 961.788 908.708 1225.05 1165.53
7272.67 738.776 809.151 1152.42 1202.78
7275.47 726.888 854.752 1230.86 1217.82
7278.26 1098.59 911.171 1270.17 1251.64
7281.05 908.034 1047.81 1253.88 1279.26
7283.84 1136.79 996.663 1313.73 1273.7
7286.63 945.165 1061.97 1253.49 1278.14
7289.43 1103.96 1082.81 1267.21 1277.32
7292.22 1199.29 1129.34 1311.27 1260.33
7295.01 1084.78 1154.42 1202.51 1257.22
7297.8 1179.2 1125.14 1257.89 1211.4
7300.59 1111.44 1126.1 1173.8 1217.23
7303.38 1087.65 1085.03 1220 1183.07
7306.17 1056 1047.29 1155.41 1196.35
7308.96 998.233 983.985 1213.64 1177.94
7311.76 897.723 994.913 1164.78 1194.35
7314.55 1088.78 1054.09 1204.62 1219.1
7317.34 1175.75 1143.29 1287.91 1276.26
7320.13 1165.33 1188.15 1336.25 1330.5
7322.92 1223.36 1181.4 1367.34 1339.67
7325.7 1155.51 1178.65 1315.43 1307.09
7328.49 1157.07 1161.88 1238.49 1294.07
7331.28 1173.06 1142.8 1328.29 1309.47
7334.07 1098.26 1123.56 1361.63 1285.91
7336.86 1099.35 1024.16 1167.8 1284.27
7339.65 874.855 1032.45 1323.37 1255.95
7342.44 1123.14 985.92 1276.68 1318.17
7345.23 959.762 1044.12 1354.45 1321.1
7348.01 1049.45 1026.48 1332.19 1315.82
7350.8 1070.24 1081.15 1260.83 1258.9
7353.59 1123.75 1140.04 1183.67 1245.92
7356.38 1226.12 1188.77 1293.27 1254.22
7359.16 1216.42 1193.07 1285.73 1246.02
7361.95 1136.66 1171.28 1159.05 1238.03
7364.74 1160.75 1090.59 1269.33 1218.74
7367.52 974.363 1129.09 1227.83 1270.07
7370.31 1252.16 1134.13 1313.07 1291.14
7373.1 1175.87 1173.18 1332.53 1290.19
7375.88 1091.51 1158.84 1224.98 1286.43
7378.67 1209.14 1149.85 1301.79 1263.36
7381.46 1148.89 1165.01 1263.31 1268.15
7384.24 1137.01 1164.61 1239.35 1246.79
7387.03 1207.94 1181.36 1237.71 1240.84
7389.81 1199.13 1178.99 1245.46 1234.98
7392.6 1129.89 1173.36 1221.78 1227.03
7395.38 1191.06 1165.97 1213.84 1231.86
7398.17 1176.95 1159.52 1259.97 1222.63
7400.95 1110.55 1169.41 1194.09 1266.16
7403.73 1220.73 1198.64 1344.4 1280.36
7406.52 1264.65 1219.85 1302.58 1306.47
7409.3 1174.18 1204.4 1272.42 1263.63
7412.09 1174.37 1166.59 1215.89 1224.92
7414.87 1151.21 1148.56 1186.46 1210.98
7417.65 1120.11 1160.38 1230.61 1222.56
7420.44 1209.83 1163.82 1250.61 1222.55
7423.22 1161.51 1187.79 1186.42 1225.8
7426 1192.03 1177.8 1240.37 1202.12
7428.78 1179.88 1177.8 1179.58 1247.05
7431.57 1161.5 1175.87 1321.21 1240.93
7434.35 1186.24 1171.91 1222.01 1258.11
7437.13 1168 1203.95 1231.1 1249.01
7439.91 1257.59 1209.08 1293.92 1258.06
7442.69 1201.65 1222.84 1249.15 1282.98
7445.48 1209.28 1195.14 1305.88 1271.54
7448.26 1174.49 1188.32 1259.59 1283.16
7451.04 1181.18 1158.87 1283.99 1254.43
7453.82 1120.94 1176.46 1219.71 1252.85
7456.6 1227.26 1161.38 1254.84 1233.9
7459.38 1135.94 1184.4 1227.15 1234.09
7462.16 1189.99 1188.12 1220.28 1243.06
7464.94 1238.43 1190.73 1281.73 1265.68
7467.72 1143.78 1169.24 1295.01 1228.14
7470.5 1125.51 1150.77 1107.68 1209.76
7473.28 1183.01 1186.23 1226.58 1209.46
7476.06 1250.18 1199 1294.13 1246.77
7478.84 1163.8 1224.09 1219.59 1260.44
7481.62 1258.29 1193.43 1267.61 1234.16
7484.39 1158.19 1163.9 1215.27 1241.44
7487.17 1075.23 1135.04 1241.45 1254.82
7489.95 1171.7 1133.26 1307.76 1235.72
7492.73 1152.86 1147.66 1157.96 1221.06
7495.51 1118.4 1124.42 1197.47 1173.68
7498.28 1102.01 1122.65 1165.6 1197.48
7501.06 1147.54 1143.43 1229.36 1203.52
7503.84 1180.74 1156.6 1215.59 1214.12
7506.62 1141.54 1161.89 1197.41 1231.97
7509.39 1163.39 1150.24 1282.92 1221.27
7512.17 1145.79 1176.61 1183.47 1230.8
7514.95 1220.66 1146.66 1225.99 1205.14
7517.72 1073.54 1171.26 1205.96 1218.61
7520.5 1219.59 1073.59 1223.88 1198.58
7523.27 927.654 1069.48 1165.91 1187.52
7526.05 1061.19 1024.51 1172.77 1218.09
7528.83 1084.69 1089.75 1315.59 1233.48
7531.6 1123.37 1131.5 1212.09 1247.13
7534.38 1186.44 1128.2 1213.71 1170.08
7537.15 1074.8 1125.3 1084.44 1156.22
7539.93 1114.66 1113.28 1170.5 1135.74
7542.7 1150.38 1121.94 1152.27 1161.09
7545.47 1100.8 1127.13 1160.5 1153.62
7548.25 1130.23 1119.79 1148.08 1146.52
7551.02 1128.33 1121.48 1130.99 1129.13
7553.8 1105.88 1121.44 1108.33 1123.28
7556.57 1130.11 1095.03 1130.53 1123.97
7559.34 1049.1 1124.72 1133.05 1171.93
7562.12 1194.94 1124.66 1252.21 1183.9
7564.89 1129.95 1172.81 1166.43 1205.44
7567.66 1193.55 1103.71 1197.69 1165.33
7570.43 987.64 1108.65 1131.88 1151.62
7573.21 1144.76 1086.29 1125.3 1148.15
7575.98 1126.47 1120.47 1187.28 1135.92
7578.75 1090.18 1115.64 1095.18 1156.62
7581.52 1130.28 1079.51 1187.4 1134.29
7584.29 1018.06 1072.77 1120.29 1137.84
7587.07 1069.95 1008.94 1105.85 1079.77
7589.84 938.806 931.684 1013.19 976.858
7592.61 786.291 728.557 811.537 782.716
7595.38 460.576 576.918 523.422 591.939
7598.15 483.888 430.076 440.856 427.402
7600.92 345.764 376.102 317.926 349.116
7603.69 298.653 337.699 288.566 316.895
7606.46 368.681 361.818 344.192 342.095
7609.23 418.119 446.338 393.526 424.202
7612 552.214 566.829 534.888 560.754
7614.77 730.154 670.532 753.848 669.688
7617.54 729.227 718.692 720.329 729.164
7620.31 696.696 686.16 713.314 709.888
7623.08 632.557 641.059 696.02 668.194
7625.84 593.925 618.947 595.249 622.673
7628.61 630.36 617.361 576.749 597.209
7631.38 627.797 624.666 619.63 595.85
7634.15 615.841 637.41 591.17 622.23
7636.92 668.592 673.168 655.888 660.74
7639.68 735.072 693.48 735.16 694.957
7642.45 676.777 716.69 693.823 727.18
7645.22 738.22 729.529 752.557 728.127
7647.99 773.589 758.348 738.002 768.678
7650.75 763.234 800.255 815.475 813.968
7653.52 863.941 822.513 888.427 867.957
7656.28 840.364 884.373 899.969 909.049
7659.05 948.814 893.641 938.752 934.027
7661.82 891.745 930.893 963.361 937.951
7664.58 952.118 941.976 911.739 952.752
7667.35 982.064 988.07 983.155 975.155
7670.11 1030.03 1007.29 1030.57 994.41
7672.88 1009.78 1011.76 969.505 1004.64
7675.64 995.467 1003.48 1013.84 978.738
7678.41 1005.18 1000.77 952.867 991.179
7681.17 1001.67 994.189 1006.83 985.876
7683.94 975.712 996.875 997.931 996.411
7686.7 1013.24 1028.26 984.473 1013.2
7689.47 1095.84 1043.26 1057.2 1005.68
7692.23 1020.69 1030.07 975.358 1001.16
7694.99 973.67 991.654 970.927 988.89
7697.76 980.605 988.138 1020.38 996.813
7700.52 1010.14 973.885 999.128 979.948
7703.28 930.91 999.473 920.33 977.057
7706.04 1057.37 1041.55 1011.71 986.092
7708.81 1136.37 1074.66 1026.23 989.049
7711.57 1030.25 932.708 929.201 980.103
7714.33 631.501 740.225 984.875 954.735
7717.09 558.922 601.528 950.13 967.012
7719.85 614.162 696.771 966.03 965.471
7722.62 917.228 784.204 980.255 963.049
7725.38 821.223 917.95 942.863 972.715
7728.14 1015.4 938.422 995.027 964.894
7730.9 978.645 996.921 956.792 979.496
7733.66 996.72 1000.9 986.67 972.69
7736.42 1027.34 1009.44 974.609 971.46
7739.18 1004.26 985.88 953.102 965.652
7741.94 926.039 995.266 969.245 949.947
7744.7 1055.5 987.666 927.494 929.603
7747.46 981.46 1019.21 892.071 914.931
7750.22 1020.67 879.431 925.228 947.882
7752.98 636.167 799.846 1026.35 972.223
7755.74 742.705 786.757 965.092 1001.52
7758.5 981.4 883.739 1013.13 984.717
7761.25 927.111 953.627 975.927 991.732
7764.01 952.37 932.673 986.136 982.637
7766.77 918.537 972.642 985.849 994.341
7769.53 1047.02 973.357 1011.04 978.209
7772.29 954.515 946.159 937.738 944.183
7775.04 836.942 890.162 883.772 880.178
7777.8 879.031 867.374 819.025 860.592
7780.56 886.148 855.196 878.979 864.655
7783.31 800.41 869.165 895.962 893.041
7786.07 920.937 854.656 904.183 901.484
7788.83 842.622 915.508 904.306 888.265
7791.58 982.966 943.711 856.307 911.765
7794.34 1005.54 906.628 974.681 910.903
7797.1 731.373 880.8 901.72 927.165
7799.85 905.482 883.595 905.093 921.269
7802.61 1013.93 920.95 956.993 890.231
7805.36 843.437 941.059 808.608 889.084
7808.12 965.809 910.865 901.65 885.976
7810.87 923.349 892.161 947.669 891.787
7813.63 787.324 779.18 826.043 857.277
7816.38 626.867 805.794 798.119 836.608
7819.13 1003.19 873.002 885.663 853.167
7821.89 988.951 966.753 875.72 895.237
7824.64 908.118 927.736 924.329 878.611
7827.4 886.139 910.02 835.784 884.534
7830.15 935.803 913.774 893.489 878.295
7832.9 919.379 905.433 905.612 880.599
7835.65 861.115 899.889 842.696 885.871
7838.41 919.171 902.315 909.305 886.926
7841.16 926.66 927.682 908.778 912.609
7843.91 937.215 947.943 919.743 915.442
7846.66 979.954 962.448 917.806 907.86
7849.42 970.176 970.144 886.031 891.817
7852.17 960.303 910.456 871.613 842.415
7854.92 800.888 848.384 769.601 802.987
7857.67 783.96 818.39 767.748 781.842
7860.42 870.321 839.602 808.176 810.344
7863.17 864.526 796.024 855.109 823.696
7865.92 653.227 731.496 807.803 814.487
7868.67 676.737 663.67 780.55 803.974
7871.42 661.046 767.892 823.569 836.879
7874.17 965.894 761.701 906.519 853.523
7876.92 658.164 764.892 830.481 866.366
7879.67 670.617 677.431 862.099 856.151
7882.42 703.512 728.989 875.873 825.06
7885.17 812.839 825.718 737.209 839.02
7887.92 960.804 872.853 903.978 790.238
7890.67 844.917 872.104 729.528 824.377
7893.42 810.592 812.738 839.625 788.642
7896.16 782.704 788.885 796.772 825.009
7898.91 773.359 808.735 838.629 823.447
7901.66 870.142 813.198 834.941 812.374
7904.41 796.092 815.589 763.552 771.434
7907.15 780.534 836.077 715.809 776.171
7909.9 931.605 689.893 849.152 764.811
7912.65 357.542 730.747 729.471 795.599
7915.39 903.095 720.102 808.174 813.737
7918.14 899.668 878.853 903.566 829.224
7920.89 833.796 816.507 775.933 873.25
7923.63 716.057 818.091 940.25 854.975
7926.38 904.419 824.331 848.743 857.177
7929.12 852.517 876.047 782.537 831.9
7931.87 871.204 883.672 864.42 836.331
7934.62 927.294 854.932 862.035 843.392
7937.36 766.299 853.205 803.721 823.122
7940.1 866.023 825.35 803.609 786.452
7942.85 843.728 877.906 752.026 789.281
7945.59 923.966 873.598 812.208 775.484
7948.34 853.102 836.88 762.22 768.969
7951.08 733.573 804.355 732.48 754.516
7953.83 826.391 763.278 768.847 767.887
7956.57 729.871 803.995 802.334 788.714
7959.31 855.723 815.176 794.962 782.408
7962.05 859.936 834.166 749.926 768.816
7964.8 786.84 705.459 761.56 734.209
7967.54 469.601 697.472 691.14 748.32
7970.28 835.976 687.981 792.26 738.439
7973.02 758.365 755.094 731.917 752.745
7975.77 670.942 760.081 734.059 754.418
7978.51 850.934 789.639 797.279 777.563
7981.25 847.04 799.423 801.351 769.61
7983.99 700.294 738.653 710.2 767.003
7986.73 668.625 760.537 789.459 742.535
7989.47 912.693 832.069 727.945 734.574
7992.21 914.889 858.132 686.319 713.684
7994.95 746.815 807.01 726.789 714.894
7997.69 759.326 770.959 731.574 734.958
8000.43 806.737 786.913 746.511 734.548
8003.17 794.677 797.556 725.558 736.447
8005.91 791.254 792.964 737.272 728.812
8008.65 792.962 795.672 723.605 745.811
8011.39 802.798 788.448 776.558 746.492
8014.13 769.582 748.854 739.314 733.445
8016.87 674.182 733.314 684.464 721.519
8019.61 756.177 710.705 740.78 691.41
8022.34 701.757 695.773 648.985 718.408
8025.08 629.384 708.558 765.457 702.351
8027.82 794.533 734.49 692.611 751.34
8030.56 779.554 749.583 795.951 715.152
8033.29 674.663 716.055 656.894 717.869
8036.03 693.949 715.972 700.762 686.605
8038.77 779.304 751.436 702.157 714.064
8041.51 781.055 769.563 739.274 715.666
8044.24 748.332 756.733 705.565 715.399
8046.98 740.811 750.419 701.359 692.649
8049.71 762.115 780.999 671.023 711.908
8052.45 840.071 791.921 763.341 724.182
8055.18 773.577 791.416 738.182 725.886
8057.92 760.601 743.921 676.134 672.774
8060.65 697.586 701.788 604.005 659.494
8063.39 647.177 683.832 698.343 679.87
8066.12 706.734 706.731 737.263 728.556
8068.86 766.282 753.452 750.062 741.613
8071.59 787.338 761.633 737.515 734.046
8074.33 731.279 770.407 714.561 707.995
8077.06 792.604 753.03 671.91 694.687
8079.79 735.208 772.263 697.591 712.301
8082.53 788.976 754.268 767.402 742.87
8085.26 738.621 770.162 763.616 755.172
8087.99 782.889 786.147 734.498 757.98
8090.73 836.931 800.721 775.825 741.437
8093.46 782.344 803.26 713.988 732.731
8096.19 790.503 769.701 708.38 704.474
8098.92 736.256 729.372 691.053 689.631
8101.65 661.356 716.794 669.458 682.816
8104.38 752.77 729.24 687.935 679.011
8107.12 773.596 741.072 679.639 675.541
8109.85 696.851 750.278 659.049 675.703
8112.58 780.386 735.174 688.42 665.835
8115.31 728.286 778.271 650.036 689.96
8118.04 826.142 758.754 731.426 673.603
8120.77 721.834 752.854 639.349 670.996
8123.5 710.586 727.374 642.213 647.231
8126.23 749.701 719.043 660.13 647.196
8128.96 696.843 734.593 639.244 657.366
8131.69 757.236 714.909 672.724 645.758
8134.42 690.649 725.643 625.305 643.097
8137.14 729.043 686.729 631.262 616.262
8139.87 640.493 684.09 592.218 612.949
8142.6 682.734 659.513 615.367 596.771
8145.33 655.312 681.046 582.729 614.486
8148.06 705.091 665.143 645.362 617.336
8150.78 635.026 660.869 623.916 619.662
8153.51 642.491 643.955 589.708 592.708
8156.24 654.347 666.485 564.5 582.643
8158.97 702.618 664.73 593.72 585.099
8161.69 637.225 663.628 597.076 584.975
8164.42 651.04 653.928 564.129 582.551
8167.15 673.52 664.033 586.449 570.517
8169.87 667.54 668.473 560.973 578.184
8172.6 664.36 650.705 587.129 574.228
8175.32 620.214 635.734 574.582 592.131
8178.05 622.628 650.562 614.681 605.262
8180.77 708.843 649.296 626.522 606.797
8183.5 616.417 651.358 579.188 583.596
8186.22 628.815 627.322 545.078 560.032
8188.95 636.735 645.741 555.829 569.981
8191.67 671.674 655.557 609.035 580.91
8194.4 658.263 658.076 577.867 587.65
8197.12 644.292 653.01 576.047 590.347
8199.84 656.475 670.415 617.126 607.945
8202.57 710.477 684.934 630.663 608.716
8205.29 687.85 688.993 578.359 593.606
8208.01 668.651 674.2 571.798 587.687
8210.73 666.1 663.987 612.905 583.681
8213.46 657.211 674.031 566.339 597.113
8216.18 698.781 664.917 612.096 574.784
8218.9 638.758 652.027 545.916 554.678
8221.62 618.541 615.686 506.022 525.556
8224.34 589.76 566.196 524.731 483.03
8227.06 490.288 556.504 418.336 480.385
8229.79 589.464 579.658 498.087 491.806
8232.51 659.222 639.976 558.995 539.615
8235.23 671.244 671.711 561.762 564.326
8237.95 684.669 732.945 572.221 586.653
8240.67 842.921 764.519 625.976 607.603
8243.39 765.966 767.082 624.613 624.186
8246.11 692.358 708.047 621.969 621.34
8248.83 665.817 671.663 617.439 609.17
8251.54 656.814 646.708 588.101 584.809
8254.26 617.492 649.704 548.887 572.685
8256.98 674.806 653.296 581.066 567.868
8259.7 667.59 684.519 573.65 578.507
8262.42 711.162 677.217 580.806 577.382
8265.14 652.9 678.634 577.691 584.508
8267.85 671.84 676.111 595.028 599.972
8270.57 703.593 685.437 627.199 603.24
8273.29 680.878 698.138 587.493 604.968
8276.01 709.943 690.123 600.211 574.767
8278.72 679.549 659.076 536.596 530.73
8281.44 587.736 650.455 455.381 513.573
8284.16 684.079 541.223 548.741 507.787
8286.87 351.853 550.465 519.24 557.68
8289.59 615.465 531.673 605.059 581.334
8292.3 627.702 619.652 619.703 584.393
8295.02 615.79 543.368 528.418 590.017
8297.73 386.612 592.839 621.929 599.66
8300.45 776.114 594.387 648.633 621.24
8303.16 620.435 694.866 593.159 635.796
8305.88 688.049 670.131 665.596 615.146
8308.59 701.91 702.684 586.685 620.687
8311.31 718.092 695.049 609.782 595.713
8314.02 665.145 688.103 590.672 577.129
8316.73 681.074 672.584 530.933 566.358
8319.45 671.534 673.482 577.47 569.835
8322.16 667.838 671.823 601.103 590.222
8324.87 676.097 674.811 592.092 599.22
8327.58 680.497 681.231 604.464 593.293
8330.3 687.097 664.478 583.323 570.448
8333.01 625.839 626.685 523.559 550.699
8335.72 567.118 603.268 545.217 538.524
8338.43 616.848 605.526 546.798 504.648
8341.14 632.61 599.818 421.931 484.968
8343.85 549.995 655.439 486.174 516.193
8346.56 783.713 463.818 640.474 578.429
8349.28 57.7448 510.335 608.637 641.578
8351.99 689.546 451.098 675.623 573.1
8354.7 606.004 643.279 435.038 589.202
8357.41 634.286 575.968 656.943 544.992
8360.12 487.614 594.386 542.995 577.728
8362.82 661.258 630.111 533.245 550.857
8365.53 741.459 704.793 576.332 586.428
8368.24 711.663 711.703 649.709 611.605
8370.95 681.987 690.229 608.773 627.461
8373.66 677.038 675.916 623.9 605.247
8376.37 668.722 701.219 583.068 601.301
8379.08 757.897 712.896 596.935 565.509
8381.78 712.069 737.65 516.523 546.467
8384.49 742.983 710.776 525.943 529.84
8387.2 677.276 673.947 547.054 551.799
8389.91 601.58 633.546 582.399 580.475
8392.61 621.783 677.285 611.971 604.142
8395.32 808.491 730.2 618.055 597.141
8398.03 760.324 755.679 561.398 561.703
8400.73 698.222 615.294 505.657 555.661
8403.44 387.335 508.304 599.929 555.09
8406.14 439.356 497.126 559.684 576.522
8408.85 664.687 611.416 569.952 560.548
8411.55 730.205 689.018 552.009 551.662
8414.26 672.163 688.084 533.025 531.593
8416.96 661.884 647.853 509.745 530.56
8419.67 609.513 623.649 548.911 552.444
8422.37 599.551 614.04 598.677 546.686
8425.08 633.055 665.817 492.47 546.598
8427.78 764.846 684.11 548.648 512.36
8430.48 654.427 728.688 495.962 530.052
8433.19 766.792 581.637 545.545 517.27
8435.89 323.692 577.906 510.302 544.45
8438.59 643.234 546.958 577.503 542.112
8441.29 673.95 647.417 538.531 555.414
8444 625.069 635.743 550.207 556.189
8446.7 608.211 628.207 579.83 550.255
8449.4 651.342 637.401 520.727 554.297
8452.1 652.652 646.101 562.333 550.998
8454.8 634.308 646.909 569.935 586.988
8457.5 653.767 638.125 628.695 576.984
8460.2 626.298 672.461 532.321 543.081
8462.91 737.318 676.403 468.227 488.251
8465.61 665.592 681.527 464.204 469.953
8468.31 641.67 663.721 477.428 490.441
8471.01 683.9 655.827 529.69 524.109
8473.7 641.912 631.318 565.209 543.1
8476.4 568.142 636.652 534.401 569.303
8479.1 699.901 635.658 608.298 554.413
8481.8 638.932 652.476 520.539 546.566
8484.5 618.595 634.217 510.861 530.059
8487.2 645.125 648.698 558.778 549.245
8489.9 682.373 664.163 578.096 547.624
8492.59 664.991 671.863 505.998 534.007
8495.29 668.224 647.55 517.928 502.435
8497.99 609.434 654.376 483.38 521.936
8500.69 685.47 678.09 564.499 525.771
8503.38 739.365 691.332 529.434 532.958
8506.08 649.161 690.76 504.94 523.861
8508.78 683.753 656.855 537.21 495.741
8511.47 637.652 647.154 445.072 501.604
8514.17 620.057 634.089 522.53 523.839
8516.86 644.556 623.383 603.916 546.526
8519.56 605.536 636.418 513.132 554.626
8522.25 659.162 650.348 546.829 536.177
8524.95 686.346 652.657 548.569 540.484
8527.64 612.464 655.912 526.054 536.867
8530.34 668.926 664.102 535.978 544.562
8533.03 710.916 699.25 571.655 562.641
8535.73 717.907 686.815 580.291 567.422
8538.42 631.623 650.006 550.319 550.399
8541.11 600.488 632.91 520.586 532.083
8543.81 666.618 656.351 525.344 540.716
8546.5 701.946 686.692 576.216 550.816
8549.19 691.513 668.394 550.888 566.402
8551.89 611.723 635.02 572.101 548.906
8554.58 601.825 630.269 523.727 536.173
8557.27 677.258 643.83 512.689 520.75
8559.96 652.408 673.051 525.832 531.371
8562.65 689.486 667.301 555.592 531.292
8565.34 660.01 667.929 512.453 529.097
8568.03 654.291 679.013 519.247 537.001
8570.73 722.736 687.694 579.304 540.621
8573.42 686.053 701.222 523.313 540.99
8576.11 694.877 679.449 520.353 519.15
8578.8 657.418 657.249 513.785 516.774
8581.49 619.451 645.727 516.184 524.253
8584.17 660.311 647.734 542.789 528.427
8586.86 663.439 673.07 526.309 549.886
8589.55 695.459 687.063 580.56 561.086
8592.24 702.293 698.269 576.389 571.259
8594.93 697.055 668.064 556.828 548.103
8597.62 604.844 673.489 511.09 536.228
8600.31 718.567 676.835 540.765 531.473
8602.99 707.094 683.055 542.564 532.575
8605.68 623.505 647.366 514.397 513.688
8608.37 611.5 634.646 484.102 509.58
8611.06 668.934 644.924 530.239 507.704
8613.74 654.337 682.455 508.771 524.344
8616.43 724.093 700.404 534.023 544.264
8619.11 722.781 662.218 589.998 535.68
8621.8 539.78 655.162 483.019 537.234
8624.49 702.923 632.102 538.686 506.302
8627.17 653.603 601.976 497.201 507.986
8629.86 449.402 584.549 488.071 492.751
8632.54 650.641 526.796 492.981 495.523
8635.23 480.344 633.523 505.517 534.776
8637.91 769.585 613.105 605.829 560.926
8640.6 589.387 664.171 571.432 569.607
8643.28 633.541 622.289 531.559 539.02
8645.96 643.938 633.171 514.071 503.313
8648.65 622.033 674.46 464.309 526.894
8651.33 757.409 682.33 602.304 526.948
8654.01 667.548 648.34 514.23 558.257
8656.69 520.062 639.151 558.237 533.642
8659.38 729.842 634.308 528.458 546.391
8662.06 653.018 675.125 552.479 528.831
8664.74 642.514 637.962 505.557 521.603
8667.42 618.354 577.59 506.775 489.533
8670.1 471.902 561.462 456.267 485.297
8672.79 594.128 535.977 492.848 459.019
8675.47 541.899 585.195 427.943 472.093
8678.15 619.558 575.24 495.487 446.653
8680.83 564.263 584.046 416.531 458.621
8683.51 568.317 573.572 463.844 449.47
8686.19 588.137 614.807 468.036 477.801
8688.87 687.966 661.935 501.524 510.753
8691.55 709.701 686.476 562.699 533.171
8694.23 661.76 674.651 535.29 531.991
8696.9 652.491 669.211 497.983 515.76
8699.58 693.381 703.355 514.006 534.68
8702.26 764.194 713.452 592.05 537.11
8704.94 682.781 715.729 505.274 540.894
8707.62 700.211 702.098 525.357 515.604
8710.29 723.302 688.276 516.181 510.353
8712.97 641.316 681.814 489.522 506.746
8715.65 680.824 647.61 514.536 495.516
8718.33 620.69 683.686 482.492 522.607
8721 749.544 678.872 570.792 514.57
8723.68 666.381 710.49 490.425 527.073
8726.35 715.546 702.459 520.002 522.187
8729.03 725.449 696.113 556.135 512.379
8731.71 647.344 673.534 461.001 503.645
8734.38 647.81 657.53 493.8 488.364
8737.06 677.435 655.664 510.29 497.794
8739.73 641.746 661.934 489.291 492.573
8742.41 666.621 689.45 478.139 510.257
8745.08 759.984 699.32 563.341 523.357
8747.75 671.353 694.211 528.592 540.005
8750.43 651.296 666.569 528.083 521.715
8753.1 677.058 669.829 508.47 527.894
8755.77 681.134 707.567 547.13 569.975
8758.45 764.509 737.4 654.325 573.356
8761.12 766.557 774.234 518.614 607.901
8763.79 791.636 793.31 650.763 609.45
8766.46 821.736 793.272 658.973 650.634
8769.14 766.445 757.03 642.167 614.458
8771.81 682.908 724.198 542.235 624.075
8774.48 723.24 666.927 687.821 579.946
8777.15 594.633 661.224 509.783 546.867
8779.82 665.8 644.499 442.997 482.02
8782.49 673.065 627.874 493.282 504.487
8785.16 544.756 609.587 577.181 546.53
8787.83 610.939 607.067 569.126 541.981
8790.5 665.506 644.793 479.635 508.842
8793.17 657.934 634.93 477.765 464.156
8795.84 581.349 593.339 435.069 431.111
8798.51 540.733 564.81 380.497 427.436
8801.18 572.348 581.188 466.742 441.172
8803.85 630.482 618.511 476.277 482.427
8806.52 652.703 641.483 504.262 494.914
8809.18 641.264 644.945 504.203 505.346
8811.85 640.866 657.013 507.571 505.375
8814.52 688.908 660.173 504.349 497.333
8817.19 650.746 646.763 480.078 510.338
8819.85 600.634 629.266 546.585 574.453
8822.52 636.418 661.454 696.697 672.159
8825.19 747.309 756.761 773.195 732.804
8827.85 886.554 832.926 728.519 652.249
8830.52 864.914 791.184 455.034 512.834
8833.18 622.083 693.826 354.949 465.65
8835.85 594.48 617.232 586.966 444.119
8838.51 635.133 612.516 390.442 453.074
8841.18 607.936 618.182 381.812 412.506
8843.84 611.478 597.256 465.264 445.756
8846.51 572.354 624.294 490.191 497.895
8849.17 689.049 629.418 538.229 512.16
8851.84 626.85 645.584 508.059 523.463
8854.5 620.853 630.809 524.099 510.658
8857.16 644.724 620.757 499.816 472.701
8859.83 596.695 602.6 394.189 457.805
8862.49 566.382 630.448 479.41 487.861
8865.15 728.268 689.285 589.985 547.323
8867.81 773.204 728.78 572.574 553.07
8870.48 684.87 694.705 496.65 481.907
8873.14 626.041 672.675 376.499 449.411
8875.8 707.115 653.374 475.084 463.891
8878.46 626.966 686.422 540.089 560.401
8881.12 725.187 684.582 666.03 633.917
8883.78 701.593 748.276 695.634 646.886
8886.44 818.048 765.46 578.993 601.252
8889.1 776.741 740.835 529.128 489.888
8891.76 627.716 634.517 361.544 407.718
8894.42 499.094 575.395 332.481 386.791
8897.08 599.374 586.305 466.349 462.104
8899.74 660.447 648.981 587.48 526.03
8902.4 687.122 694.352 524.26 538.59
8905.06 735.486 710.671 504.03 475.715
8907.72 709.405 677.241 398.854 437.859
8910.37 586.834 645.262 410.693 467.655
8913.03 639.546 604.251 593.417 514.982
8915.69 586.374 677.357 540.836 617.047
8918.35 806.152 732.582 716.888 592.859
8921 805.221 778.343 520.852 540.034
8923.66 723.657 723.06 382.361 369.805
8926.32 640.301 615.868 206.203 247.583
8928.97 483.647 595.406 154.184 259.291
8931.63 662.269 594.155 417.485 308.804
8934.28 636.549 640.458 354.741 416.766
8936.94 622.557 617.217 478.072 421.401
8939.59 592.547 642.06 431.389 472.392
8942.25 711.077 659.585 507.713 497.571
8944.9 675.13 649.164 553.611 475.902
8947.56 561.285 612.894 366.381 434.318
8950.21 602.266 586.029 382.961 415.979
8952.87 594.535 595.614 498.595 475.493
8955.52 590.042 613.363 544.924 541.127
8958.17 655.511 675.534 579.863 567.56
8960.82 781.048 731.886 577.892 508.275
8963.48 759.099 629.386 367.07 322.578
8966.13 348.012 492.817 22.7701 156.59
8968.78 371.341 428.525 79.9304 116.859
8971.43 566.223 501.471 247.876 207.984
8974.09 566.85 562.405 296.146 310.801
8976.74 554.142 564.772 388.38 347.849
8979.39 573.324 571.477 359.021 393.289
8982.04 586.966 578.888 432.465 403.129
8984.69 576.375 575.878 417.901 406.113
8987.34 564.293 562.021 367.973 425.203
8989.99 545.394 534.081 489.735 411.483
8992.64 492.556 501.562 376.742 387.406
8995.29 466.737 504.428 295.741 364.783
8997.94 553.99 536.117 421.868 397.97
9000.59 587.626 570.603 476.303 458.054
9003.23 570.194 567.336 475.99 492.639
9005.88 544.188 527.494 525.623 410.77
9008.53 468.099 474.902 230.698 277.384
9011.18 412.42 478.043 75.8316 180.933
9013.83 553.611 499.682 236.27 186.521
9016.47 533.016 550.238 247.461 251.493
9019.12 564.085 540.226 270.75 284.86
9021.77 523.577 547.334 336.368 317.24
9024.41 554.339 535.58 344.601 350.983
9027.06 528.822 550.322 371.981 376.793
9029.71 567.806 554.449 413.798 389.653
9032.35 566.72 573.14 383.179 391.517
9035 584.895 582.988 377.573 400.321
9037.64 597.351 599.91 440.211 434.841
9040.29 617.485 600.725 486.739 436.552
9042.93 587.339 598.026 382.706 408.252
9045.58 589.253 601.15 355.313 377.401
9048.22 626.858 607.902 394.186 394.247
9050.86 607.596 619.862 433.242 418.154
9053.51 625.132 619.123 427.033 422.477
9056.15 624.641 609.497 407.154 376.298
9058.79 578.717 586.929 294.708 309.194
9061.44 557.428 559.673 225.722 273.081
9064.08 542.872 556.035 298.813 290.249
9066.72 567.806 548.653 346.212 343.556
9069.36 535.28 519.371 385.644 336.289
9072 455.028 424.738 277.012 277.962
9074.64 283.907 246.312 171.23 149.414
