wavelength spectrum_sum 3smoothed_sum spectrum_optimal 3smoothed_optimal
3504.16 128.553 100.622 116.694 88.653
3507.08 173.313 175.868 149.265 162.825
3510.01 225.739 217.041 222.516 205.102
3512.93 252.073 246.737 243.526 234.05
3515.85 262.4 253.72 236.108 237.584
3518.78 246.687 263.739 233.12 243.835
3521.7 282.131 261.866 262.276 240.717
3524.62 256.779 262.819 226.756 242.218
3527.55 249.548 257.54 237.622 238.376
3530.47 266.293 262.745 250.75 249.923
3533.39 272.394 262.353 261.395 257.105
3536.32 248.371 257.9 259.17 262.469
3539.24 252.936 262.256 266.841 275.764
3542.16 285.462 268.632 301.28 286.383
3545.09 267.5 274.002 291.027 294.761
3548.01 269.045 262.734 291.975 276.841
3550.93 251.656 276.628 247.52 293.788
3553.86 309.181 279.947 341.869 298.376
3556.78 279.004 295.141 305.74 313.804
3559.7 297.238 298.964 293.801 300.305
3562.63 320.65 316.45 301.374 307.908
3565.55 331.462 327.909 328.548 317.186
3568.47 331.615 328.69 321.635 321.257
3571.39 322.993 323.202 313.586 315.921
3574.32 314.999 326.58 312.541 315.879
3577.24 341.747 326.997 321.51 316.432
3580.16 324.246 333.318 315.243 321.866
3583.09 333.963 338.638 328.844 328.984
3586.01 357.705 338.065 342.867 328.269
3588.93 322.527 332.491 313.097 316.789
3591.85 317.242 324.74 294.403 316.767
3594.78 334.453 319.191 342.801 308.093
3597.7 305.878 337.578 287.074 327.152
3600.62 372.402 344.07 351.581 329.263
3603.54 353.929 367.265 349.134 349.791
3606.47 375.464 374.619 348.657 357.587
3609.39 394.463 382.111 374.971 362.696
3612.31 376.406 391.143 364.46 377.504
3615.23 402.56 391.83 393.081 378.414
3618.15 396.523 389.979 377.702 375.302
3621.08 370.854 384.585 355.122 370.514
3624 386.377 365.335 378.719 363.362
3626.92 338.775 376.765 356.245 382.062
3629.84 405.144 375.737 411.224 388.536
3632.77 383.293 396.807 398.139 411.311
3635.69 401.984 385.709 424.571 400.221
3638.61 371.851 387.357 377.953 390.673
3641.53 388.238 390.419 369.496 387.907
3644.45 411.167 390.141 416.273 379.968
3647.37 371.018 382.572 354.136 374.498
3650.3 365.53 350.018 353.086 348.654
3653.22 313.507 353.002 338.741 363.168
3656.14 379.968 359.566 397.678 372.849
3659.06 385.222 368.858 382.126 371.978
3661.98 341.383 361.779 336.129 357.918
3664.9 358.731 337.741 355.499 335.626
3667.83 313.108 338.423 315.249 337.372
3670.75 343.431 319.413 341.367 321.601
3673.67 301.7 318.791 308.186 321.931
3676.59 311.241 310.373 316.24 312.94
3679.51 318.178 314.39 314.395 314.398
3682.43 313.749 313.504 312.56 304.633
3685.35 308.584 299.987 286.944 289.773
3688.28 277.626 278.532 269.816 270.39
3691.2 249.386 259.909 254.408 264.799
3694.12 252.716 248.166 270.171 256.253
3697.04 242.395 249.818 244.18 259.021
3699.96 254.342 244.329 262.711 247.472
3702.88 236.249 242.742 235.525 247.972
3705.8 237.635 235.714 245.679 238.065
3708.72 233.259 231.505 232.991 234.477
3711.64 223.623 233.456 224.76 237.559
3714.56 243.487 232.121 254.927 233.279
3717.49 229.253 238.852 220.15 238.797
3720.41 243.817 228.659 241.315 230.768
3723.33 212.908 223.685 230.841 233.176
3726.25 214.33 215.704 227.374 231.065
3729.17 219.873 214.54 234.981 229.448
3732.09 209.416 211.226 225.988 225.921
3735.01 204.388 206.917 216.794 223.09
3737.93 206.946 211.683 226.487 224.456
3740.85 223.715 224.298 230.086 229.121
3743.77 242.233 221.844 230.791 223.989
3746.69 199.583 217.337 211.091 220.798
3749.61 210.196 200.7 220.511 212.972
3752.53 192.321 208.46 207.314 212.473
3755.45 222.862 203.535 209.593 198.765
3758.37 195.423 197.666 179.388 184.14
3761.29 174.712 185.075 163.44 184.611
3764.21 185.089 192.711 211.005 206.618
3767.13 218.331 199.143 245.407 233.792
3770.05 194.009 199.578 244.964 233.712
3772.97 186.394 197.666 210.764 230.975
3775.89 212.594 195.974 237.197 222.181
3778.81 188.933 199.773 218.583 231.521
3781.73 197.791 206.771 238.785 233.405
3784.65 233.587 227.925 242.847 243.868
3787.57 252.395 252.781 249.971 252.766
3790.49 272.361 239.492 265.478 252.828
3793.41 193.719 230.105 243.033 252.749
3796.33 224.236 210.413 249.735 242.196
3799.25 213.284 229.01 233.821 251.048
3802.17 249.511 245.378 269.59 265.738
3805.09 273.338 271.105 293.804 298.194
3808.01 290.465 283.38 331.188 307.303
3810.93 286.336 288.969 296.915 317.816
3813.85 290.106 292.191 325.343 320.073
3816.77 300.131 296.116 337.96 334.911
3819.69 298.111 294.55 341.431 331.02
3822.6 285.406 293.963 313.67 326.324
3825.52 298.373 301.177 323.872 327.674
3828.44 319.752 311.974 345.48 332.01
3831.36 317.798 324.915 326.679 340.217
3834.28 337.194 350.257 348.492 363.007
3837.2 395.778 367.48 413.851 374.937
3840.12 369.467 371.094 362.468 379.525
3843.04 348.037 373.594 362.255 384.268
3845.96 403.278 357.029 428.082 392.752
3848.88 319.772 337.73 387.918 392.985
3851.79 290.14 316.956 362.954 390.716
3854.71 340.956 309.599 421.275 393.554
3857.63 297.701 317.412 396.434 406.7
3860.55 313.579 306.267 402.39 401.503
3863.47 307.52 316.842 405.684 406.925
3866.39 329.426 318.94 412.7 415.887
3869.31 319.873 339.115 429.276 436.444
3872.22 368.047 343.786 467.355 438.725
3875.14 343.437 352.694 419.544 447.606
3878.06 346.596 361.528 455.919 454.836
3880.98 394.55 399.379 489.045 503.89
3883.9 456.99 447.038 566.705 564.211
3886.82 489.572 456.966 636.882 603.679
3889.73 424.334 455.487 607.45 613.33
3892.65 452.553 444.606 595.659 602.862
3895.57 456.93 470.638 605.477 633.345
3898.49 502.43 479.939 698.899 657.852
3901.41 480.457 499.945 669.179 696.519
3904.32 516.948 507.62 721.477 724.92
3907.24 525.454 538.161 784.104 780.616
3910.16 572.079 589.997 836.268 850.309
3913.08 672.459 617.059 930.555 875.345
3916 606.64 644.181 859.212 897.397
3918.91 653.444 651.809 902.426 895.104
3921.83 695.344 676.496 923.673 913.054
3924.75 680.701 679.8 913.064 898.139
3927.67 663.356 683.555 857.68 883.505
3930.58 706.61 699.463 879.772 878.205
3933.5 728.422 741.818 897.165 918.898
3936.42 790.423 761.961 979.757 958.325
3939.34 767.039 799.274 998.054 1028.51
3942.25 840.36 832.096 1107.73 1087.72
3945.17 888.889 831.807 1157.38 1089.61
3948.09 766.172 837.629 1003.73 1102.54
3951 857.827 850.341 1146.51 1111.57
3953.92 927.024 884.392 1184.48 1147.31
3956.84 868.325 891.544 1110.94 1136.41
3959.76 879.284 890.854 1113.82 1111.48
3962.67 924.954 919.688 1109.67 1125.82
3965.59 954.827 958.662 1153.97 1158.14
3968.51 996.204 996.971 1210.78 1218.41
3971.42 1039.88 999.618 1290.49 1236.79
3974.34 962.769 989.612 1209.1 1247.11
3977.26 966.185 981.516 1241.73 1242.83
3980.17 1015.59 1015.71 1277.66 1284.24
3983.09 1065.36 1056.42 1333.34 1329.79
3986.01 1088.32 1074.61 1378.36 1369.78
3988.92 1070.15 1081.38 1397.62 1398.13
3991.84 1085.67 1067.68 1418.41 1398.56
3994.76 1047.23 1065.95 1379.63 1393.74
3997.67 1064.94 1058.19 1383.17 1399.13
4000.59 1062.39 1071.66 1434.59 1405.4
4003.51 1087.67 1081.96 1398.45 1425.44
4006.42 1095.84 1087.12 1443.27 1418.54
4009.34 1077.85 1089.69 1413.91 1435.8
4012.25 1095.39 1057.74 1450.23 1418.93
4015.17 999.995 1050.62 1392.63 1415.8
4018.09 1056.47 1044.31 1404.53 1408.17
4021 1076.46 1059.2 1427.36 1400.15
4023.92 1044.67 1067.47 1368.56 1401.41
4026.83 1081.27 1035.05 1408.32 1355.72
4029.75 979.203 1060.22 1290.28 1385.67
4032.67 1120.18 1066.46 1458.41 1394.13
4035.58 1099.99 1060.95 1433.68 1409.8
4038.5 962.679 1029.76 1337.3 1371.65
4041.41 1026.62 1015.99 1343.98 1349.14
4044.33 1058.67 1019.83 1366.16 1349.8
4047.24 974.196 987.409 1339.27 1320.91
4050.16 929.361 951.519 1257.29 1312.33
4053.08 950.999 967.746 1340.44 1320.03
4055.99 1022.88 1000.66 1362.37 1347.8
4058.91 1028.11 1017.71 1340.59 1338.11
4061.82 1002.13 1003.53 1311.37 1316.65
4064.74 980.351 1012.51 1297.98 1332.26
4067.65 1055.06 1000.9 1387.43 1325.67
4070.57 967.295 1019.27 1291.59 1354.84
4073.48 1035.46 1019.06 1385.49 1353.16
4076.4 1054.43 1039.69 1382.41 1372.82
4079.31 1029.18 1030.75 1350.55 1360.08
4082.23 1008.64 1006.53 1347.27 1352.37
4085.14 981.779 997.09 1359.31 1341.98
4088.06 1000.85 1005.96 1319.37 1358.18
4090.97 1035.25 1038.88 1395.88 1378.88
4093.89 1080.55 1087.24 1421.4 1433.99
4096.8 1145.93 1105.63 1484.69 1453.35
4099.72 1090.4 1131.44 1453.97 1494.61
4102.63 1158 1157.71 1545.17 1528.94
4105.55 1224.71 1188.32 1587.67 1566.04
4108.46 1182.25 1230.42 1565.29 1597.28
4111.37 1284.29 1241.2 1638.88 1618.05
4114.29 1257.07 1284.86 1649.98 1657.61
4117.2 1313.23 1289.48 1683.98 1676.33
4120.12 1298.13 1315.49 1695.04 1699.8
4123.03 1335.09 1319.58 1720.38 1719.06
4125.95 1325.52 1336.86 1741.76 1740.64
4128.86 1349.96 1379.94 1759.77 1800.81
4131.77 1464.35 1407.07 1900.88 1840.68
4134.69 1406.9 1445.15 1861.4 1881.64
4137.6 1464.21 1416.51 1882.64 1884.18
4140.52 1378.42 1451.74 1908.5 1919.14
4143.43 1512.6 1481.07 1966.26 1956.37
4146.34 1552.19 1531.44 1994.34 1984.16
4149.26 1529.55 1516.24 1991.87 1973.11
4152.17 1466.99 1505.35 1933.12 1997.47
4155.09 1519.5 1532.96 2067.4 2043.01
4158 1612.38 1560.78 2128.52 2085.97
4160.91 1550.45 1553.01 2061.99 2087.75
4163.83 1496.22 1543.33 2072.76 2091.79
4166.74 1583.31 1567.72 2140.63 2113.42
4169.65 1623.63 1615.05 2126.87 2153.62
4172.57 1638.19 1633.19 2193.36 2158.88
4175.48 1637.74 1627 2156.41 2159.46
4178.39 1605.08 1609.54 2128.63 2130.33
4181.31 1585.8 1600.4 2105.95 2125.63
4184.22 1610.31 1600.43 2142.32 2124.69
4187.13 1605.17 1612.78 2125.79 2129.29
4190.05 1622.84 1590.75 2119.76 2099.49
4192.96 1544.23 1581.81 2052.91 2078.59
4195.87 1578.35 1560.81 2063.1 2067.23
4198.79 1559.85 1570.74 2085.67 2078.69
4201.7 1574.03 1558.34 2087.3 2090.44
4204.61 1541.14 1574.17 2098.34 2099.98
4207.52 1607.36 1554.29 2114.29 2074.45
4210.44 1514.38 1578.93 2010.72 2084.05
4213.35 1615.06 1525.27 2127.15 2044.11
4216.26 1446.38 1516.05 1994.46 2041.59
4219.17 1486.69 1475.39 2003.16 2015.99
4222.09 1493.11 1485.47 2050.36 2005.06
4225 1476.62 1485.53 1961.68 1997
4227.91 1486.86 1503.54 1978.96 2020.26
4230.82 1547.14 1520.38 2120.13 2036.43
4233.74 1527.15 1529.5 2010.19 2034.2
4236.65 1514.21 1500.18 1972.27 1975.53
4239.56 1459.19 1451.44 1944.13 1925.26
4242.47 1380.91 1467.6 1859.36 1955.42
4245.38 1562.7 1476.25 2062.78 1988.32
4248.3 1485.15 1530.04 2042.81 2049.8
4251.21 1542.27 1534.35 2043.82 2055.54
4254.12 1575.64 1537.18 2079.98 2033.73
4257.03 1493.63 1516.84 1977.38 2016.52
4259.94 1481.26 1486.42 1992.19 1980.34
4262.86 1484.38 1504.57 1971.44 2017.96
4265.77 1548.06 1513.18 2090.25 2032.34
4268.68 1507.11 1516.59 2035.33 2048.33
4271.59 1494.62 1505.35 2019.41 2035.44
4274.5 1514.32 1489.91 2051.58 2005.56
4277.41 1460.78 1482.53 1945.69 1980.8
4280.33 1472.5 1449.56 1945.14 1928
4283.24 1415.38 1447.85 1893.18 1928.26
4286.15 1455.67 1442.86 1946.46 1934.8
4289.06 1457.53 1451.67 1964.77 1932.61
4291.97 1441.81 1427.22 1886.59 1897.59
4294.88 1382.33 1401.39 1841.39 1839.44
4297.79 1380.03 1371.39 1790.34 1791.48
4300.7 1351.79 1371.79 1742.72 1763.91
4303.61 1383.55 1357.77 1758.67 1739.8
4306.53 1337.96 1328.14 1718.03 1724
4309.44 1262.91 1313.95 1695.31 1713.8
4312.35 1341 1295.91 1728.07 1710.21
4315.26 1283.83 1295.26 1707.24 1710.9
4318.17 1260.94 1269.3 1697.4 1690.13
4321.08 1263.12 1248.6 1665.74 1648.68
4323.99 1221.74 1245.13 1582.92 1640.23
4326.9 1250.54 1198.9 1672.04 1603.22
4329.81 1124.41 1193.01 1554.7 1605.31
4332.72 1204.07 1158.67 1589.18 1545.88
4335.63 1147.53 1180.42 1493.75 1551.49
4338.54 1189.67 1177.1 1571.53 1541.4
4341.45 1194.11 1170.88 1558.92 1548.41
4344.36 1128.86 1170.34 1514.78 1554.58
4347.27 1188.06 1148.18 1590.04 1526.7
4350.18 1127.61 1134.87 1475.27 1517.78
4353.09 1088.94 1105.1 1488.02 1471.96
4356 1098.73 1075.01 1452.58 1445.5
4358.91 1037.37 1051.61 1395.89 1410.77
4361.82 1018.71 1014.2 1383.85 1376.92
4364.73 986.526 1029.86 1351.02 1400.2
4367.64 1084.35 1032.84 1465.73 1385.19
4370.55 1027.64 1054.83 1338.84 1397.91
4373.46 1052.5 1024.39 1389.17 1379.63
4376.37 993.036 999.397 1410.89 1383.38
4379.28 952.654 961.985 1350.07 1356.83
4382.19 940.265 968.867 1309.52 1337.69
4385.1 1013.68 999.837 1353.49 1344.74
4388.01 1045.56 1026.63 1371.2 1369.12
4390.92 1020.64 1050.56 1382.67 1397.34
4393.83 1085.47 1050.71 1438.16 1401.45
4396.74 1046.03 1043.01 1383.51 1379.45
4399.64 997.523 1066.29 1316.69 1396.38
4402.55 1155.33 1090.15 1488.93 1422.4
4405.46 1117.62 1150.72 1461.57 1501.58
4408.37 1179.21 1147.78 1554.23 1505.72
4411.28 1146.53 1154.48 1501.36 1513.88
4414.19 1137.7 1159.32 1486.07 1520.36
4417.1 1193.74 1175.19 1573.66 1543.73
4420.01 1194.14 1193.26 1571.48 1570.17
4422.92 1191.88 1211.64 1565.37 1602.24
4425.82 1248.9 1217.46 1669.87 1643.9
4428.73 1211.6 1241.31 1696.46 1667.57
4431.64 1263.44 1253.38 1636.38 1686.55
4434.55 1285.11 1265.51 1726.81 1711.36
4437.46 1247.99 1270.81 1770.89 1771.33
4440.37 1279.32 1294.04 1816.29 1801.36
4443.27 1354.81 1332.2 1816.9 1813.59
4446.18 1362.48 1376.05 1807.58 1832.01
4449.09 1410.88 1395.04 1871.54 1847.06
4452 1411.75 1429.11 1862.06 1880.45
4454.91 1464.7 1419.22 1907.75 1901.54
4457.81 1381.2 1402.54 1934.82 1912.48
4460.72 1361.71 1405.73 1894.86 1919.69
4463.63 1474.28 1434.79 1929.39 1912.53
4466.54 1468.36 1420.7 1913.35 1896.91
4469.45 1319.44 1387.1 1847.98 1870.59
4472.35 1373.5 1402.79 1850.44 1908.67
4475.26 1515.43 1427.32 2027.57 1912.26
4478.17 1393.04 1444.79 1858.76 1929.34
4481.08 1425.9 1413.42 1901.68 1886.74
4483.98 1421.31 1430.39 1899.77 1893.84
4486.89 1443.95 1418.95 1880.08 1884.39
4489.8 1391.61 1418.03 1873.33 1884.92
4492.7 1418.54 1404.65 1901.34 1886.89
4495.61 1403.82 1389.18 1886.01 1867.76
4498.52 1345.18 1367.16 1815.92 1845.69
4501.43 1352.49 1346.47 1835.14 1813.14
4504.33 1341.73 1351.65 1788.36 1812.96
4507.24 1360.72 1369.92 1815.37 1829.52
4510.15 1407.3 1396.08 1884.85 1873.79
4513.05 1420.22 1384.48 1921.16 1894.98
4515.96 1325.91 1370.26 1878.92 1903.21
4518.87 1364.64 1354.77 1909.55 1901.29
4521.77 1373.76 1390.3 1915.39 1894.97
4524.68 1432.51 1432.1 1859.96 1923.3
4527.59 1490.04 1480.8 1994.55 1960.09
4530.49 1519.85 1487.35 2025.77 1992.56
4533.4 1452.17 1479.98 1957.36 1994.61
4536.31 1467.92 1486.15 2000.69 2004.62
4539.21 1538.36 1530.59 2055.81 2052.66
4542.12 1585.49 1544.03 2101.48 2093.55
4545.02 1508.24 1570.4 2123.35 2130.08
4547.93 1617.47 1545.65 2165.41 2124.21
4550.84 1511.23 1580.74 2083.89 2130.33
4553.74 1613.53 1593.03 2141.71 2142.25
4556.65 1654.33 1661.7 2201.14 2216.82
4559.55 1717.25 1714.68 2307.6 2291.48
4562.46 1772.45 1734.55 2365.7 2315.36
4565.37 1713.95 1730.9 2272.8 2305.39
4568.27 1706.31 1718.92 2277.67 2294
4571.18 1736.49 1747.97 2331.52 2334.39
4574.08 1801.11 1772.75 2393.97 2371.05
4576.99 1780.64 1783.28 2387.67 2377.06
4579.89 1768.09 1784.16 2349.55 2384.05
4582.8 1803.76 1797.74 2414.92 2390.38
4585.7 1821.36 1811.29 2406.68 2408.22
4588.61 1808.74 1816.23 2403.06 2412.92
4591.51 1818.59 1824.19 2429.01 2418.72
4594.42 1845.24 1850.45 2424.09 2454.23
4597.32 1887.51 1871.96 2509.59 2469.17
4600.23 1883.11 1894.4 2473.84 2510.55
4603.13 1912.58 1881.64 2548.24 2488.45
4606.04 1849.23 1888.66 2443.27 2509.68
4608.94 1904.17 1815.52 2537.52 2468.7
4611.85 1693.17 1816.23 2425.32 2483.78
4614.75 1851.36 1786.37 2488.51 2445.96
4617.66 1814.58 1844.21 2424.04 2460.32
4620.56 1866.7 1868.71 2468.4 2490.78
4623.47 1924.85 1889.93 2579.9 2509.09
4626.37 1878.24 1895.85 2478.97 2536.59
4629.27 1884.46 1901.64 2550.91 2543.03
4632.18 1942.22 1853.72 2599.21 2538.16
4635.08 1734.49 1829.92 2464.37 2533.04
4637.99 1813.06 1773.35 2535.54 2502.09
4640.89 1772.51 1830.06 2506.37 2521.2
4643.79 1904.63 1831.65 2521.7 2494.86
4646.7 1817.82 1893.41 2456.52 2532.58
4649.6 1957.78 1894.1 2619.52 2540.66
4652.51 1906.71 1919.97 2545.95 2559.43
4655.41 1895.43 1918.7 2512.81 2557.58
4658.31 1953.95 1897.13 2613.98 2520.06
4661.22 1842.02 1913.94 2433.38 2557.72
4664.12 1945.87 1911.15 2625.79 2533.32
4667.02 1945.55 1924.49 2540.79 2558.88
4669.93 1882.04 1912.73 2510.05 2522.37
4672.83 1910.61 1898.96 2516.28 2534.4
4675.73 1904.22 1907.51 2576.88 2557.34
4678.64 1907.69 1928.78 2578.87 2602.26
4681.54 1974.43 1935.34 2651.05 2606.82
4684.44 1923.9 1905.98 2590.55 2617.16
4687.35 1819.61 1884.88 2609.87 2601.32
4690.25 1911.14 1864.81 2603.53 2577.03
4693.15 1863.68 1868.64 2517.68 2570.65
4696.05 1831.1 1848.83 2590.75 2575.35
4698.96 1851.7 1831.75 2617.63 2542.78
4701.86 1812.44 1848.88 2419.95 2517.73
4704.76 1882.5 1867.76 2515.61 2487.3
4707.66 1908.33 1860.79 2526.33 2480.94
4710.57 1791.53 1835 2400.88 2451.82
4713.47 1805.13 1783.29 2428.25 2427.37
4716.37 1753.22 1730.38 2452.98 2410.83
4719.27 1632.8 1721.92 2351.25 2405.74
4722.18 1779.74 1720.55 2413 2376.68
4725.08 1749.13 1734.34 2365.78 2349.05
4727.98 1674.14 1714.39 2268.36 2315.08
4730.88 1719.9 1699.22 2311.12 2298.98
4733.78 1703.62 1715.8 2317.45 2303.6
4736.69 1723.89 1702.74 2282.22 2281.22
4739.59 1680.71 1676.67 2243.99 2268.08
4742.49 1625.42 1669.01 2278.04 2270.11
4745.39 1700.91 1652.65 2288.29 2259.51
4748.29 1631.62 1684.87 2212.2 2280.85
4751.19 1722.1 1656.14 2342.07 2253.32
4754.1 1614.71 1638.73 2205.7 2233.88
4757 1579.39 1614.16 2153.88 2203.02
4759.9 1648.37 1603.41 2249.47 2177.8
4762.8 1582.47 1577.13 2130.06 2165.11
4765.7 1500.54 1563.65 2115.8 2136.86
4768.6 1607.94 1527.94 2164.72 2133.42
4771.5 1475.33 1582.83 2119.75 2161.55
4774.4 1665.23 1604.61 2200.18 2181.46
4777.3 1673.26 1637.13 2224.47 2167.08
4780.21 1572.91 1603.11 2076.6 2171.17
4783.11 1563.16 1586.75 2212.44 2163.91
4786.01 1624.19 1563.23 2202.69 2183.48
4788.91 1502.35 1586.63 2135.32 2173.17
4791.81 1633.35 1582.49 2181.5 2163.25
4794.71 1611.78 1614.04 2172.93 2174.22
4797.61 1596.99 1599.24 2168.24 2170.44
4800.51 1588.95 1603.33 2170.14 2164.36
4803.41 1624.05 1600.41 2154.7 2161.84
4806.31 1588.22 1588.37 2160.68 2133.13
4809.21 1552.83 1573.71 2084.02 2126.91
4812.11 1580.08 1549.02 2136.04 2078.04
4815.01 1514.15 1553.79 2014.05 2098.6
4817.91 1567.15 1528.07 2145.69 2080.96
4820.81 1502.92 1528.23 2083.15 2081.73
4823.71 1514.61 1470.84 2016.36 2045.59
4826.61 1394.99 1470.55 2037.26 2023.56
4829.51 1502.07 1466.63 2017.06 2040.26
4832.41 1502.84 1459.24 2066.45 2037.23
4835.31 1372.81 1440.03 2028.2 2074.21
4838.21 1444.44 1457.65 2127.98 2089.76
4841.11 1555.71 1493.08 2113.11 2078.97
4844.01 1479.09 1501.79 1995.83 2044.62
4846.91 1470.57 1483.61 2024.91 2020.47
4849.8 1501.16 1500.32 2040.67 2048.59
4852.7 1529.24 1479.6 2080.19 2054.15
4855.6 1408.39 1494.61 2041.59 2073.91
4858.5 1546.21 1487.18 2099.96 2062.37
4861.4 1506.94 1521 2045.58 2058.8
4864.3 1509.84 1484.4 2030.88 2039.01
4867.2 1436.42 1492.56 2040.57 2038.29
4870.1 1531.43 1492.47 2043.42 2042.18
4872.99 1509.56 1503.63 2042.54 2021.71
4875.89 1469.9 1485.45 1979.18 2012.86
4878.79 1476.9 1463.75 2016.85 1987.58
4881.69 1444.46 1488.21 1966.72 2003.43
4884.59 1543.26 1499.9 2026.71 2011.54
4887.49 1511.97 1504.46 2041.2 2012.47
4890.38 1458.14 1477.26 1969.5 1986.39
4893.28 1461.67 1462.68 1948.48 1971.65
4896.18 1468.25 1439.42 1996.97 1933.59
4899.08 1388.34 1374.24 1855.32 1865.57
4901.98 1266.14 1340.72 1744.43 1824.07
4904.87 1367.69 1199.81 1872.47 1651.78
4907.77 965.61 1245.81 1338.45 1773.37
4910.67 1404.13 1262.55 2109.2 1855.87
4913.57 1417.92 1359.28 2119.96 2093.67
4916.46 1255.79 1308.79 2051.83 1956.87
4919.36 1252.65 1263.94 1698.82 1831.01
4922.26 1283.38 1246.32 1742.38 1702.17
4925.16 1202.94 1229.04 1665.3 1669.54
4928.05 1200.8 1169.62 1600.92 1638.4
4930.95 1105.13 1146.35 1648.96 1590.51
4933.85 1133.13 1106.33 1521.65 1557.23
4936.74 1080.73 1113.85 1501.09 1518.64
4939.64 1127.69 1071.49 1533.17 1507.12
4942.54 1006.06 1082.98 1487.11 1508.14
4945.44 1115.19 1034.52 1504.14 1512.1
4948.33 982.302 1074.59 1545.05 1535.08
4951.23 1126.28 1096.22 1556.06 1563.43
4954.13 1180.07 1143.17 1589.18 1571.14
4957.02 1123.17 1154.71 1568.17 1576.36
4959.92 1160.88 1109.77 1571.72 1571.5
4962.81 1045.27 1094.37 1574.61 1555.43
4965.71 1076.97 1093.29 1519.97 1566.22
4968.61 1157.63 1129.52 1604.09 1580.79
4971.5 1153.95 1169.51 1618.3 1620.09
4974.4 1196.94 1167.72 1637.88 1616.77
4977.29 1152.25 1187.66 1594.14 1638.15
4980.19 1213.79 1127.75 1682.45 1607.69
4983.09 1017.22 1143.47 1546.49 1624.1
4985.98 1199.39 1104.23 1643.37 1624.14
4988.88 1096.09 1183.26 1682.56 1689.81
4991.77 1254.29 1212.06 1743.51 1713.41
4994.67 1285.82 1282.57 1714.15 1763.14
4997.56 1307.59 1279.8 1831.75 1754.6
5000.46 1245.99 1239.46 1717.91 1768.98
5003.35 1164.79 1228.62 1757.29 1750.49
5006.25 1275.09 1275.95 1776.27 1826.49
5009.14 1387.97 1354.88 1945.91 1871.4
5012.04 1401.59 1437.07 1892.01 1996.09
5014.93 1521.66 1772.49 2150.34 2410.66
5017.83 2394.21 1768.13 3189.63 2446.76
5020.72 1388.53 1744.18 2000.3 2366.99
5023.62 1449.79 1405.99 1911.04 1941.43
5026.51 1379.65 1457.21 1912.94 1965.73
5029.41 1542.21 1457.91 2073.21 1992.51
5032.3 1451.87 1490.58 1991.38 2013.57
5035.2 1477.65 1477.17 1976.11 2005.06
5038.09 1501.97 1466.84 2047.69 1983.48
5040.99 1420.89 1448.03 1926.65 1975.64
5043.88 1421.21 1423.7 1952.59 1952.71
5046.77 1429 1404.74 1978.88 1983.66
5049.67 1364.01 1438.83 2019.52 2037.65
5052.56 1523.48 1446.62 2114.53 2024.94
5055.46 1452.35 1477.03 1940.76 2023.82
5058.35 1455.25 1414.97 2016.17 1975.91
5061.24 1337.32 1423.92 1970.78 2005.71
5064.14 1479.19 1399.52 2030.16 2009.62
5067.03 1382.05 1462.25 2027.92 2039.39
5069.92 1525.52 1470.77 2060.08 2044.92
5072.82 1504.74 1517.29 2046.76 2076.14
5075.71 1521.6 1520.83 2121.57 2079.03
5078.6 1536.14 1527.33 2068.76 2086.67
5081.5 1524.24 1545.73 2069.69 2091.13
5084.39 1576.82 1541.47 2134.94 2090.26
5087.28 1523.35 1548.47 2066.15 2107.69
5090.18 1545.26 1565.25 2121.98 2137.05
5093.07 1627.14 1599.2 2223.03 2187.94
5095.96 1625.2 1615.72 2218.81 2187.52
5098.85 1594.81 1587.89 2120.71 2152.64
5101.75 1543.66 1580.01 2118.39 2128.34
5104.64 1601.55 1591.61 2145.92 2165.77
5107.53 1629.62 1602.7 2232.99 2173.74
5110.42 1576.93 1578.75 2142.31 2158.38
5113.32 1529.7 1569.49 2099.83 2144.82
5116.21 1601.84 1556.54 2192.33 2145.49
5119.1 1538.1 1568.41 2144.31 2157.87
5121.99 1565.3 1559.8 2136.97 2138.79
5124.88 1576 1568.17 2135.09 2131.75
5127.78 1563.21 1581.29 2123.18 2154.81
5130.67 1604.67 1604.89 2206.15 2184.02
5133.56 1646.8 1640.25 2222.72 2245.42
5136.45 1669.27 1526.96 2307.39 2248.18
5139.34 1264.81 1379.1 2214.44 2277.93
5142.23 1203.21 1246.96 2311.97 2261.93
5145.13 1272.85 1219.79 2259.39 2303.77
5148.02 1183.29 1276.31 2339.95 2338.89
5150.91 1372.78 1296.36 2417.34 2360.01
5153.8 1333 1345 2322.74 2371.21
5156.69 1329.23 1310.82 2373.55 2375
5159.58 1270.23 1312.94 2428.71 2384.06
5162.47 1339.37 1316.76 2349.91 2371.71
5165.36 1340.69 1352.63 2336.52 2354.38
5168.25 1377.83 1341.04 2376.71 2331.15
5171.14 1304.6 1363.07 2280.23 2356.93
5174.03 1406.79 1349.8 2413.85 2347.77
5176.93 1338.01 1358.13 2349.23 2377.19
5179.82 1329.59 1324.58 2368.5 2401.29
5182.71 1306.13 1360.82 2486.14 2453.57
5185.6 1446.73 1345.12 2506.06 2482.48
5188.49 1282.5 1378.25 2455.22 2457.33
5191.38 1405.51 1366.78 2410.72 2431.32
5194.27 1412.33 1371.37 2428.03 2444.88
5197.16 1296.27 1384.28 2495.88 2483.49
5200.05 1444.23 1407.61 2526.57 2546.11
5202.94 1482.32 1457.12 2615.89 2557.85
5205.83 1444.82 1449.34 2531.1 2530
5208.72 1420.89 1438.39 2443.02 2502.14
5211.6 1449.46 1414.91 2532.3 2457.86
5214.49 1374.38 1431.76 2398.26 2493.49
5217.38 1471.43 1373.85 2549.92 2459.85
5220.27 1275.75 1405.95 2431.36 2489.71
5223.16 1470.66 1367.35 2487.85 2486.15
5226.05 1355.64 1445.41 2539.25 2535.59
5228.94 1509.92 1457.57 2579.68 2546.68
5231.83 1507.16 1484.92 2521.11 2507.74
5234.72 1437.68 1482.91 2422.42 2487.92
5237.61 1503.88 1419.1 2520.24 2454.73
5240.49 1315.74 1404.56 2421.54 2442.78
5243.38 1394.05 1342.24 2386.57 2411.96
5246.27 1316.93 1388.64 2427.79 2444
5249.16 1454.93 1412.06 2517.66 2462.48
5252.05 1464.31 1432.98 2442 2455.03
5254.94 1379.7 1413.23 2405.44 2407.38
5257.82 1395.7 1417.61 2374.69 2412.28
5260.71 1477.45 1418.7 2456.7 2390.45
5263.6 1382.96 1447.46 2339.96 2441.11
5266.49 1481.98 1390.89 2526.68 2406.97
5269.38 1307.74 1406.1 2354.28 2389.69
5272.26 1428.57 1427.37 2288.12 2362.49
5275.15 1545.8 1444.27 2445.09 2340.13
5278.04 1358.44 1457.43 2287.19 2330.51
5280.93 1468.07 1434.98 2259.26 2278.47
5283.81 1478.44 1461.51 2288.95 2263.06
5286.7 1438.02 1479.58 2240.97 2303.84
5289.59 1522.29 1489.96 2381.59 2314.14
5292.48 1509.57 1498.24 2319.85 2318.48
5295.36 1462.85 1478.51 2254.01 2292.12
5298.25 1463.11 1437.63 2302.51 2241.79
5301.14 1386.93 1434.68 2168.84 2267.14
5304.02 1454.02 1373.3 2330.07 2254.15
5306.91 1278.95 1364.99 2263.54 2272.48
5309.8 1362.01 1334.3 2223.84 2251.02
5312.68 1361.94 1372.52 2265.68 2250.64
5315.57 1393.6 1312.2 2262.4 2246.58
5318.46 1181.08 1295.61 2211.66 2237.74
5321.34 1312.16 1268.23 2239.18 2214.08
5324.23 1311.46 1308.57 2191.4 2191.42
5327.11 1302.08 1312.42 2143.67 2175.2
5330 1323.71 1278.93 2190.52 2134.44
5332.89 1211 1246.04 2069.14 2102.08
5335.77 1203.41 1213.36 2046.57 2051.95
5338.66 1225.65 1218.3 2040.13 2038.71
5341.54 1225.84 1221.52 2029.42 2049.42
5344.43 1213.07 1190.77 2078.7 2010.99
5347.31 1133.4 1193.51 1924.86 2012.94
5350.2 1234.05 1180.03 2035.26 1976.03
5353.08 1172.65 1187.67 1967.97 1967.58
5355.97 1156.31 1138.07 1899.49 1896.52
5358.86 1085.25 1087.45 1822.1 1861.4
5361.74 1020.79 1051.29 1862.6 1806.22
5364.63 1047.84 1040.2 1733.95 1774.47
5367.51 1051.96 1056.55 1726.86 1750.36
5370.39 1069.85 1077.14 1790.26 1771.14
5373.28 1109.6 1086.81 1796.31 1773.27
5376.16 1080.97 1102.01 1733.24 1776.85
5379.05 1115.45 1040.38 1800.99 1761.02
5381.93 924.711 1044.19 1748.85 1785.53
5384.82 1092.4 1049.54 1806.74 1800.65
5387.7 1131.5 1113.63 1846.37 1833.64
5390.59 1116.99 1099.87 1847.82 1804.42
5393.47 1051.12 1077.83 1719.06 1787.02
5396.35 1065.39 1069.27 1794.18 1757
5399.24 1091.28 1093.79 1757.77 1778.72
5402.12 1124.7 1124.35 1784.22 1796.33
5405 1157.07 1128.26 1847 1827.58
5407.89 1103.01 1104.89 1851.52 1824.07
5410.77 1054.6 1085.62 1773.69 1829.23
5413.65 1099.24 1096.02 1862.48 1826.13
5416.54 1134.22 1137.25 1842.23 1874.81
5419.42 1178.29 1162.14 1919.72 1899.63
5422.3 1173.9 1164.9 1936.94 1913.65
5425.19 1142.51 1112.51 1884.28 1910.76
5428.07 1021.11 1079.19 1911.05 1944.09
5430.95 1073.96 1064.49 2036.95 1984.75
5433.84 1098.4 1140.1 2006.25 2023.62
5436.72 1247.94 1164.9 2027.65 1994.91
5439.6 1148.37 1182.62 1950.83 1978.31
5442.48 1151.56 1174.81 1956.46 1975.87
5445.37 1224.5 1191.22 2020.32 1973.64
5448.25 1197.61 1227.6 1944.14 2004.93
5451.13 1260.7 1234.93 2050.33 2024.3
5454.01 1246.49 1228.15 2078.43 2091.93
5456.89 1177.28 1214.06 2147.04 2092.94
5459.78 1218.41 1215.75 2053.35 2087.58
5462.66 1251.57 1238.05 2062.35 2051.86
5465.54 1244.17 1240.63 2039.86 2042.61
5468.42 1226.14 1245.84 2025.63 2062.25
5471.3 1267.2 1247.38 2121.27 2078.86
5474.18 1248.8 1244.46 2089.68 2083.57
5477.07 1217.39 1221.3 2039.76 2101.65
5479.95 1197.71 1220.62 2175.5 2080.75
5482.83 1246.77 1239.91 2027 2089.25
5485.71 1275.25 1277.62 2065.26 2080.68
5488.59 1310.86 1264.97 2149.77 2076.08
5491.47 1208.79 1246.38 2013.22 2052.01
5494.35 1219.51 1240.28 1993.06 2032.08
5497.23 1292.54 1225.43 2089.97 2051.65
5500.11 1164.24 1222.83 2071.94 2051.7
5502.99 1211.69 1183.12 1993.19 2009.61
5505.87 1173.43 1197.57 1963.69 1973.32
5508.75 1207.59 1180.95 1963.07 1942.96
5511.63 1161.84 1203.01 1902.12 1970.25
5514.51 1239.62 1172.7 2045.58 1950.19
5517.39 1116.63 1167.69 1902.86 1947.03
5520.27 1146.81 1149.74 1892.65 1896.62
5523.15 1185.78 1163.05 1894.36 1887.83
5526.03 1156.57 1149.22 1876.49 1855.36
5528.91 1105.32 1122.24 1795.23 1837.76
5531.79 1104.85 1094.31 1841.57 1809.3
5534.67 1072.77 1040.6 1791.09 1806.24
5537.55 944.195 1031.77 1786.07 1805.17
5540.43 1078.35 990.767 1838.35 1805.31
5543.31 949.756 1040.01 1791.52 1800.64
5546.19 1091.94 1056.96 1772.05 1788.44
5549.07 1129.18 1094.42 1801.75 1783.86
5551.95 1062.15 1052.14 1777.76 1793.17
5554.83 965.069 1036.61 1799.99 1778.06
5557.7 1082.6 1031.91 1756.43 1752.22
5560.58 1048.05 1045.34 1700.23 1710.04
5563.46 1005.37 1061.72 1673.47 1769.68
5566.34 1131.74 1096.75 1935.35 2015.79
5569.22 1153.15 1157.74 2438.55 2376.18
5572.1 1188.32 1182.56 2754.65 2664.66
5574.97 1206.2 1215.54 2800.78 2592.36
5577.85 1252.11 1197.46 2221.67 2131.12
5580.73 1134.07 1046.57 1370.92 1596.88
5583.61 753.528 944.596 1198.04 1343.32
5586.48 946.196 970.755 1461.01 1455.73
5589.36 1212.54 1085.07 1708.15 1708.86
5592.24 1096.46 1199.95 1957.43 1832.14
5595.12 1290.84 1244.07 1830.83 1922.38
5597.99 1344.9 1311.8 1978.87 1908.19
5600.87 1299.66 1327.07 1914.86 1988.74
5603.75 1336.64 1335.15 2072.49 2039.13
5606.63 1369.14 1350.65 2130.03 2120.15
5609.5 1346.17 1350.3 2157.93 2135.15
5612.38 1335.59 1299.81 2117.5 2139.42
5615.26 1217.68 1313.58 2142.84 2158.74
5618.13 1387.46 1295.85 2215.89 2194.23
5621.01 1282.42 1342.45 2223.96 2194.97
5623.89 1357.47 1375.01 2145.06 2226.31
5626.76 1485.13 1437.79 2309.9 2264.26
5629.64 1470.77 1483.61 2337.8 2334.37
5632.51 1494.92 1434.1 2355.4 2341.03
5635.39 1336.62 1441.08 2329.88 2350.28
5638.27 1491.71 1381.62 2365.57 2339.69
5641.14 1316.51 1428.31 2323.62 2347.28
5644.02 1476.7 1437.52 2352.64 2362.9
5646.89 1519.35 1494.08 2412.45 2362.67
5649.77 1486.19 1507.87 2322.93 2388.73
5652.64 1518.07 1482.66 2430.82 2348.66
5655.52 1443.72 1509.03 2292.22 2392.44
5658.39 1565.29 1517.68 2454.29 2388.54
5661.27 1544.03 1464.62 2419.1 2371.51
5664.14 1284.56 1457.58 2241.14 2378.78
5667.02 1544.15 1394.9 2476.1 2354.35
5669.89 1355.99 1435.71 2345.83 2348.16
5672.77 1406.99 1414.17 2222.54 2307.53
5675.64 1479.52 1414.54 2354.21 2307.88
5678.52 1357.12 1448.46 2346.89 2362.26
5681.39 1508.75 1453.95 2385.69 2367.25
5684.27 1495.98 1522.06 2369.18 2384.58
5687.14 1561.46 1489.14 2398.87 2334.43
5690.01 1409.99 1488.11 2235.25 2326.68
5692.89 1492.9 1451.52 2345.92 2367.48
5695.76 1451.68 1484.64 2521.26 2413.72
5698.64 1509.33 1431.99 2373.97 2386.46
5701.51 1334.95 1390.91 2264.15 2307.89
5704.38 1328.46 1376.37 2285.55 2289.57
5707.26 1465.7 1393.01 2319.03 2337.33
5710.13 1384.87 1472.85 2407.4 2385.5
5713 1567.97 1507.93 2430.07 2435.94
5715.88 1570.95 1499.74 2470.35 2421.88
5718.75 1360.32 1510.72 2365.21 2410.24
5721.62 1600.89 1502.53 2395.15 2402.54
5724.5 1546.4 1567.35 2447.26 2412.1
5727.37 1554.76 1536.11 2393.87 2393.82
5730.24 1507.16 1555.67 2340.34 2407.47
5733.11 1605.08 1552.48 2488.2 2404.75
5735.99 1545.2 1593.7 2385.7 2475.81
5738.86 1630.83 1565.31 2553.54 2450.03
5741.73 1519.89 1556.72 2410.86 2446.76
5744.6 1519.44 1551.42 2375.88 2426.69
5747.47 1614.92 1562.92 2493.33 2421.75
5750.35 1554.39 1571.98 2396.05 2425.02
5753.22 1546.63 1561.24 2385.68 2424.92
5756.09 1582.69 1583.39 2493.03 2455.64
5758.96 1620.86 1600.88 2488.21 2478.5
5761.83 1599.1 1586.91 2454.26 2452.83
5764.7 1540.78 1571.79 2416.02 2444.46
5767.57 1575.5 1559.78 2463.11 2423.33
5770.45 1563.05 1538.77 2390.85 2385.8
5773.32 1477.76 1512.62 2303.44 2346.87
5776.19 1497.06 1462.46 2346.33 2340.45
5779.06 1412.55 1516.09 2371.57 2414.47
5781.93 1638.67 1527.74 2525.5 2409.03
5784.8 1531.99 1578.75 2330.02 2423.96
5787.67 1565.58 1541.96 2416.37 2371.79
5790.54 1528.3 1482.67 2368.97 2352.95
5793.41 1354.14 1473.82 2273.5 2331.5
5796.28 1539.03 1493.21 2352.02 2348.19
5799.15 1586.47 1499.42 2419.06 2357.38
5802.02 1372.76 1503.5 2301.05 2356.16
5804.89 1551.28 1485.97 2348.37 2354.21
5807.76 1533.88 1465.71 2413.2 2328
5810.63 1311.98 1421.65 2222.42 2272.76
5813.5 1419.09 1366.22 2182.67 2247.39
5816.37 1367.57 1421.7 2337.08 2249.59
5819.24 1478.43 1437.59 2229.03 2274.2
5822.11 1466.76 1450.58 2256.5 2219.75
5824.98 1406.54 1427.59 2173.72 2216.01
5827.85 1409.46 1416.73 2217.81 2204.54
5830.71 1434.19 1374.81 2222.09 2212.94
5833.58 1280.77 1363 2198.91 2197.21
5836.45 1374.03 1363.16 2170.63 2202.64
5839.32 1434.68 1347.22 2238.37 2170.86
5842.19 1232.95 1345.28 2103.59 2155.71
5845.06 1368.23 1271.52 2125.18 2114.47
5847.93 1213.37 1298.75 2114.63 2089.86
5850.79 1314.65 1288.96 2029.77 2080.81
5853.66 1338.87 1325.31 2098.02 2057.52
5856.53 1322.4 1349.92 2044.75 2122.06
5859.4 1388.5 1363.78 2223.4 2160.5
5862.26 1380.45 1365.81 2213.33 2186.41
5865.13 1328.48 1364.89 2122.48 2170.16
5868 1385.76 1290.91 2174.68 2112.85
5870.87 1158.49 1299.89 2041.41 2069.13
5873.73 1355.42 1237.27 1991.3 2029.59
5876.6 1197.9 1313.78 2056.06 2064.56
5879.47 1388.03 1317.47 2146.32 2196.17
5882.34 1366.49 1341.73 2386.11 2284.76
5885.2 1270.68 1337.7 2321.83 2409.9
5888.07 1375.92 1201.09 2521.76 2331.58
5890.93 956.678 1207.99 2151.16 2205.29
5893.8 1291.38 1099.33 1942.94 1964.84
5896.67 1049.94 1219.5 1800.42 1825.47
5899.53 1317.18 1228.58 1733.05 1777.36
5902.4 1318.61 1314.09 1798.59 1791.44
5905.27 1306.46 1311.46 1842.68 1855.43
5908.13 1309.31 1284.99 1925.02 1952.67
5911 1239.21 1353.54 2090.32 2101.39
5913.86 1512.11 1378.99 2288.83 2153.77
5916.73 1385.66 1360.57 2082.16 2140.44
5919.59 1183.95 1333.8 2050.34 2082.61
5922.46 1431.78 1359.34 2115.34 2140.27
5925.32 1462.28 1364.75 2255.15 2191.92
5928.19 1200.19 1378.08 2205.27 2247.21
5931.05 1471.77 1362.87 2281.21 2206.82
5933.92 1416.63 1451.45 2133.97 2194.36
5936.78 1465.93 1422.17 2167.91 2138.56
5939.65 1383.96 1437.23 2113.81 2137.96
5942.51 1461.8 1434.77 2132.16 2152.69
5945.38 1458.55 1445.23 2212.09 2189.41
5948.24 1415.35 1473.12 2223.99 2252.34
5951.11 1545.46 1488.85 2320.96 2265.28
5953.97 1505.75 1474.76 2250.89 2278.01
5956.83 1373.08 1483.91 2262.18 2269.05
5959.7 1572.9 1473.56 2294.08 2252.74
5962.56 1474.69 1506.61 2201.95 2221.3
5965.43 1472.23 1441.09 2167.88 2220.19
5968.29 1376.36 1457.18 2290.74 2274.71
5971.15 1522.95 1420.34 2365.51 2332.07
5974.02 1361.7 1469.06 2339.97 2326.02
5976.88 1522.52 1482.95 2272.58 2319.67
5979.74 1564.62 1548.56 2346.45 2320.59
5982.6 1558.54 1537.41 2342.73 2300.59
5985.47 1489.08 1527.01 2212.6 2278.63
5988.33 1533.41 1528.25 2280.56 2276.03
5991.19 1562.26 1558.49 2334.92 2323.09
5994.05 1579.8 1560.68 2353.8 2347.48
5996.92 1539.98 1537.37 2353.74 2323.97
5999.78 1492.32 1517.98 2264.38 2298.68
6002.64 1521.65 1516.96 2277.9 2287.58
6005.5 1536.92 1527.94 2320.46 2289.97
6008.37 1525.25 1496.36 2271.55 2296.8
6011.23 1426.9 1503.24 2298.39 2293.8
6014.09 1557.56 1512.8 2311.45 2294.5
6016.95 1553.94 1550.18 2273.67 2280.75
6019.81 1539.02 1539.13 2257.12 2286.62
6022.67 1524.42 1532.44 2329.08 2292.46
6025.53 1533.88 1508.86 2291.17 2282.77
6028.39 1468.29 1463.75 2228.07 2266.71
6031.26 1389.08 1460.87 2280.9 2279.38
6034.12 1525.25 1481.43 2329.16 2296.65
6036.98 1529.95 1524.99 2279.89 2288.07
6039.84 1519.75 1495.37 2255.17 2233.47
6042.7 1436.4 1476.58 2165.34 2214.49
6045.56 1473.6 1451.96 2222.97 2178.43
6048.42 1445.89 1488.01 2146.99 2209.53
6051.28 1544.56 1488.39 2258.63 2196.13
6054.14 1474.72 1504.98 2182.76 2233.65
6057 1495.67 1465.26 2259.57 2201.22
6059.86 1425.4 1472.72 2161.32 2212.13
6062.72 1497.11 1467.78 2215.5 2194.39
6065.58 1480.83 1462.97 2206.34 2176.35
6068.44 1410.96 1446.06 2107.22 2165.4
6071.3 1446.4 1433.52 2182.64 2155.09
6074.15 1443.2 1399.58 2175.43 2178.59
6077.01 1309.15 1344.37 2177.71 2167.16
6079.87 1280.76 1286.24 2148.35 2146.44
6082.73 1268.82 1308.46 2113.27 2102.25
6085.59 1375.79 1334.33 2045.13 2047.52
6088.45 1358.38 1366.46 1984.16 2012.38
6091.31 1365.21 1383.69 2007.84 2036.77
6094.16 1427.47 1344.72 2118.32 2004.1
6097.02 1241.47 1323.84 1886.14 2008.34
6099.88 1302.57 1264.67 2020.56 1938.64
6102.74 1249.98 1262.22 1909.22 1923.74
6105.6 1234.09 1220.34 1841.44 1843.02
6108.45 1176.96 1186.4 1778.41 1787.01
6111.31 1148.16 1155.44 1741.18 1737.66
6114.17 1141.2 1151.73 1693.4 1738.83
6117.03 1165.82 1146.7 1781.91 1715.87
6119.88 1133.09 1123.34 1672.3 1673.55
6122.74 1071.12 1086.94 1566.43 1614.72
6125.6 1056.62 1028.25 1605.43 1596.75
6128.45 957.006 998.077 1618.39 1585.72
6131.31 980.604 992.218 1533.33 1587.65
6134.17 1039.04 1018.73 1611.24 1587.77
6137.02 1036.54 994.121 1618.75 1563.84
6139.88 906.782 970.175 1461.52 1524.55
6142.74 967.206 919.219 1493.38 1434.9
6145.59 883.67 880.893 1349.82 1409.8
6148.45 791.804 836.302 1386.21 1339.4
6151.3 833.43 830.848 1282.19 1323.63
6154.16 867.309 835.905 1302.49 1283.69
6157.02 806.975 843.633 1266.4 1299.64
6159.87 856.616 816.377 1330.02 1278.08
6162.73 785.542 814.556 1237.83 1291.35
6165.58 801.51 725.67 1306.18 1255.93
6168.44 589.96 727.534 1223.77 1263.69
6171.29 791.132 716.165 1261.12 1230.98
6174.15 767.404 753.734 1208.06 1172.87
6177 702.664 737.182 1049.43 1128.48
6179.86 741.478 738.099 1127.95 1111.74
6182.71 770.155 753.839 1157.85 1146.72
6185.56 749.885 738.119 1154.38 1130.35
6188.42 694.318 656.112 1078.83 1094.11
6191.27 524.133 626.478 1049.11 1064.49
6194.13 660.982 602.48 1065.53 1053.01
6196.98 622.323 654.128 1044.4 1068.64
6199.83 679.078 600.374 1095.99 1060.43
6202.69 499.72 599.526 1040.89 1056.83
6205.54 619.78 582.668 1033.61 1033.44
6208.39 628.504 614.019 1025.81 1018.52
6211.25 593.774 604.888 996.145 1003.66
6214.1 592.387 610.489 989.022 998.296
6216.95 645.307 607.211 1009.72 979.49
6219.81 583.939 618.946 939.725 987.351
6222.66 627.592 591.977 1012.61 957.288
6225.51 564.401 588.354 919.532 986.607
6228.36 573.07 522.487 1027.68 1014.72
6231.22 429.989 535.361 1096.93 1063.58
6234.07 603.022 545.67 1066.12 1057.2
6236.92 603.999 587.92 1008.54 990.773
6239.77 556.74 550.504 897.662 921.436
6242.62 490.775 535.308 858.103 906.366
6245.47 558.409 528.495 963.332 931.267
6248.33 536.302 533.602 972.366 977.238
6251.18 506.095 520.093 996.016 1027.27
6254.03 517.883 516.232 1113.41 1076.12
6256.88 524.719 526.119 1118.94 1099.87
6259.73 535.756 541.014 1067.25 1091.15
6262.58 562.568 553.012 1087.26 1051.81
6265.43 560.713 568.999 1000.93 1047.29
6268.28 583.716 570.304 1053.7 1035.2
6271.13 566.481 558.391 1050.98 1037.32
6273.98 524.975 553.417 1007.28 1043.12
6276.83 568.795 565.566 1071.09 1101
6279.68 602.93 590.508 1224.63 1182.85
6282.53 599.8 593.468 1252.83 1224.92
6285.38 577.675 599.796 1197.31 1253.03
6288.23 621.912 613.036 1308.95 1540.26
6291.08 639.52 658.143 2114.51 2182.48
6293.93 712.996 702.964 3123.98 2909.3
6296.78 756.376 748.726 3489.4 3072.76
6299.63 776.806 755.002 2604.89 2291.71
6302.48 731.825 751.729 780.828 1112.02
6305.33 746.556 743.179 -49.6628 237.693
6308.18 751.155 746.228 -18.0848 109.462
6311.03 740.974 765.341 396.133 385.317
6313.87 803.895 773.356 777.903 706.125
6316.72 775.2 788.868 944.34 948.86
6319.57 787.51 806.807 1124.34 1162.04
6322.42 857.712 814.668 1417.45 1334.26
6325.27 798.781 835.499 1460.99 1459.74
6328.11 850.005 834.999 1500.79 1489.03
6330.96 856.211 872.388 1505.32 1522.98
6333.81 910.946 900.141 1562.82 1537.65
6336.66 933.265 930.028 1544.82 1560.78
6339.5 945.872 931.923 1574.71 1573.48
6342.35 916.632 926.881 1600.92 1620.36
6345.2 918.139 909.272 1685.46 1651.48
6348.04 893.044 935.651 1668.07 1715.58
6350.89 995.77 938.468 1793.21 1780.59
6353.74 926.591 979.253 1880.5 1996.48
6356.58 1015.4 977.587 2315.72 2178.48
6359.43 990.773 990.794 2339.23 2257.61
6362.28 966.211 1027.9 2117.88 2065.73
6365.12 1126.72 1048.96 1740.1 1726.15
6367.97 1053.94 1059.41 1320.47 1448.72
6370.82 997.557 1050.9 1285.61 1392.38
6373.66 1101.2 1053.67 1571.07 1515.04
6376.51 1062.24 1092.34 1688.43 1656.67
6379.35 1113.58 1091.63 1710.5 1731.24
6382.2 1099.08 1124.34 1794.77 1788.58
6385.04 1160.36 1155.85 1860.45 1864.71
6387.89 1208.12 1155.91 1938.91 1880.77
6390.73 1099.24 1149.67 1842.95 1892.15
6393.58 1141.64 1133.39 1894.59 1894.58
6396.42 1159.3 1148 1946.21 1920.18
6399.27 1143.06 1165.29 1919.73 1957.68
6402.11 1193.5 1151.66 2007.1 1962.9
6404.95 1118.41 1156.75 1961.88 1985.04
6407.8 1158.33 1151.11 1986.15 1981.53
6410.64 1176.59 1174.81 1996.57 1996.38
6413.49 1189.5 1189.22 2006.41 2005.52
6416.33 1201.59 1193.13 2013.59 2008.35
6419.17 1188.31 1177.74 2005.07 1987.41
6422.02 1143.32 1165.75 1943.58 1978.99
6424.86 1165.63 1166.03 1988.32 1979.97
6427.7 1189.14 1197.34 2008 2015.79
6430.54 1237.24 1207.32 2051.05 2017.4
6433.39 1195.59 1222.68 1993.15 2020.49
6436.23 1235.21 1194.69 2017.26 1994.06
6439.07 1153.27 1221.97 1971.77 2031.57
6441.91 1277.44 1212.64 2105.69 2032.35
6444.76 1207.22 1220.79 2019.59 2031.3
6447.6 1177.71 1205.91 1968.63 2023.07
6450.44 1232.78 1223.44 2081 2060.81
6453.28 1259.83 1230.02 2132.81 2094.9
6456.12 1197.45 1212.24 2070.9 2092.36
6458.97 1179.45 1190.08 2073.36 2059.8
6461.81 1193.33 1200.97 2035.13 2069.21
6464.65 1230.12 1189.87 2099.15 2045.89
6467.49 1146.16 1183.38 2003.38 2001.86
6470.33 1173.85 1178.97 1903.06 1964.98
6473.17 1216.91 1225.35 1988.49 1967.27
6476.01 1285.3 1246.52 2010.26 1993.22
6478.85 1237.37 1261.14 1980.89 1988.96
6481.69 1260.77 1239.47 1975.72 1965.64
6484.53 1220.26 1233.58 1940.3 1969.86
6487.37 1219.71 1223.15 1993.56 2002.83
6490.21 1229.49 1204.3 2074.64 2059.18
6493.05 1163.71 1221.92 2109.34 2121.53
6495.89 1272.58 1227.5 2180.61 2131.8
6498.73 1246.23 1245.58 2105.46 2099.6
6501.57 1217.94 1212.9 2012.74 2016.87
6504.41 1174.53 1202.86 1932.41 1960.67
6507.25 1216.11 1205.91 1936.87 1932.59
6510.09 1227.08 1235.64 1928.5 1939.68
6512.93 1263.74 1223.84 1953.67 1964.56
6515.77 1180.71 1227.24 2011.51 2008.33
6518.6 1237.27 1207.7 2059.8 2025.54
6521.44 1205.11 1217.04 2005.31 2024.78
6524.28 1208.74 1207.91 2009.23 2010.15
6527.12 1209.86 1208.84 2015.91 2010.39
6529.96 1207.91 1239.72 2006.02 2028.98
6532.8 1301.38 1244.27 2065.01 2000.61
6535.63 1223.53 1225.48 1930.8 1932.76
6538.47 1151.52 1202.08 1802.48 1897.61
6541.31 1231.19 1180.11 1959.56 1896.18
6544.14 1157.62 1188.05 1926.51 1956.75
6546.98 1175.35 1191.43 1984.17 1982.41
6549.82 1241.32 1176.63 2036.54 1987.15
6552.66 1113.22 1171.35 1940.75 1959.97
6555.49 1159.53 1138.6 1902.64 1880.8
6558.33 1143.07 1145.96 1799.02 1844.28
6561.17 1135.27 1156.81 1831.2 1826.85
6564 1192.08 1168.33 1850.35 1834.26
6566.84 1177.65 1150.07 1821.23 1789.31
6569.67 1080.49 1112.36 1696.36 1770.03
6572.51 1078.93 1093.37 1792.51 1766.13
6575.34 1120.69 1134.34 1809.53 1812.25
6578.18 1203.39 1162.5 1834.71 1809.99
6581.02 1163.43 1165.3 1785.72 1800.62
6583.85 1129.07 1153.05 1781.43 1782.1
6586.69 1166.66 1149.92 1779.16 1779.88
6589.52 1154.04 1146.26 1779.06 1783.89
6592.36 1118.07 1119.07 1793.44 1764.78
6595.19 1085.09 1077.34 1721.84 1748.23
6598.02 1028.85 1080.73 1729.39 1760.01
6600.86 1128.25 1113.39 1828.8 1802.57
6603.69 1183.05 1135.86 1849.5 1796.89
6606.53 1096.27 1145.78 1712.37 1766.24
6609.36 1158.03 1116.46 1736.83 1717.62
6612.19 1095.08 1098.64 1703.66 1702.54
6615.03 1042.83 1095.86 1667.14 1705.35
6617.86 1149.67 1085.46 1745.26 1702.37
6620.69 1063.87 1116 1694.71 1727.73
6623.53 1134.45 1083.45 1743.22 1698.72
6626.36 1052.04 1103.89 1658.23 1719.7
6629.19 1125.18 1102.17 1757.64 1734.01
6632.03 1129.3 1128.49 1786.14 1770.27
6634.86 1130.99 1108.39 1767.03 1741.2
6637.69 1064.88 1113.95 1670.44 1730.18
6640.52 1145.99 1117.81 1753.08 1736.41
6643.35 1142.55 1127.95 1785.71 1742.86
6646.19 1095.32 1106.21 1689.78 1727.43
6649.02 1080.76 1077.04 1706.8 1678.89
6651.85 1055.04 1065.42 1640.09 1667.76
6654.68 1060.45 1045.24 1656.4 1631.58
6657.51 1020.24 1055.28 1598.24 1642.83
6660.34 1085.15 1053.3 1673.85 1666.11
6663.17 1054.51 1064.93 1726.22 1680.33
6666.01 1055.12 1056.95 1640.91 1668.11
6668.84 1061.22 1043.04 1637.21 1609.65
6671.67 1012.79 1047.36 1550.83 1606.24
6674.5 1068.08 1067.09 1630.7 1623.13
6677.33 1120.4 1088.47 1687.86 1664.16
6680.16 1076.92 1082.01 1673.93 1666.54
6682.99 1048.72 1072.76 1637.82 1661
6685.82 1092.64 1059.02 1671.24 1637.97
6688.65 1035.69 1070.13 1604.86 1636.34
6691.48 1082.07 1071.98 1632.94 1641.99
6694.31 1098.17 1093.8 1688.18 1676.78
6697.13 1101.16 1070.55 1709.22 1667.31
6699.96 1012.3 1076 1604.52 1667.87
6702.79 1114.53 1056.03 1689.88 1626.31
6705.62 1041.25 1080.42 1584.54 1648.12
6708.45 1085.47 1066.6 1669.94 1618.88
6711.28 1073.06 1068.36 1602.18 1645.46
6714.11 1046.55 1042.37 1664.25 1601.28
6716.93 1007.49 1022.25 1537.42 1582.59
6719.76 1012.72 1035.53 1546.1 1583.43
6722.59 1086.37 1026.58 1666.78 1579.27
6725.42 980.65 1049.39 1524.93 1605.73
6728.24 1081.16 1026.93 1625.49 1576.89
6731.07 1018.99 1047.48 1580.25 1598.08
6733.9 1042.31 1034.26 1588.48 1593.11
6736.73 1041.47 1035.89 1610.6 1601.62
6739.55 1023.9 1027.96 1605.78 1573.56
6742.38 1018.5 1030.39 1504.29 1580.55
6745.21 1048.76 1044.25 1631.58 1575.82
6748.03 1065.49 1025.85 1591.59 1572.87
6750.86 963.307 1019.83 1495.44 1557.09
6753.68 1030.69 1004.6 1584.23 1557.21
6756.51 1019.81 1015.54 1591.96 1585.43
6759.34 996.132 1012.66 1580.11 1566.65
6762.16 1022.05 1006.22 1527.87 1554.32
6764.99 1000.47 1007.62 1555 1556.03
6767.81 1000.34 1005.1 1585.23 1572.04
6770.64 1014.48 1020.46 1575.9 1577.62
6773.46 1046.56 1046.8 1571.73 1579.65
6776.29 1079.37 1030.64 1591.3 1551.83
6779.11 965.99 1020.25 1492.44 1532.38
6781.94 1015.4 1004.76 1513.4 1513.66
6784.76 1032.89 1023.42 1535.15 1536.36
6787.58 1021.96 1016.88 1560.53 1535.14
6790.41 995.798 1004.71 1509.74 1518.78
6793.23 996.375 995.964 1486.07 1486.73
6796.06 995.718 991.893 1464.38 1483.98
6798.88 983.585 973.227 1501.48 1484.6
6801.7 940.379 953.685 1487.93 1470.14
6804.53 937.091 941.829 1421 1452.29
6807.35 948.018 956.192 1447.95 1442.3
6810.17 983.466 963.913 1457.95 1446.57
6812.99 960.254 960.523 1433.81 1428.82
6815.82 937.85 978.268 1394.7 1455.25
6818.64 1036.7 992.203 1537.25 1516.94
6821.46 1002.06 998.321 1618.86 1571.32
6824.28 956.205 972.082 1557.86 1585.77
6827.11 957.984 966.925 1580.58 1531.77
6829.93 986.587 952.906 1456.87 1486.05
6832.75 914.147 935.628 1420.69 1383.5
6835.57 906.148 934.835 1272.93 1352.35
6838.39 984.21 955.68 1363.43 1347.13
6841.21 976.681 974.453 1405.03 1341.82
6844.03 962.47 964.154 1257 1335.54
6846.85 953.311 983.702 1344.58 1335.5
6849.68 1035.33 981.563 1404.93 1339.46
6852.5 956.051 970.458 1268.89 1339.07
6855.32 919.995 931.955 1343.4 1342.86
6858.14 919.818 920.173 1416.3 1376.84
6860.96 920.705 883.364 1370.81 1333.94
6863.78 809.57 857.603 1214.71 1243.62
6866.6 842.534 793.307 1145.35 1131.5
6869.41 727.815 772.003 1034.44 1085.87
6872.23 745.661 737.117 1077.81 1051.45
6875.05 737.877 753.292 1042.09 1070.83
6877.87 776.338 779.373 1092.59 1107.28
6880.69 823.904 796.569 1187.15 1126.8
6883.51 789.467 804.042 1100.65 1140.52
6886.33 798.757 799.97 1133.76 1125.53
6889.15 811.687 807.672 1142.16 1133.5
6891.96 812.571 807.917 1124.58 1129.68
6894.78 799.493 832.176 1122.29 1157.21
6897.6 884.465 840.032 1224.74 1180.78
6900.42 836.138 857.461 1195.31 1212.95
6903.24 851.779 839.084 1218.8 1204.25
6906.05 829.335 822.526 1198.64 1170.98
6908.87 786.463 802.957 1095.49 1142.68
6911.69 793.073 824.662 1133.91 1204.51
6914.5 894.449 845.826 1384.14 1250.17
6917.32 849.955 874.42 1232.47 1285.99
6920.14 878.855 873.369 1241.36 1267.26
6922.95 891.298 877.256 1327.94 1273.96
6925.77 861.616 863.726 1252.58 1268.6
6928.59 838.264 863.27 1225.29 1261.21
6931.4 889.93 877.573 1305.75 1272.71
6934.22 904.526 895.654 1287.07 1312.54
6937.03 892.506 876.193 1344.8 1290.33
6939.85 831.548 858.421 1239.13 1289.42
6942.66 851.208 872.1 1284.32 1277.91
6945.48 933.545 859.314 1310.29 1260.14
6948.29 793.188 859.606 1185.81 1230.89
6951.11 852.085 838.742 1196.57 1203.24
6953.92 870.954 892.422 1227.34 1266.03
6956.74 954.227 893.133 1374.17 1281.54
6959.55 854.218 896.664 1243.1 1294.51
6962.36 881.547 871.574 1266.27 1261.31
6965.18 878.956 883.135 1274.57 1269.03
6967.99 888.9 883.856 1266.25 1259.62
6970.8 883.712 868.144 1238.03 1249.07
6973.62 831.821 844.956 1242.94 1224.08
6976.43 819.336 829.111 1191.28 1212.32
6979.24 836.175 833.87 1202.75 1193.3
6982.06 846.1 847.21 1185.88 1209.29
6984.87 859.354 862.6 1239.23 1226.33
6987.68 882.346 846.127 1253.87 1215.92
6990.49 796.681 844.889 1154.66 1211.65
6993.31 855.639 823.442 1226.42 1202.12
6996.12 818.005 834.127 1225.28 1199.03
6998.93 828.737 836.963 1145.39 1187.99
7001.74 864.146 825.871 1193.31 1169.23
7004.55 784.728 832.297 1168.99 1175.02
7007.36 848.017 828.885 1162.77 1192.06
7010.17 853.911 842.886 1244.41 1191.61
7012.99 826.73 845.418 1167.63 1209.53
7015.8 855.614 830.162 1216.54 1173.87
7018.61 808.143 840.294 1137.45 1182.59
7021.42 857.124 828.358 1193.78 1166.9
7024.23 819.807 836.64 1169.46 1180.33
7027.04 832.991 827.914 1177.76 1171.98
7029.85 830.945 834.015 1168.72 1177.21
7032.66 838.108 825.508 1185.16 1168.29
7035.47 807.471 836.461 1151 1175.01
7038.28 863.803 816.236 1188.88 1141.31
7041.08 777.435 808.409 1084.07 1130.87
7043.89 783.989 802.729 1119.67 1140.02
7046.7 846.763 818.199 1216.33 1149.12
7049.51 823.847 831.342 1111.36 1167.54
7052.32 823.415 804.54 1174.92 1117.94
7055.13 766.358 805 1067.53 1112.14
7057.94 825.227 796.482 1093.96 1098.95
7060.74 797.862 819.721 1135.36 1133.04
7063.55 836.076 807.555 1169.79 1130.84
7066.36 788.728 828.217 1087.36 1136.03
7069.17 859.849 801.746 1150.94 1094.32
7071.97 756.661 810.816 1044.65 1096.22
7074.78 815.937 789.103 1093.07 1057.31
7077.59 794.712 785.661 1034.21 1024.18
7080.39 746.333 787.227 945.258 1013
7083.2 820.638 798.842 1059.53 1024.27
7086.01 829.556 808.908 1068.02 1037.48
7088.81 776.532 792.468 984.885 999.974
7091.62 771.316 764.856 947.023 969.169
7094.42 746.721 784.408 975.601 996.899
7097.23 835.186 775.461 1068.07 1001.19
7100.04 744.476 781.362 959.903 994.651
7102.84 764.425 764.69 955.976 973.177
7105.65 785.168 761.486 1003.65 968.401
7108.45 734.865 765.131 945.576 992.704
7111.26 775.36 758.038 1028.88 979.682
7114.06 763.89 768.694 964.587 978.955
7116.86 766.83 772.396 943.395 962.582
7119.67 786.469 784.503 979.763 996.483
7122.47 800.209 690.688 1066.29 934.162
7125.28 485.386 665.824 756.432 912.871
7128.08 711.878 582.464 915.89 858.685
7130.88 550.129 683.026 903.732 940.361
7133.69 787.072 710.878 1001.46 983.197
7136.49 795.433 777.984 1044.4 1010.82
7139.29 751.446 756.658 986.59 1013.33
7142.1 723.094 738.19 1008.99 1001.31
7144.9 740.029 739.281 1008.34 1000.69
7147.7 754.718 769.233 984.743 1020
7150.5 812.953 763.688 1066.9 1010.93
7153.3 723.394 759.925 981.144 1011.47
7156.11 743.428 739.521 986.354 994.438
7158.91 751.74 750.019 1015.82 1013.7
7161.71 754.888 756.985 1038.94 1026.92
7164.51 764.326 730.644 1026.01 1005.31
7167.31 672.718 721.666 950.973 998.256
7170.11 727.954 714.108 1017.78 1008.62
7172.91 741.653 725.371 1057.1 1018.25
7175.71 706.505 710.61 979.879 994.491
7178.51 683.672 707.075 946.492 987.896
7181.31 731.049 702.134 1037.32 973.497
7184.11 691.681 727.617 936.682 997.457
7186.91 760.123 728.97 1018.37 971.905
7189.71 735.107 751.639 960.663 1006.6
7192.51 759.688 757.25 1040.77 1010.28
7195.31 776.955 723.334 1029.4 995.544
7198.11 633.36 713.04 916.459 974.836
7200.91 728.804 680.484 978.644 945.519
7203.71 679.29 702.1 941.454 957.656
7206.51 698.207 705.354 952.872 965.169
7209.31 738.564 720.289 1001.18 980.304
7212.1 724.097 721.25 986.859 984.809
7214.9 701.09 676.759 966.388 983.589
7217.7 605.091 640.316 997.521 1002.26
7220.5 614.765 605.196 1042.89 1001.25
7223.3 595.731 585.592 963.348 971.503
7226.09 546.28 563.217 908.276 932.232
7228.89 547.639 557.223 925.071 860.169
7231.69 577.749 552.899 747.161 809.851
7234.48 533.309 546.988 757.32 765.38
7237.28 529.905 550.827 791.658 846.97
7240.08 589.265 564.04 991.933 968.151
7242.87 572.948 576.044 1120.86 1065.38
7245.67 565.92 551.894 1083.34 1093.86
7248.46 516.813 541.604 1077.38 1080.79
7251.26 542.079 545.753 1081.65 1052.33
7254.05 578.367 566.865 997.949 1020.81
7256.85 580.151 572.954 982.844 961.677
7259.64 560.345 546.928 904.236 913.956
7262.44 500.289 541.61 854.786 831.114
7265.23 564.196 543.478 734.318 742.92
7268.03 565.947 558.445 639.656 698.78
7270.82 545.191 572.691 722.367 794.02
7273.62 606.933 577.401 1020.04 931.829
7276.41 580.08 560.937 1053.08 1053.77
7279.2 495.797 536.877 1088.18 1034.98
7282 534.754 528.467 963.673 1051.33
7284.79 554.85 527.154 1102.14 992.532
7287.58 491.86 537.697 911.784 984.309
7290.38 566.383 540.064 939.004 907.426
7293.17 561.95 576.83 871.491 894.458
7295.96 602.158 573.103 872.877 902.332
7298.75 555.2 564.299 962.627 898.684
7301.55 535.537 552.19 860.548 891.486
7304.34 565.832 560.926 851.281 805.777
7307.13 581.408 565.614 705.501 732.166
7309.92 549.602 579.49 639.716 769.066
7312.71 607.46 579.844 961.982 882.38
7315.5 582.47 567.286 1045.44 992.839
7318.29 511.927 525.432 971.092 965.601
7321.09 481.9 518.07 880.269 896.785
7323.88 560.384 528.575 838.995 864.624
7326.67 543.441 552.604 874.608 833.474
7329.46 553.986 557.142 786.818 773.514
7332.25 573.997 579.533 659.117 711.119
7335.04 610.615 582.77 687.421 744.542
7337.83 563.696 592.938 887.089 945.257
7340.62 604.504 569.395 1261.26 1087.24
7343.4 539.984 549.804 1113.38 1105.68
7346.19 504.923 524.254 942.399 971.62
7348.98 527.854 506.09 859.082 842.168
7351.77 485.492 525.931 725.023 805.401
7354.56 564.446 538.886 832.097 800.18
7357.35 566.719 553.559 843.421 774.78
7360.14 529.512 529.687 648.822 698.913
7362.92 492.829 516.068 604.496 696.153
7365.71 525.862 521.195 835.141 821.132
7368.5 544.895 567.632 1023.76 1000.98
7371.29 632.139 542.768 1144.03 1024.34
7374.07 451.271 520.474 905.224 964.835
7376.86 478.012 483.026 845.253 848.015
7379.65 519.794 508.215 793.567 786.069
7382.43 526.839 532.39 719.388 756.739
7385.22 550.538 526.816 757.263 742.542
7388.01 503.07 512.509 750.975 727.477
7390.79 483.919 489.371 674.192 702.357
7393.58 481.124 485.747 681.903 685.548
7396.36 492.198 515.122 700.549 778.905
7399.15 572.046 528.431 954.263 886.375
7401.93 521.05 539.254 1004.31 963.667
7404.72 524.668 516.168 932.426 953.907
7407.5 502.785 515.625 924.984 895.936
7410.29 519.422 522.594 830.398 869.811
7413.07 545.576 517.001 854.052 828.092
7415.86 486.005 504.621 799.827 793.172
7418.64 482.283 484.525 725.637 728.804
7421.42 485.287 506.43 660.948 702
7424.21 551.719 505.039 719.415 700.764
7426.99 478.112 518.62 721.929 718.424
7429.77 526.028 506.855 713.927 717.51
7432.56 516.427 505.693 716.674 747.414
7435.34 474.625 494.324 811.641 800.492
7438.12 491.92 481.191 873.161 837.038
7440.9 477.029 486.276 826.311 824.083
7443.69 489.879 469.691 772.778 779.33
7446.47 442.164 466.798 738.902 740.955
7449.25 468.35 464.257 711.185 716.486
7452.03 482.257 479.763 699.369 698.686
7454.81 488.681 484.464 685.504 685.451
7457.59 482.455 484.257 671.48 664.043
7460.37 481.636 485.695 635.144 647.322
7463.15 492.993 483.574 635.342 635.842
7465.93 476.094 486.483 637.041 664.876
7468.72 490.362 476.52 722.244 681.644
7471.5 463.104 467.798 685.645 663.696
7474.28 449.927 453.986 583.199 639.662
7477.05 448.928 465.684 650.141 700.977
7479.83 498.197 465.56 869.591 774.187
7482.61 449.554 474.666 802.829 817.429
7485.39 476.246 451.86 779.868 776.753
7488.17 429.779 450.934 747.563 727.739
7490.95 446.775 432.032 655.787 701.013
7493.73 419.541 444.492 699.688 696.983
7496.51 467.16 434.478 735.476 703.927
7499.28 416.733 444.005 676.619 692.855
7502.06 448.12 437.827 666.471 658.023
7504.84 448.628 447.205 630.978 641.481
7507.62 444.868 442.49 626.994 599.819
7510.39 433.973 440.659 541.484 526.372
7513.17 443.135 434.198 410.637 417.422
7515.95 425.485 435.432 300.144 382.562
7518.73 437.676 432.662 436.903 447.094
7521.5 434.827 432.555 604.236 633.744
7524.28 425.163 414.006 860.094 769.736
7527.05 382.027 401.279 844.878 830.984
7529.83 396.647 404.14 787.981 798.94
7532.61 433.747 433.26 763.96 770.11
7535.38 469.385 455.311 758.39 727.904
7538.16 462.802 432.192 661.362 676.788
7540.93 364.39 426.417 610.611 637.449
7543.71 452.061 413.967 640.376 604.097
7546.48 425.449 423.983 561.306 575.025
7549.25 394.439 409.251 523.392 565.509
7552.03 407.866 392.761 611.83 553.838
7554.8 375.979 386.794 526.293 568.988
7557.58 376.539 385.168 568.843 522.963
7560.35 402.987 377.239 473.752 461.795
7563.12 352.191 360.105 342.79 400.803
7565.9 325.137 365.523 385.868 434.292
7568.67 419.24 374.501 574.219 571.248
7571.44 379.125 374.395 753.656 668.063
7574.21 324.821 366.065 676.314 698.698
7576.99 394.249 355.851 666.125 613.561
7579.76 348.482 375.135 498.245 582.18
7582.53 382.673 360.442 582.171 550.474
7585.3 350.171 354.671 571.006 574.565
7588.07 331.169 326.738 570.519 520.462
7590.84 298.873 287.612 419.862 452.242
7593.61 232.793 245.767 366.346 401.576
7596.39 205.634 188.444 418.521 375.167
7599.16 126.904 148.709 340.635 329.301
7601.93 113.588 117.807 228.747 242.112
7604.7 112.928 121.467 156.952 173.442
7607.47 137.887 135.363 134.625 143.531
7610.24 155.275 165.442 139.016 170.345
7613.01 203.166 198.226 237.394 222.061
7615.77 236.237 221.046 289.773 280.578
7618.54 223.734 232.946 314.569 312.318
7621.31 238.866 224.432 332.614 317.829
7624.08 210.697 213.145 306.305 338.09
7626.85 189.871 201.031 375.351 340.696
7629.62 202.525 211.057 340.432 373.139
7632.39 240.776 216.099 403.633 354.262
7635.15 204.996 219.199 318.721 337.705
7637.92 211.825 210.741 290.76 305.718
7640.69 215.402 217.467 307.672 293.396
7643.46 225.173 229.085 281.758 307.359
7646.22 246.68 248.942 332.647 318.999
7648.99 274.973 255.829 342.594 343.468
7651.76 245.834 266.636 355.162 335.927
7654.52 279.103 271.767 310.023 353.783
7657.29 290.365 297.248 396.163 407.626
7660.05 322.275 316.085 516.691 483.543
7662.82 335.614 339.11 537.773 531.781
7665.58 359.441 341.077 540.877 528.998
7668.35 328.174 335.119 508.345 514.383
7671.11 317.743 328.828 493.926 482.439
7673.88 340.568 332.149 445.048 446.208
7676.64 338.136 334.27 399.651 412.455
7679.41 324.106 328.04 392.666 412.085
7682.17 321.879 328.348 443.937 436.547
7684.94 339.058 334.947 473.037 461.134
7687.7 343.904 346.513 466.428 474.283
7690.46 356.578 354.362 483.385 495.873
7693.23 362.606 358.655 537.806 515.799
7695.99 356.782 356.42 526.204 504.474
7698.75 349.873 357.838 449.411 396.745
7701.51 366.858 368.508 214.619 180.241
7704.28 388.792 364.591 -123.307 -66.4081
7707.04 338.122 364.315 -290.537 -103.727
7709.8 366.032 362.541 102.663 174.889
7712.56 383.468 362.03 712.541 609.313
7715.32 336.59 366.455 1012.74 932.831
7718.09 379.306 358.673 1073.21 978.425
7720.85 360.124 367.457 849.323 902.758
7723.61 362.942 372.763 785.735 794.761
7726.37 395.223 385.206 749.226 710.232
7729.13 397.454 381.164 595.735 623.813
7731.89 350.815 365.409 526.479 536.506
7734.65 347.96 359.987 487.304 457.543
7737.41 381.186 365.213 358.847 258.366
7740.17 366.495 379.036 -71.0533 68.7509
7742.93 389.426 382.109 -81.5409 27.3837
7745.69 390.407 377.823 234.745 259.847
7748.44 353.636 391.332 626.336 603.89
7751.2 429.954 394.564 950.589 803.741
7753.96 400.103 398.077 834.298 845.293
7756.72 364.175 381.171 750.992 799.322
7759.48 379.236 376.551 812.675 747.736
7762.23 386.243 379.508 679.541 663.168
7764.99 373.045 379.308 497.287 551.919
7767.75 378.635 385.573 478.929 465.538
7770.51 405.039 377.64 420.398 438.775
7773.26 349.246 381.288 416.997 465.548
7776.02 389.58 391.043 559.249 526.729
7778.78 434.303 421.272 603.94 553.321
7781.53 439.932 430.448 496.774 427.499
7784.29 417.109 406.752 181.783 265.347
7787.04 363.216 400.462 117.483 250.208
7789.8 421.062 398.842 451.358 453.386
7792.55 412.249 421.931 791.319 738.882
7795.31 432.482 414.913 973.969 800.598
7798.06 400.007 393.705 636.506 677.676
7800.82 348.627 368.326 422.553 488.853
7803.57 356.343 379.324 407.5 461.984
7806.33 433.001 402.197 555.898 460.56
7809.08 417.247 414.17 418.281 377.164
7811.83 392.261 406.804 157.314 212.955
7814.59 410.905 422.024 63.269 225.692
7817.34 462.906 444.133 456.493 445.545
7820.09 458.587 439.554 816.874 770.824
7822.85 397.17 431.571 1039.11 922.076
7825.6 438.955 402.703 910.249 848.467
7828.35 371.984 383.306 596.047 634.416
7831.1 338.979 368.36 396.952 445.878
7833.85 394.116 378.978 344.637 379.491
7836.61 403.839 393.756 396.883 379.28
7839.36 383.314 404.498 396.319 330.946
7842.11 426.341 391.227 199.634 156.041
7844.86 364.027 405.411 -127.832 33.1341
7847.61 425.865 407.702 27.5996 107.507
7850.36 433.213 443.43 422.752 437.599
7853.11 471.213 403.997 862.444 721.719
7855.86 307.566 393.556 879.962 822.491
7858.61 401.89 368.608 725.066 723.382
7861.36 396.367 395.925 565.117 583.105
7864.11 389.516 411.018 459.133 539.173
7866.86 447.172 408.639 593.27 562.656
7869.61 389.23 418.094 635.566 626.014
7872.35 417.88 395.258 649.205 610.537
7875.1 378.665 406.816 546.841 556.169
7877.85 423.903 404.252 472.46 493.966
7880.6 410.19 426.439 462.597 481.89
7883.35 445.225 429.399 510.612 522.952
7886.09 432.782 431.137 595.648 600.412
7888.84 415.405 408.661 694.977 707.726
7891.59 377.795 386.816 832.555 729.787
7894.33 367.249 370.962 661.83 684.959
7897.08 367.844 382.827 560.491 520.283
7899.83 413.388 403.14 338.527 280.795
7902.57 428.19 422.872 -56.6324 -47.7446
7905.32 427.039 404.682 -425.129 -251.356
7908.06 358.819 400.892 -272.306 -131.438
7910.81 416.818 396.427 303.121 310.311
7913.55 413.646 399.861 900.118 739.485
7916.3 369.118 397.105 1015.22 958.349
7919.04 408.55 381.35 959.713 915.451
7921.79 366.383 391.393 771.425 767.216
7924.53 399.247 373.629 570.508 633.973
7927.28 355.257 388.985 559.985 582.76
7930.02 412.451 381.102 617.788 619.609
7932.76 375.597 406.309 681.056 623.372
7935.51 430.88 388.734 571.273 545.729
7938.25 359.726 396.443 384.857 434.819
7940.99 398.722 383.27 348.326 355.94
7943.73 391.362 376.396 334.636 388.308
7946.48 339.103 383.531 481.961 471.711
7949.22 420.127 378.838 598.534 488.178
7951.96 377.284 392.663 384.039 334.699
7954.7 380.579 372.855 21.5247 83.0048
7957.44 360.703 383.475 -156.549 25.0831
7960.18 409.142 363.33 210.274 201.093
7962.92 320.146 375.636 549.554 574.744
7965.67 397.621 361.585 964.404 759.579
7968.41 366.989 371.868 764.778 705.52
7971.15 350.993 358.569 387.378 504.724
7973.89 357.724 354.672 362.016 400.742
7976.63 355.299 367.579 452.831 462.906
7979.36 389.713 384.235 573.873 455.744
7982.1 407.693 383.253 340.528 285.172
7984.84 352.353 366.911 -58.8861 74.0523
7987.58 340.687 350.66 -59.4853 90.4412
7990.32 358.94 370.014 389.695 388.72
7993.06 410.415 371.16 835.951 738.59
7995.8 344.125 361.052 990.125 861.149
7998.53 328.616 326.51 757.371 759.619
8001.27 306.79 336.914 531.362 532.612
8004.01 375.337 341.371 309.104 363.56
8006.74 341.985 352.111 250.213 274.433
8009.48 339.012 284.759 263.981 242.54
8012.22 173.28 272.745 213.426 262.187
8014.95 305.942 276.095 309.153 195.41
8017.69 349.062 329.684 63.6516 164.523
8020.43 334.049 347.328 120.766 203.246
8023.16 358.872 332.235 425.32 436.53
8025.9 303.784 334.254 763.504 660.588
8028.63 340.106 310.278 792.941 715.661
8031.37 286.942 334.519 590.538 647.068
8034.1 376.509 331.936 557.726 528.71
8036.83 332.358 336.599 437.867 447.371
8039.57 300.931 319.025 346.52 356.19
8042.3 323.787 318.851 284.183 311.198
8045.04 331.835 325.631 302.89 313.209
8047.77 321.271 319.483 352.553 311.388
8050.5 305.344 318.62 278.722 302.658
8053.23 329.244 312.736 276.698 273.036
8055.97 303.621 306.493 263.688 279.075
8058.7 286.615 287.082 296.839 337.476
8061.43 271.01 289.601 451.901 431.139
8064.16 311.178 303.331 544.678 487.571
8066.89 327.806 309.188 466.134 484.614
8069.63 288.58 313.62 443.029 435.578
8072.36 324.475 301.981 397.571 396.647
8075.09 292.889 307.312 349.342 368.678
8077.82 304.571 298.373 359.12 348.693
8080.55 297.66 290.204 337.617 328.682
8083.28 268.381 287.712 289.31 312.159
8086.01 297.095 276.437 309.549 309.903
8088.74 263.836 271.341 330.85 324.152
8091.47 253.092 251.227 332.056 338.012
8094.2 236.755 252.521 351.129 343.928
8096.92 267.715 250.724 348.598 357.514
8099.65 247.702 241.682 372.813 384.974
8102.38 209.63 230.053 433.512 409.873
8105.11 232.827 232.713 423.294 403.613
8107.84 255.68 240.195 354.033 393.233
8110.56 232.077 251.42 402.371 367.262
8113.29 266.504 234.771 345.381 361.349
8116.02 205.732 229.856 336.296 327.43
8118.75 217.331 213.628 300.612 329.143
8121.47 217.821 218.354 350.522 318.424
8124.2 219.91 221.893 304.138 338.189
8126.92 227.947 219.313 359.906 317.579
8129.65 210.081 214.991 288.693 302.987
8132.38 206.945 214.511 260.362 284.978
8135.1 226.508 223.968 305.879 297.983
8137.83 238.451 232.657 327.708 337.59
8140.55 233.012 236.942 379.182 344.535
8143.28 239.363 224.92 326.715 328.483
8146 202.384 230.394 279.553 327.972
8148.72 249.436 224.768 377.648 333.375
8151.45 222.485 234.864 342.923 358.76
8154.17 232.671 226.131 355.708 332.728
8156.89 223.236 222.818 299.553 330.675
8159.62 212.545 213.441 336.765 309.153
8162.34 204.542 204.677 291.143 302.346
8165.06 196.945 185.338 279.131 281.47
8167.78 154.528 174.763 274.135 272.84
8170.51 172.816 182.294 265.253 275.826
8173.23 219.539 205.482 288.089 277.762
8175.95 224.092 220.687 279.945 286.939
8178.67 218.429 218.249 292.782 282.253
8181.39 212.226 214.549 274.032 271.465
8184.11 212.99 211.749 247.58 264.622
8186.83 210.031 210.77 272.255 277.709
8189.55 209.29 205.418 313.294 284.626
8192.27 196.934 202.702 268.33 298.002
8194.99 201.882 204.039 312.381 289.839
8197.71 213.3 209.154 288.808 289.46
8200.43 212.281 200.133 267.192 277.988
8203.15 174.816 203.68 277.965 259.56
8205.87 223.944 211.228 233.523 275.849
8208.59 234.923 220.883 316.06 289.346
8211.3 203.783 210.311 318.454 291.932
8214.02 192.227 201.45 241.28 284.425
8216.74 208.34 209.14 293.541 266.939
8219.46 226.853 213.421 265.996 274.572
8222.17 205.071 215.179 264.179 279.662
8224.89 213.614 200.354 308.81 288.325
8227.61 182.376 197.434 291.986 283.021
8230.32 196.312 194.416 248.265 276.925
8233.04 204.559 207.893 290.523 274.501
8235.76 222.806 209.233 284.717 273.277
8238.47 200.333 211.859 244.59 260.909
8241.19 212.437 216.37 253.418 269.506
8243.9 236.341 203.774 310.509 281.208
8246.62 162.544 211.319 279.697 293.338
8249.33 235.073 210.251 289.807 291.112
8252.04 233.135 224.136 303.832 312.144
8254.76 204.2 224.265 342.792 318.967
8257.47 235.459 219.382 310.277 312.363
8260.19 218.487 218.45 284.02 298.734
8262.9 201.404 206.317 301.904 280.215
8265.61 199.059 210.206 254.722 262.375
8268.32 230.155 216.226 230.499 204.894
8271.04 219.464 218.413 129.461 115.587
8273.75 205.62 216.407 -13.1995 35.5175
8276.46 224.136 221.899 -9.70926 4.51351
8279.17 235.941 232.458 36.4493 41.9986
8281.88 237.297 233.721 99.2558 128.292
8284.59 227.925 202.968 249.17 202.466
8287.3 143.683 181.848 258.974 263.904
8290.01 173.935 170.91 283.567 251.869
8292.73 195.111 197.112 213.067 239.991
8295.44 222.289 215.144 223.34 299.486
8298.14 228.033 220.104 462.053 405.629
8300.85 209.991 214.22 531.495 484.789
8303.56 204.636 205.475 460.82 425.223
8306.27 201.798 200.645 283.356 338.188
8308.98 195.501 190.316 270.389 281.536
8311.69 173.648 189.976 290.863 302.544
8314.4 200.781 192.013 346.382 313.066
8317.11 201.61 198.97 301.952 318.56
8319.81 194.521 206.352 307.346 295.184
8322.52 222.925 215.092 276.253 281.899
8325.23 227.831 223.075 262.099 258.926
8327.93 218.47 220.538 238.425 247.391
8330.64 215.315 193.127 241.649 183.285
8333.35 145.598 177.298 69.7818 55.4735
8336.05 170.983 167.089 -145.01 -144.563
8338.76 184.687 175.017 -358.461 -211.239
8341.46 169.38 212.375 -130.245 -78.567
8344.17 283.058 218.786 253.006 224.302
8346.87 203.919 217.899 550.146 473.169
8349.58 166.719 166.489 616.356 537.095
8352.28 128.828 144.933 444.784 501.228
8354.99 139.252 153.619 442.545 409.32
8357.69 192.779 159.537 340.63 333.207
8360.39 146.581 182.167 216.445 266.488
8363.1 207.142 178.141 242.388 237.194
8365.8 180.7 197.83 252.75 274.627
8368.5 205.646 188.217 328.743 292.974
8371.2 178.306 192.232 297.429 292.447
8373.91 192.744 190.445 251.168 238.123
8376.61 200.285 196.94 165.772 189.638
8379.31 197.791 199.897 151.975 178.333
8382.01 201.616 195.717 217.251 232.758
8384.71 187.744 176.376 329.049 279.098
8387.41 139.766 175.746 290.993 283.279
8390.11 199.728 178.229 229.796 188.674
8392.81 195.194 209.3 45.2328 128.538
8395.51 232.978 232.786 110.587 78.0381
8398.21 270.187 229.381 78.2948 200.72
8400.91 184.978 216.238 413.277 353.713
8403.61 193.549 185.035 569.568 460.658
8406.31 176.578 180.039 399.128 384.619
8409.01 169.989 185.007 185.162 242.595
8411.71 208.455 201.766 143.496 194.128
8414.41 226.853 212.41 253.727 252.496
8417.1 201.921 207.928 360.264 313.942
8419.8 195.011 188.455 327.836 263.779
8422.5 168.432 191.366 103.236 186.158
8425.19 210.655 216.522 127.402 163.75
8427.89 270.48 219.601 260.612 214.382
8430.59 177.67 197.248 255.133 243.928
8433.28 143.595 167.245 216.039 233.461
8435.98 180.471 167.73 229.212 194.123
8438.68 179.123 186.784 137.12 196.658
8441.37 200.757 188.795 223.643 174.303
8444.07 186.506 199.286 162.146 204.807
8446.76 210.593 206.947 228.633 186.378
8449.45 223.742 216.557 168.356 225.987
8452.15 215.335 219.373 280.971 227.661
8454.84 219.042 193.194 233.656 222.125
8457.54 145.207 179.914 151.747 185.768
8460.23 175.493 183.531 171.901 162.64
8462.92 229.893 217.572 164.27 182.696
8465.62 247.332 218.69 211.916 193.887
8468.31 178.845 207.607 205.474 227.942
8471 196.643 193.189 266.437 249.361
8473.69 204.079 200.792 276.171 257.065
8476.38 201.654 199.146 228.586 239.291
8479.07 191.704 195.722 213.117 227.217
8481.77 193.806 186.001 239.949 227.181
8484.46 172.493 184.618 228.477 231.751
8487.15 187.555 182.094 226.826 220.734
8489.84 186.234 200.424 206.898 229.785
8492.53 227.484 189.552 255.631 228.727
8495.22 154.939 186.764 223.651 232.212
8497.91 177.869 183.726 217.353 229.937
8500.59 218.371 198.058 248.806 239.567
8503.28 197.935 206.586 252.542 253.963
8505.97 203.452 192.491 260.541 227.798
8508.66 176.085 198.108 170.31 210.816
8511.35 214.788 204.198 201.597 198.063
8514.04 221.721 211.996 222.281 212.102
8516.72 199.481 203.128 212.429 225.536
8519.41 188.181 203.031 241.898 222.597
8522.1 221.431 202.443 213.463 235.588
8524.78 197.718 207.529 251.404 233.784
8527.47 203.438 202.548 236.485 242.989
8530.16 206.488 198.627 241.078 231.906
8532.84 185.955 196.521 218.154 242.708
8535.53 197.119 203.998 268.891 250.825
8538.21 228.919 212.056 265.431 249.79
8540.9 210.128 222.293 215.047 244.834
8543.58 227.832 213.48 254.023 231.644
8546.27 202.479 200.964 225.862 231.103
8548.95 172.582 210.419 213.425 202.044
8551.63 256.195 213.573 166.846 186.964
8554.32 211.942 234.539 180.619 202.755
8557 235.479 211.483 260.8 196.428
8559.68 187.028 205.045 147.866 194.303
8562.36 192.628 193.505 174.244 177.019
8565.05 200.857 212.218 208.946 192.401
8567.73 243.17 220.346 194.014 198.969
8570.41 217.012 212.971 193.946 188.716
8573.09 178.732 205.425 178.188 182.991
8575.77 220.531 220.055 176.84 190.839
8578.45 260.903 240.15 217.489 200.325
8581.13 239.017 246.566 206.647 211.491
8583.81 239.779 244.533 210.336 216.747
8586.49 254.804 251.75 233.257 223.938
8589.17 260.666 248.044 228.221 239.519
8591.85 228.663 223.21 257.077 233.893
8594.53 180.301 219.464 216.38 236.677
8597.21 249.429 223.419 236.573 236
8599.89 240.528 237.961 255.046 229.167
8602.57 223.925 235.202 195.882 210.915
8605.24 241.152 230.039 181.818 205.896
8607.92 225.04 238.521 239.988 255.535
8610.6 249.373 248.117 344.798 302.642
8613.28 269.939 252.775 323.138 330.527
8615.95 239.015 255.485 323.645 333.285
8618.63 257.502 238.591 353.07 354.37
8621.31 219.255 243.126 386.394 359.917
8623.98 252.621 223.531 340.286 333.865
8626.66 198.716 227.042 274.914 296.317
8629.33 229.789 220.594 273.75 254.286
8632.01 233.278 229.04 214.195 226.112
8634.68 224.054 242.959 190.39 186
8637.36 271.547 239.087 153.415 180.458
8640.03 221.661 256.053 197.57 188.012
8642.7 274.95 253.806 213.052 233.732
8645.38 264.806 275.991 290.572 272.684
8648.05 288.218 271.221 314.427 315.631
8650.72 260.639 264.884 341.893 313.797
8653.39 245.795 242.102 285.07 306.827
8656.07 219.871 236.315 293.519 275.482
8658.74 243.28 251.676 247.858 238.534
8661.41 291.878 270.962 174.224 222.267
8664.08 277.729 268.462 244.718 204.449
8666.75 235.78 247.755 194.406 213.706
8669.42 229.755 242.485 201.995 189.593
8672.09 261.921 240.176 172.378 182.109
8674.76 228.852 240.107 171.954 181.274
8677.43 229.548 230.573 199.491 196.273
8680.1 233.318 237.842 217.373 196.841
8682.77 250.66 245.063 173.658 202.09
8685.44 251.213 244.629 215.24 201.612
8688.11 232.014 247.265 215.94 227.169
8690.78 258.567 257.369 250.327 238.55
8693.45 281.527 263.658 249.384 257.668
8696.11 250.882 265.969 273.292 271.576
8698.78 265.498 263.669 292.052 274.668
8701.45 274.627 257.181 258.661 268.198
8704.12 231.417 249.556 253.882 253.997
8706.78 242.624 241.583 249.447 233.556
8709.45 250.708 252.015 197.338 243.475
8712.11 262.711 258.876 283.641 229.321
8714.78 263.208 262.754 206.986 238.353
8717.45 262.341 263.513 224.433 230.193
8720.11 264.991 253.945 259.161 239.663
8722.77 234.502 249.378 235.393 255.116
8725.44 248.64 246.673 270.795 242.918
8728.1 256.877 245.664 222.565 237.447
8730.77 231.476 245.771 218.982 222.765
8733.43 248.959 247.138 226.748 226.183
8736.09 260.979 248.933 232.817 226.362
8738.76 236.861 244.46 219.521 245.789
8741.42 235.539 245.54 285.029 253.052
8744.08 264.219 250.274 254.606 270.907
8746.74 251.065 264.359 273.086 271.759
8749.41 277.792 252.086 287.585 280.945
8752.07 227.4 261.503 282.165 391.158
8754.73 279.316 238.135 603.723 645.631
8757.39 207.689 247.537 1051 967.785
8760.05 255.605 253.234 1248.63 1236.01
8762.71 296.406 287.232 1408.4 1232.26
8765.37 309.683 285.797 1039.76 960.85
8768.03 251.303 277.308 434.39 527.447
8770.69 270.939 233.922 108.195 120.259
8773.35 179.524 240.337 -181.809 58.6993
8776 270.548 241.197 249.712 143.469
8778.66 273.52 262.9 362.503 177.777
8781.32 244.631 239.728 -78.8836 -206.344
8783.98 201.034 230.934 -902.652 -584.164
8786.64 247.136 230.725 -770.957 -686.319
8789.29 244.005 242.005 -385.347 -406.391
8791.95 234.873 238.048 -62.8681 -136.118
8794.61 235.265 236.5 39.8623 -38.7187
8797.26 239.361 246.02 -93.1501 -67.4581
8799.92 263.434 246.832 -149.086 -94.7558
8802.57 237.7 253.985 -42.0309 -35.6539
8805.23 260.821 249.893 84.1555 66.7247
8807.88 251.158 269.253 158.049 180.714
8810.54 295.781 268.503 299.938 235.132
8813.19 258.57 254.14 247.41 258.844
8815.85 208.069 243.672 229.185 280.299
8818.5 264.378 237.151 364.301 522.473
8821.15 239.005 258.731 973.932 1305.75
8823.81 272.811 221.97 2579.02 2217.21
8826.46 154.094 220.975 3098.69 2689.58
8829.11 236.02 224.598 2391.03 2004.9
8831.76 283.678 244.779 524.972 694.534
8834.41 214.639 251.331 -832.397 -522.496
8837.07 255.677 242.37 -1260.06 -1107.92
8839.72 256.794 240.329 -1231.29 -1320.84
8842.37 208.515 238.127 -1471.17 -1263.42
8845.02 249.07 228.276 -1087.82 -1040.45
8847.67 227.243 244.785 -562.362 -576.29
8850.32 258.041 248.952 -78.6916 -191.64
8852.97 261.572 243.129 66.134 -14.8637
8855.62 209.773 232.545 -32.0336 -8.57398
8858.27 226.288 222.215 -59.8223 -14.0935
8860.92 230.584 231.232 49.5753 155.699
8863.56 236.825 242.314 477.345 453.768
8866.21 259.535 239.446 834.385 700.35
8868.86 221.978 242.04 789.321 676.072
8871.51 244.607 216.795 404.51 344.801
8874.15 183.801 214.154 -159.426 -19.1564
8876.8 214.053 197.029 -302.552 -177.631
8879.45 193.234 201.187 -70.9151 240.904
8882.09 196.273 207.362 1096.18 998.628
8884.74 232.58 192.542 1970.62 1648.98
8887.38 148.774 167.677 1880.15 1571.29
8890.03 121.678 127.543 863.109 639.677
8892.67 112.176 123.562 -824.223 -423.945
8895.32 136.831 145.469 -1310.72 -1070.6
8897.96 187.4 176.578 -1076.86 -900.388
8900.61 205.504 201.465 -313.584 -361.968
8903.25 211.491 192.875 304.539 146.488
8905.89 161.629 177.172 448.51 242.229
8908.54 158.397 163.826 -26.3612 34.5203
8911.18 171.452 172.577 -318.588 -120.259
8913.82 187.882 174.867 -15.827 335.352
8916.46 165.266 184.905 1340.47 1175.76
8919.1 201.567 174.021 2202.62 1853.87
8921.74 155.231 169.716 2018.5 1602.78
8924.39 152.349 164.117 587.225 498.405
8927.03 184.77 161.717 -1110.51 -731.821
8929.67 148.031 161.581 -1672.17 -1441.71
8932.31 151.941 164.159 -1542.45 -1466.45
8934.95 192.505 169.238 -1184.71 -1158.55
8937.59 163.269 174.481 -748.476 -627.123
8940.22 167.668 180.575 51.8202 -50.7814
8942.86 210.789 194.39 544.311 425.707
8945.5 204.714 180.996 680.99 519.87
8948.14 127.485 154.951 334.309 319.17
8950.78 132.655 148.199 -57.7881 220.396
8953.41 184.456 153.176 384.668 533.304
8956.05 142.418 168.93 1273.03 1099.09
8958.69 179.915 161.974 1639.56 1336.89
8961.32 163.588 156.072 1098.07 850.419
8963.96 124.713 142.61 -186.377 -31.8667
8966.6 139.529 131.92 -1007.29 -790.669
8969.23 131.518 143.06 -1178.34 -1058.63
8971.87 158.135 141.171 -990.249 -977.239
8974.5 133.861 158.363 -763.132 -768.063
8977.14 183.093 154.682 -550.809 -546.428
8979.77 147.092 165.393 -325.341 -305.477
8982.4 165.994 157.884 -40.2812 -4.51152
8985.04 160.566 160.32 352.088 302.307
8987.67 154.4 140.609 595.114 517.787
8990.3 106.86 132.602 606.16 520.004
8992.94 136.545 128.529 358.738 389.723
8995.57 142.182 132.115 204.272 359.76
8998.2 117.618 131.143 516.27 524.736
9000.83 133.629 133.134 853.667 735.528
9003.46 148.154 129.11 836.646 678.885
9006.09 105.547 140.324 346.342 285.335
9008.72 167.272 138.97 -326.983 -198.024
9011.35 144.09 155.75 -613.432 -506.48
9013.98 155.887 137.866 -579.026 -556.166
9016.61 113.62 123.971 -476.04 -468.003
9019.24 102.406 116.436 -348.941 -359.471
9021.87 133.283 129.027 -253.431 -223.92
9024.5 151.392 138.471 -69.3876 -103.881
9027.13 130.737 147.904 11.1745 11.1227
9029.76 161.582 146.09 91.5811 91.7447
9032.38 145.95 152.331 172.479 205.654
9035.01 149.459 149.84 352.901 302.862
9037.64 154.109 151.781 383.208 379.837
9040.26 151.774 147.993 403.402 361.073
9042.89 138.097 136.916 296.609 343.49
9045.52 120.878 143.346 330.46 374.808
9048.14 171.063 138.313 497.354 472.335
9050.77 122.997 140.615 589.191 494.077
9053.39 127.784 128.075 395.684 348.394
9056.02 133.442 135.612 60.3056 89.0443
9058.64 145.611 139.909 -188.857 -115.317
9061.26 140.673 145.563 -217.401 -189.82
9063.89 150.407 132.338 -163.202 -188.063
9066.51 105.934 108.4 -183.588 -176.185
9069.13 68.8588 58.2643 -181.764 -121.784
