wavelength spectrum_sum 3smoothed_sum spectrum_optimal 3smoothed_optimal
3514.69 -4.923 -1.11688 -3.69018 2.20255
3517.61 1.57237 1.61229 10.2978 2.82499
3520.54 8.18752 5.65228 1.86732 5.7009
3523.46 7.19694 3.37615 4.93756 0.771502
3526.39 -5.25602 5.57534 -4.49038 3.12938
3529.31 14.7851 4.25578 8.94097 -0.31352
3532.23 3.23825 3.77869 -5.39115 2.55533
3535.16 -6.6873 3.36988 4.11616 -0.557601
3538.08 13.5587 1.32897 -0.397816 3.26799
3541.01 -2.88448 5.45725 6.08564 3.84491
3543.93 5.69754 -0.737771 5.84691 12.3449
3546.85 -5.02638 -0.698403 25.1021 10.6054
3549.78 -2.76637 1.10761 0.867243 16.1394
3552.7 11.1156 -0.880024 22.4489 8.99918
3555.63 -10.9893 1.76932 3.68142 13.4726
3558.55 5.18167 -0.610178 14.2874 12.1229
3561.47 3.97706 3.77001 18.4 15.3308
3564.4 2.1513 2.77817 13.305 25.3415
3567.32 2.20616 4.30169 44.3196 27.469
3570.24 8.54762 9.61389 24.7826 28.5108
3573.17 18.0879 13.4381 16.4301 19.843
3576.09 13.6789 3.72406 18.3163 12.6461
3579.02 -20.5946 1.97908 3.19174 11.2852
3581.94 12.853 -3.84491 12.3474 10.8482
3584.86 -3.79306 6.34987 17.0055 15.3419
3587.79 9.98972 2.67473 16.6728 15.6105
3590.71 1.82752 7.89748 13.1534 12.8865
3593.63 11.8752 10.7018 8.83335 15.9318
3596.56 18.4028 9.27058 25.8088 7.83081
3599.48 -2.46623 7.57194 -11.1497 8.09657
3602.4 6.77928 4.26229 9.63065 8.34312
3605.33 8.47384 5.63088 26.5484 16.6156
3608.25 1.63954 9.644 13.6678 18.0158
3611.17 18.8186 12.2125 13.8313 2.39616
3614.09 16.1793 15.1182 -20.3106 5.67147
3617.02 10.3568 4.49417 23.4937 3.03452
3619.94 -13.0535 -4.25731 5.92044 9.75301
3622.86 -10.0752 -1.18126 -0.155137 1.76309
3625.79 19.5849 7.32217 -0.476037 -5.07771
3628.71 12.4568 18.729 -14.6019 6.96363
3631.63 24.1452 20.2911 35.9689 18.1689
3634.55 24.2712 14.3345 33.1398 29.6756
3637.48 -5.4129 10.3931 19.918 23.6565
3640.4 12.3211 8.66529 17.9118 11.9015
3643.32 19.0877 16.4941 -2.12517 7.60856
3646.24 18.0737 16.8143 7.03906 3.66501
3649.17 13.2815 14.6765 6.08113 -1.81301
3652.09 12.6742 13.319 -18.5592 -1.35967
3655.01 14.0012 12.223 8.39908 -3.73397
3657.93 9.99366 10.8835 -1.04176 9.04233
3660.86 8.65561 6.28503 19.7697 3.28674
3663.78 0.205816 11.1707 -8.86767 16.2516
3666.7 24.6508 2.60104 37.8527 4.13126
3669.62 -17.0535 10.383 -16.5912 17.986
3672.55 23.5515 -0.782043 32.6965 2.55603
3675.47 -8.84421 14.1887 -8.43715 15.2535
3678.39 27.8587 4.15465 21.5011 -1.10477
3681.31 -6.55055 13.0418 -16.3782 8.98064
3684.23 17.8173 8.48827 21.8191 13.8529
3687.16 14.198 19.2654 36.1178 29.9764
3690.08 25.7808 22.0457 31.9922 25.9678
3693 26.1584 21.598 9.79329 17.8085
3695.92 12.8549 17.1305 11.64 16.1172
3698.84 12.3782 13.2865 26.9182 13.6045
3701.76 14.6264 6.22832 2.25515 1.95183
3704.69 -8.31963 9.16831 -23.3179 -3.68623
3707.61 21.1982 7.67744 10.004 1.16
3710.53 10.1538 2.81565 16.7938 2.04968
3713.45 -22.905 -4.22846 -20.6488 -11.0661
3716.37 0.0658143 1.70729 -29.3433 -17.3805
3719.29 27.9611 7.89494 -2.14924 -6.14725
3722.22 -4.34205 5.32336 13.0508 -3.62849
3725.14 -7.64892 -2.46418 -21.787 6.14795
3728.06 4.59843 -0.763009 27.1801 5.25224
3730.98 0.761463 4.09779 10.3637 14.8482
3733.9 6.93348 2.19491 7.00095 17.3936
3736.82 -1.11022 1.54184 34.8162 17.3581
3739.74 -1.19774 -3.52557 10.257 25.9951
3742.66 -8.26874 2.4287 32.9119 24.6233
3745.59 16.7526 4.11559 30.7009 33.5791
3748.51 3.86291 7.03547 37.1246 27.2267
3751.43 0.490922 4.28077 13.8546 28.1397
3754.35 8.48849 7.28923 33.44 21.2385
3757.27 12.8883 9.8301 16.4208 26.9464
3760.19 8.11355 0.371401 30.9784 13.032
3763.11 -19.8876 2.77313 -8.30322 13.7693
3766.03 20.0935 -0.355927 18.6327 12.0658
3768.95 -1.27362 15.2136 25.868 23.0178
3771.87 26.8208 22.5174 24.5527 34.9483
3774.79 42.005 36.5902 54.4243 44.4008
3777.71 40.9448 32.3196 54.2255 46.7303
3780.63 14.0089 27.1288 31.541 39.7552
3783.55 26.4325 16.4963 33.4991 28.2214
3786.47 9.04742 11.5892 19.6241 27.0742
3789.4 -0.712383 5.88032 28.0995 23.1647
3792.32 9.30592 8.56846 21.7704 22.4048
3795.24 17.1118 9.98386 17.3446 18.6339
3798.16 3.53381 16.6137 16.7867 28.2114
3801.08 29.1955 8.47741 50.5027 33.7941
3804 -7.29706 11.8245 34.0928 37.4435
3806.92 13.5752 9.19262 27.7349 42.6414
3809.84 21.2997 22.6255 66.0964 44.9311
3812.76 33.0016 16.5786 40.9619 39.6565
3815.68 -4.56537 19.9389 11.9113 38.5106
3818.6 31.3805 7.16344 62.6585 30.1891
3821.52 -5.32479 16.0837 15.9973 43.0481
3824.44 22.1954 8.45511 50.4884 34.8227
3827.36 8.49471 8.40929 37.9823 34.1205
3830.28 -5.46226 12.7415 13.8907 29.2618
3833.19 35.192 4.52357 35.9126 21.0124
3836.11 -16.159 13.3265 13.2341 32.1231
3839.03 20.9464 2.97837 47.2225 32.3621
3841.95 4.14774 7.09494 36.6298 39.0891
3844.87 -3.80932 10.1084 33.4151 36.4727
3847.79 29.9869 19.5682 39.3731 33.3594
3850.71 32.527 23.6931 27.29 36.6656
3853.63 8.56523 24.1811 43.3339 40.5637
3856.55 31.451 9.99089 51.0673 24.6051
3859.47 -10.0435 4.36597 -20.5858 12.4671
3862.39 -8.30953 -12.9998 6.91982 -0.992865
3865.31 -20.6465 -0.396565 10.6874 18.5023
3868.23 27.7663 -1.57348 37.8996 20.3128
3871.15 -11.8403 8.36861 12.3513 24.4957
3874.07 9.1798 -1.56817 23.2361 20.9683
3876.98 -2.04402 5.51439 27.3175 27.6328
3879.9 9.40741 9.49694 32.3449 37.9722
3882.82 21.1274 12.1027 54.2541 29.2599
3885.74 5.77324 12.7151 1.1808 17.9758
3888.66 11.2447 16.4044 -1.50741 9.744
3891.58 32.1952 14.2156 29.5586 6.46359
3894.5 -0.793205 19.0341 -8.66043 20.3593
3897.42 25.7004 8.76712 40.1796 7.80492
3900.33 1.39411 13.9223 -8.10443 19.8505
3903.25 14.6724 9.46703 27.4764 15.0653
3906.17 12.3346 13.5361 25.824 28.6153
3909.09 13.6012 23.3199 32.5455 22.8977
3912.01 44.0239 30.9719 10.3237 18.0972
3914.93 35.2907 40.9082 11.4223 16.1382
3917.84 43.41 31.6132 26.6685 5.73391
3920.76 16.1389 22.9099 -20.8891 10.894
3923.68 9.18083 6.98977 26.9027 -6.82199
3926.6 -4.35045 6.51947 -26.4796 -6.70601
3929.52 14.728 13.4282 -20.5411 -11.5077
3932.44 29.907 14.856 12.4976 -4.0663
3935.35 -0.0672112 14.2442 -4.15534 2.519
3938.27 12.8928 -1.20936 -0.785218 -16.4003
3941.19 -16.4536 19.1872 -44.2604 -4.2631
3944.11 61.1225 21.757 32.2563 -0.949875
3947.02 20.602 23.2807 9.15444 14.2322
3949.94 -11.8825 4.18304 1.28572 -0.0167382
3952.86 3.82958 7.79563 -10.4904 -2.24527
3955.78 31.4398 12.7376 2.46884 -3.28583
3958.7 2.94333 18.7138 -1.83595 -0.671142
3961.61 21.7583 15.7365 -2.64631 0.365668
3964.53 22.5079 12.7218 5.57927 4.99455
3967.45 -6.10076 20.6223 12.0507 13.1551
3970.37 45.4598 24.1607 21.8355 13.2934
3973.28 33.1231 42.2258 5.99393 15.3862
3976.2 48.0943 42.0017 18.3291 10.1523
3979.12 44.7877 31.5665 6.13391 1.56333
3982.03 1.81762 32.0342 -19.7731 10.3954
3984.95 49.4974 38.0312 44.8253 16.5618
3987.87 62.7787 48.3213 24.6332 26.46
3990.79 32.6879 40.6961 9.92148 17.5101
3993.7 26.6217 28.0479 17.9756 13.9018
3996.62 24.8342 36.6715 13.8083 22.6803
3999.54 58.5587 41.6755 36.2572 23.5457
4002.45 41.6337 37.9804 20.5716 18.7233
4005.37 13.7489 37.2045 -0.658745 10.1256
4008.29 56.231 35.377 10.4639 20.6806
4011.2 36.1513 46.1479 52.2367 31.1324
4014.12 46.0614 38.7044 30.6967 33.0147
4017.04 33.9004 27.8019 16.1106 9.37294
4019.95 3.44387 40.8132 -18.6885 18.273
4022.87 85.0952 44.7845 57.3968 34.9237
4025.79 45.8145 61.0671 66.0627 55.0715
4028.7 52.2915 45.449 41.7551 48.8074
4031.62 38.2408 39.9635 38.6044 27.6231
4034.54 29.3582 28.4346 2.50972 19.1969
4037.45 17.7047 35.5358 16.4765 27.0053
4040.37 59.5445 27.2729 62.0297 30.035
4043.28 4.56954 17.922 11.5989 33.9281
4046.2 -10.348 16.0026 28.1558 31.2117
4049.12 53.7861 28.3471 53.8804 45.3133
4052.03 41.6031 54.7977 53.9038 59.5796
4054.95 69.0038 57.0376 70.9548 53.7886
4057.86 60.5059 62.625 36.5072 49.2413
4060.78 58.3652 46.0281 40.2619 31.3996
4063.7 19.2133 47.6399 17.4297 39.989
4066.61 65.3412 44.7863 62.2755 36.977
4069.53 49.8043 59.3634 31.2259 62.6373
4072.44 62.9446 58.639 94.4105 61.5052
4075.36 63.1682 54.4628 58.8793 64.1695
4078.27 37.2755 53.0044 39.2186 52.3083
4081.19 58.5694 46.0735 58.827 39.6135
4084.11 42.3755 52.3386 20.7949 56.2568
4087.02 56.071 57.8135 89.1486 57.3963
4089.94 74.9939 59.6236 62.2454 75.2778
4092.85 47.8058 63.0358 74.4393 57.1606
4095.77 66.3078 58.6276 34.7972 63.0843
4098.68 61.7691 48.083 80.0164 53.4803
4101.6 16.172 44.139 45.6275 59.6219
4104.51 54.4758 41.3515 53.2219 45.4379
4107.43 53.4068 52.9202 37.4645 26.4811
4110.34 50.8781 39.4012 -11.2429 11.3482
4113.26 13.9188 26.7833 7.82299 12.464
4116.17 15.5531 21.2432 40.812 33.0316
4119.09 34.2578 42.8795 50.4599 57.2899
4122 78.8277 59.7661 80.5977 67.4826
4124.92 66.2129 74.877 71.3904 69.0129
4127.83 79.5905 68.135 55.0507 54.2667
4130.75 58.6017 66.9662 36.3592 51.3361
4133.66 62.7064 53.0831 62.5984 47.1994
4136.57 37.9413 53.345 42.6407 62.6179
4139.49 59.3872 53.9322 82.6147 61.6261
4142.4 64.4679 57.0248 59.6228 64.1273
4145.32 47.2192 53.1236 50.1443 51.0876
4148.23 47.6836 37.8597 43.4955 43.197
4151.15 18.6764 50.9924 35.9512 52.9967
4154.06 86.6173 60.3613 79.5434 65.3501
4156.97 75.7904 75.5558 80.5556 67.5422
4159.89 64.2596 75.4254 42.5276 61.2545
4162.8 86.2262 58.0215 60.6802 54.3235
4165.72 23.5786 50.4747 59.7628 58.7451
4168.63 41.6194 46.5037 55.7924 54.6311
4171.54 74.3131 60.1985 48.3382 53.2775
4174.46 64.663 64.2775 55.7019 51.9635
4177.37 53.8563 65.4792 51.8504 77.5536
4180.29 77.9181 66.0521 125.109 72.1869
4183.2 66.3818 56.3679 39.6019 73.009
4186.11 24.8039 39.7054 54.3166 36.7087
4189.03 27.9306 33.784 16.2077 38.691
4191.94 48.6174 34.7864 45.5488 23.4839
4194.85 27.811 41.6982 8.69532 38.123
4197.77 48.6662 39.9775 60.1248 23.0131
4200.68 43.4554 42.9239 0.21917 36.2667
4203.59 36.6502 46.2733 48.456 42.677
4206.51 58.7143 51.5216 79.3558 66.9572
4209.42 59.2001 59.9133 73.0597 71.1393
4212.33 61.8254 63.6128 61.0022 62.9801
4215.25 69.8128 72.372 54.8783 48.2655
4218.16 85.4777 78.5711 28.916 44.771
4221.07 80.4228 74.9058 50.5187 41.4043
4223.98 58.8169 57.1943 44.7782 52.5862
4226.9 32.3433 50.939 62.4618 48.797
4229.81 61.6569 47.4624 39.1511 53.9153
4232.72 48.387 50.0229 60.1329 45.415
4235.64 40.0249 56.3717 36.961 58.3343
4238.55 80.7031 60.6883 77.909 56.6314
4241.46 61.3369 63.9559 55.024 59.7644
4244.37 49.8277 55.8073 46.3602 53.8173
4247.29 56.2572 55.1283 60.0675 48.1861
4250.2 59.3001 47.8338 38.1305 37.9193
4253.11 27.944 35.1906 15.5598 19.8058
4256.02 18.3277 53.7641 5.72707 39.5187
4258.94 115.021 73.4471 97.2692 58.6972
4261.85 86.993 88.1573 73.0953 83.9155
4264.76 62.4583 76.6211 81.382 82.087
4267.67 80.4119 70.5716 91.7838 73.6264
4270.58 68.8447 73.3682 47.7135 73.6104
4273.5 70.8481 78.0358 81.3338 72.5708
4276.41 94.4146 75.9896 88.6651 62.4774
4279.32 62.7062 73.8518 17.4333 55.143
4282.23 64.4347 54.5607 59.3307 49.2159
4285.14 36.5411 40.6901 70.8838 66.695
4288.05 21.0946 35.6444 69.8705 67.2296
4290.97 49.2975 34.6023 60.9347 41.0321
4293.88 33.4147 61.4944 -7.70872 50.6347
4296.79 101.771 71.1136 98.678 55.8545
4299.7 78.1552 73.2706 76.5942 62.5939
4302.61 39.8857 48.5846 12.5095 34.7769
4305.52 27.7129 43.9342 15.227 30.9076
4308.43 64.2041 47.3465 64.9864 47.6249
4311.35 50.1226 66.0804 62.6613 58.0499
4314.26 83.9144 74.2855 46.5019 50.6764
4317.17 88.8196 95.5785 42.8661 53.5694
4320.08 114.002 102.064 71.3401 69.839
4322.99 103.372 98.1098 95.3107 61.4611
4325.9 76.9556 91.5428 17.7326 69.9959
4328.81 94.3005 89.1985 96.9443 62.913
4331.72 96.3396 91.1357 74.0621 83.3344
4334.63 82.7671 91.7583 78.9968 73.8888
4337.54 96.1683 96.6671 68.6075 89.292
4340.45 111.066 108.514 120.272 97.6711
4343.37 118.307 104.29 104.134 102.645
4346.28 83.4956 92.9564 83.5301 79.1837
4349.19 77.0662 84.2158 49.887 60.5978
4352.1 92.0856 90.6721 48.3762 61.7654
4355.01 102.865 94.8939 87.033 73.1839
4357.92 89.7315 104.121 84.1425 91.1965
4360.83 119.767 107.974 102.414 99.7278
4363.74 114.423 119.722 112.627 102.125
4366.65 124.975 123.213 91.3354 110.324
4369.56 130.241 121.219 127.009 96.3838
4372.47 108.441 119.474 70.8069 97.1464
4375.38 119.74 106.392 93.6233 76.3803
4378.29 90.9949 91.6693 64.7108 76.4291
4381.2 64.2734 90.5962 70.9532 74.0411
4384.11 116.52 94.5287 86.4594 81.3655
4387.02 102.792 114.498 86.6839 86.0827
4389.93 124.183 127.343 85.1048 93.6366
4392.84 155.054 133.686 109.121 105.528
4395.75 121.821 136.532 122.357 116.519
4398.66 132.722 119.424 118.079 99.9437
4401.57 103.73 100.588 59.3954 80.7996
4404.47 65.3124 90.1011 64.9248 73.7761
4407.38 101.261 94.1797 97.0082 85.2429
4410.29 115.966 116.897 93.7956 98.2521
4413.2 133.465 124.87 103.952 103.27
4416.11 125.179 122.32 112.062 99.1816
4419.02 108.317 111.75 81.5306 87.5553
4421.93 101.756 108.105 69.0735 77.2377
4424.84 114.242 110.572 81.1089 90.8083
4427.75 115.719 121.391 122.242 104.531
4430.66 134.212 122.005 110.241 105.235
4433.56 116.085 124.01 83.2221 105.269
4436.47 121.732 118.25 122.343 90.5874
4439.38 116.934 121.41 66.197 101.689
4442.29 125.564 120.684 116.526 100.772
4445.2 119.554 125.657 119.592 115.725
4448.11 131.852 127.069 111.056 115.133
4451.02 129.802 122.721 114.752 106.082
4453.92 106.51 110.496 92.4384 96.3723
4456.83 95.1765 96.657 81.9264 85.325
4459.74 88.2841 82.465 81.6101 76.2683
4462.65 63.9344 105.754 65.2685 93.5795
4465.56 165.043 118.377 133.86 111.514
4468.47 126.153 145.92 135.414 130.315
4471.37 146.563 143.702 121.672 135.244
4474.28 158.389 151.175 148.646 135.348
4477.19 148.573 140.804 135.728 127.39
4480.1 115.451 147.286 97.7976 132.505
4483 177.836 149.707 163.99 137.66
4485.91 155.833 157.498 151.193 146.199
4488.82 138.826 135.729 123.415 142.411
4491.73 112.528 130.752 152.626 137.986
4494.64 140.903 124.911 137.917 127.312
4497.54 121.302 147.95 91.3924 137.067
4500.45 181.645 159.682 181.893 146.19
4503.36 176.098 165.228 165.286 160.9
4506.26 137.94 172.418 135.52 159.742
4509.17 203.215 176.008 178.421 153.747
4512.08 186.868 178.283 147.299 152.497
4514.99 144.765 157.414 131.771 142.364
4517.89 140.607 149.831 148.023 142.346
4520.8 164.12 163.479 147.242 156.522
4523.71 185.71 166.595 174.3 159.87
4526.61 149.953 163.241 158.068 139.899
4529.52 154.059 140.682 87.328 120.537
4532.43 118.032 153.217 116.215 127.157
4535.33 187.561 148.303 177.928 133.345
4538.24 139.316 167.924 105.894 145.52
4541.15 176.896 156.224 152.737 138.789
4544.05 152.458 155.827 157.736 150.233
4546.96 138.127 160.78 140.226 153.267
4549.87 191.754 159.158 161.838 146.562
4552.77 147.592 175.701 137.621 153.139
4555.68 187.756 146.492 159.958 140.324
4558.58 104.128 150.71 123.392 148.564
4561.49 160.247 144.27 162.342 145.101
4564.4 168.434 170.644 149.568 161.59
4567.3 183.251 171.171 172.859 147.504
4570.21 161.829 179.178 120.084 142.979
4573.11 192.454 175.493 135.994 129.889
4576.02 172.196 170.107 133.588 140.249
4578.93 145.671 163.395 151.164 134.169
4581.83 172.318 158.593 117.753 140.843
4584.74 157.791 176.953 153.612 140.835
4587.64 200.751 191.927 151.14 165.024
4590.55 217.24 201.012 190.319 167.922
4593.45 185.046 188.613 162.307 169.62
4596.36 163.553 177.065 156.233 173.826
4599.26 182.595 184.938 202.939 167.672
4602.17 208.665 188.752 143.845 168.476
4605.07 174.994 173.911 158.643 141.854
4607.98 138.073 157.798 123.073 138.511
4610.88 160.327 167.39 133.816 145.722
4613.79 203.772 182.752 180.277 164.413
4616.69 184.156 204.433 179.145 182.834
4619.6 225.37 206.211 189.079 182.253
4622.5 209.106 201.264 178.536 170.244
4625.41 169.317 201.945 143.118 178.597
4628.31 227.412 178.664 214.137 151.997
4631.22 139.263 169.333 98.7349 147.845
4634.12 141.324 160.702 130.663 139.2
4637.03 201.519 173.267 188.204 157.662
4639.93 176.958 168.732 154.121 151.651
4642.83 127.719 169.651 112.628 147.935
4645.74 204.277 169.17 177.055 154.545
4648.64 175.514 181.531 173.951 172.016
4651.55 164.802 171.5 165.041 179.186
4654.45 174.182 178.868 198.564 167.323
4657.35 197.621 176.9 138.364 159.663
4660.26 158.897 182.63 142.061 154.953
4663.16 191.372 177.357 184.435 175.284
4666.07 181.801 185.609 199.357 171.951
4668.97 183.653 176.394 132.061 156.753
4671.87 163.728 172.762 138.842 142.131
4674.78 170.906 168.785 155.489 142.832
4677.68 171.72 179.395 134.166 137.143
4680.58 195.56 201.935 121.776 157.423
4683.49 238.525 211.342 216.327 171.773
4686.39 199.941 199.297 177.215 183.544
4689.29 159.425 172.11 157.089 167.746
4692.2 156.965 161.646 168.932 168.714
4695.1 168.549 155.221 180.122 166.584
4698 140.15 156.868 150.698 166.069
4700.91 161.905 151.559 167.388 148.921
4703.81 152.622 157.8 128.676 139.44
4706.71 158.871 174.629 122.255 156.616
4709.61 212.393 186.213 218.917 177.642
4712.52 187.375 195.779 191.753 181.718
4715.42 187.568 201.423 134.483 179.063
4718.32 229.327 209.617 210.953 177.742
4721.22 211.957 211.577 187.791 201.64
4724.13 193.447 180.99 206.175 167.18
4727.03 137.566 170.71 107.574 160.572
4729.93 181.116 176.059 167.967 150.914
4732.83 209.495 198.057 177.202 175.53
4735.74 203.559 208.738 181.421 182.847
4738.64 213.161 195.318 189.917 168.036
4741.54 169.233 188.593 132.77 164.565
4744.44 183.386 192.521 171.007 156.317
4747.34 224.946 184.599 165.173 160.831
4750.25 145.464 195.132 146.313 166.871
4753.15 214.986 189.334 189.126 169.853
4756.05 207.55 183.887 174.121 162.172
4758.95 129.124 160.175 123.269 148.125
4761.85 143.851 165.818 146.985 168.356
4764.75 224.479 186.121 234.814 182.771
4767.65 190.033 217.819 166.513 199.486
4770.56 238.945 214.429 197.131 196.807
4773.46 214.307 216.103 226.776 198.439
4776.36 195.055 196.212 171.411 187.907
4779.26 179.274 179.593 165.534 168.232
4782.16 164.449 158.221 167.752 155.97
4785.06 130.941 172.795 134.622 162.658
4787.96 222.993 180.287 185.6 165.904
4790.86 186.927 201.586 177.49 179.733
4793.76 194.837 210.394 176.11 197.806
4796.66 249.418 191.361 239.818 181.952
4799.57 129.828 195.334 129.928 182.71
4802.47 206.757 168.635 178.385 155.629
4805.37 169.321 193.532 158.575 189.809
4808.27 204.519 190.047 232.468 184.437
4811.17 196.301 186.574 162.267 185.35
4814.07 158.901 181.89 161.314 166.41
4816.97 190.468 181.253 175.65 168.552
4819.87 194.39 186.474 168.694 169.25
4822.77 174.565 183.877 163.406 157.683
4825.67 182.676 191.532 140.948 163.354
4828.57 217.354 208.553 185.706 173.332
4831.47 225.628 195.466 193.341 166.014
4834.37 143.417 199.074 118.995 162.848
4837.27 228.178 172.201 176.207 138.635
4840.17 145.007 184.83 120.702 148.962
4843.07 181.305 167.47 149.978 153.426
4845.96 176.097 179.293 189.598 175.003
4848.86 180.475 180.924 185.432 172.288
4851.76 186.2 192.399 141.835 184.225
4854.66 210.521 200.718 225.408 196.067
4857.56 205.434 195.298 220.956 203.996
4860.46 169.937 175.119 165.625 176.015
4863.36 149.987 169.832 141.463 156.33
4866.26 189.571 174.043 161.903 157.176
4869.16 182.571 185.808 168.161 173.31
4872.06 185.282 174.84 189.866 165.004
4874.96 156.668 167.603 136.984 158.677
4877.85 160.859 168.275 149.18 154.439
4880.75 187.298 179.249 177.153 171.177
4883.65 189.59 200.46 187.197 195.395
4886.55 224.492 190.922 221.836 185.062
4889.45 158.683 174.218 146.154 166.748
4892.35 139.478 165.932 132.253 165.323
4895.24 199.635 198.762 217.561 198.931
4898.14 257.171 214.764 246.979 209.791
4901.04 187.486 204.145 164.833 188.454
4903.94 167.778 203.225 153.551 190.522
4906.84 254.409 203.792 253.182 205.049
4909.73 189.187 211.581 208.413 217.018
4912.63 191.146 186.19 189.46 180.894
4915.53 178.237 180.652 144.811 169.845
4918.43 172.571 182.679 175.265 172.793
4921.33 197.23 186.286 198.305 185.929
4924.22 189.058 191.935 184.217 191.785
4927.12 189.518 191.653 192.832 187.942
4930.02 196.383 206.187 186.778 201.656
4932.91 232.659 205.541 225.357 196.759
4935.81 187.58 223.835 178.142 204.845
4938.71 251.265 215.64 211.036 191.865
4941.61 208.076 203.513 186.417 180.971
4944.5 151.198 200.183 145.458 189.958
4947.4 241.274 197.499 237.998 194.091
4950.3 200.024 217.19 198.818 213.021
4953.19 210.271 216.061 202.246 206.706
4956.09 237.887 220.134 219.055 208.144
4958.99 212.243 218.268 203.132 221.715
4961.88 204.675 197.82 242.96 202.092
4964.78 176.542 206.045 160.185 201.912
4967.68 236.918 217.321 202.592 199.149
4970.57 238.505 231.759 234.669 213.867
4973.47 219.855 218.832 204.34 215.821
4976.36 198.135 200.599 208.453 209.558
4979.26 183.808 190.435 215.88 195.175
4982.16 189.362 191.606 161.191 185.785
4985.05 201.648 198.673 180.285 191.783
4987.95 205.009 209.876 233.875 203.661
4990.84 222.971 195.359 196.822 195.461
4993.74 158.098 191.862 155.687 178.401
4996.64 194.516 178.769 182.693 170.352
4999.53 183.691 174.229 172.677 164.603
5002.43 144.48 171.354 138.44 170.493
5005.32 185.891 176.765 200.36 171.46
5008.22 199.923 200.736 175.58 195.321
5011.11 216.394 205.087 210.023 189.935
5014.01 198.944 206.584 184.203 200.163
5016.9 204.414 208.559 206.264 199.254
5019.8 222.319 232.063 207.295 213.054
5022.69 269.455 245.071 225.602 211.685
5025.59 243.438 257.185 202.158 208.951
5028.48 258.662 233.118 199.094 190.065
5031.38 197.252 211.619 168.942 185.14
5034.27 178.943 186.707 187.384 164.582
5037.17 183.927 197.346 137.421 186.776
5040.06 229.17 208.896 235.523 193.28
5042.95 213.593 225.69 206.895 224.651
5045.85 234.307 211.6 231.535 197.508
5048.74 186.901 197.802 154.094 187.809
5051.64 172.199 177.704 177.797 160.055
5054.53 174.013 211.336 148.273 204.321
5057.42 287.795 227.042 286.894 210.012
5060.32 219.318 236.966 194.868 218.201
5063.21 203.785 225.498 172.842 212.257
5066.11 253.39 204.572 269.062 209.388
5069 156.541 194.346 186.261 214.365
5071.89 173.107 170.413 187.772 177.373
5074.79 181.59 173.473 158.084 174.202
5077.68 165.723 171.68 176.75 165.764
5080.57 167.727 170.241 162.457 156.397
5083.47 177.273 179.639 129.985 155.255
5086.36 193.916 184.476 173.323 151.02
5089.25 182.239 192.133 149.753 174.189
5092.15 200.245 193.837 199.491 175.5
5095.04 199.027 214.204 177.255 190.347
5097.93 243.341 224.317 194.294 184.571
5100.82 230.583 233.017 182.165 180.553
5103.72 225.126 208.567 165.199 170.319
5106.61 169.992 199.734 163.593 175.814
5109.5 204.083 186.55 198.65 177.496
5112.39 185.576 183.809 170.244 175.115
5115.29 161.769 164.401 156.452 153.104
5118.18 145.859 174.678 132.617 152.739
5121.07 216.407 190.965 169.148 160.232
5123.96 210.631 198.844 178.932 173.021
5126.86 169.495 188.363 170.983 180.676
5129.75 184.964 177.29 192.112 169.203
5132.64 177.411 195.699 144.515 179.346
5135.53 224.721 199.845 201.412 165.264
5138.42 197.403 194.96 149.864 157.847
5141.31 162.755 191.926 122.265 140.454
5144.21 215.621 180.94 149.233 146.533
5147.1 164.446 192.266 168.102 155.484
5149.99 196.732 186.332 149.116 161.9
5152.88 197.819 212.857 168.481 163.713
5155.77 244.02 198.425 173.542 153.947
5158.66 153.437 198.866 119.818 156.407
5161.55 199.142 156.495 175.86 129.501
5164.44 116.906 153.895 92.8244 132
5167.34 145.637 113.906 127.317 96.7719
5170.23 79.1757 104.119 70.1745 87.4483
5173.12 87.5452 87.2937 64.8536 85.2988
5176.01 95.1601 113.297 120.868 118.066
5178.9 157.187 138.82 168.477 140.914
5181.79 164.113 153.302 133.397 138.738
5184.68 138.606 166.541 114.341 138.178
5187.57 196.905 171.865 166.795 157.171
5190.46 180.085 201.213 190.377 194.001
5193.35 226.648 205.043 224.832 206.843
5196.24 208.398 216.115 205.319 205.823
5199.13 213.299 198.506 187.318 187.748
5202.02 173.823 174.574 170.608 167.612
5204.91 136.6 144.004 144.912 130.337
5207.8 121.59 146.821 75.4911 133.509
5210.69 182.273 183.209 180.123 170.239
5213.58 245.763 210.717 255.102 220.364
5216.47 204.114 240.496 225.866 249.838
5219.36 271.612 222.683 268.547 229.714
5222.25 192.323 230.23 194.73 223.533
5225.14 226.756 214.854 207.322 204.189
5228.02 225.483 231.077 210.514 219.523
5230.91 240.991 232.763 240.732 217.705
5233.8 231.815 221.336 201.871 206.451
5236.69 191.201 231.49 176.751 209.574
5239.58 271.453 236.504 250.1 223.84
5242.47 246.857 261.226 244.671 240.28
5245.36 265.369 251.655 226.071 233.577
5248.25 242.738 243.49 229.989 222.361
5251.13 222.363 222.065 211.022 208.315
5254.02 201.094 224.873 183.934 198.198
5256.91 251.162 234.141 199.636 193.399
5259.8 250.165 238.509 196.627 203.055
5262.69 214.2 208.563 212.901 188.042
5265.58 161.326 211.747 154.599 205.343
5268.46 259.715 191.751 248.529 198.642
5271.35 154.211 224.656 192.797 241.606
5274.24 260.042 214.519 283.494 231.176
5277.13 229.303 239.251 217.238 253.277
5280.01 228.409 234.719 259.099 239.855
5282.9 246.447 254.298 243.228 256.724
5285.79 288.038 243.805 267.845 240.096
5288.68 196.931 237.64 209.216 222.45
5291.56 227.952 229.538 190.289 228.912
5294.45 263.731 238.085 287.233 231.985
5297.34 222.571 256.258 218.433 259.774
5300.22 282.473 246.996 273.657 243.799
5303.11 235.944 264.956 239.306 264.157
5306 276.451 251.699 279.506 270.359
5308.89 242.701 266.029 292.264 295.726
5311.77 278.933 265.091 315.408 298.657
5314.66 273.638 266.268 288.3 302.593
5317.54 246.233 261.987 304.07 287.226
5320.43 266.088 234.308 269.307 268.08
5323.32 190.603 228.279 230.862 253.08
5326.2 228.145 231.855 259.071 258.505
5329.09 276.817 257.873 285.581 274.182
5331.98 268.656 245.926 277.895 259.761
5334.86 192.306 242.629 215.807 260.939
5337.75 266.924 239.381 289.116 253.79
5340.63 258.912 258.358 256.447 267.284
5343.52 249.238 245.349 256.288 242.778
5346.4 227.897 255.792 215.6 252.96
5349.29 290.24 260.52 286.992 250.786
5352.17 263.423 273.258 249.765 280.58
5355.06 266.111 274.42 304.984 286.354
5357.95 293.727 290.018 304.315 299.766
5360.83 310.217 300.526 289.998 301.963
5363.72 297.635 302.832 311.575 296.259
5366.6 300.645 297.233 287.204 310.263
5369.49 293.42 281.577 332.009 291.034
5372.37 250.667 263.616 253.89 278.702
5375.25 246.761 255.315 250.209 266.162
5378.14 268.516 253.084 294.388 266.428
5381.02 243.975 249.599 254.686 284.056
5383.91 236.305 244.631 303.093 266.601
5386.79 253.613 242.389 242.024 271.068
5389.68 237.249 260.383 268.086 278.31
5392.56 290.285 254.783 324.819 291.333
5395.44 236.813 281.913 281.093 320.771
5398.33 318.64 254.08 356.402 289.263
5401.21 206.786 263.144 230.295 280.184
5404.1 264.005 245.572 253.854 266.455
5406.98 265.924 260.7 315.217 289.084
5409.86 252.171 246.101 298.18 290.333
5412.75 220.209 258.803 257.602 297.553
5415.63 304.03 298.5 336.878 337.911
5418.51 371.26 328.562 419.252 373.631
5421.4 310.395 325.48 364.764 366.81
5424.28 294.784 285.71 316.414 315.958
5427.16 251.952 272.815 266.697 296.169
5430.05 271.71 272.992 305.396 287.079
5432.93 295.314 277.909 289.144 302.304
5435.81 266.702 282.983 312.372 310.997
5438.69 286.933 276.861 331.476 312.681
5441.58 276.948 281.138 294.193 306.743
5444.46 279.533 271.804 294.559 301.447
5447.34 258.93 275.161 315.589 312.397
5450.22 287.021 283.058 327.044 330.883
5453.1 303.222 313.195 350.017 349.177
5455.99 349.342 302.007 370.469 325.994
5458.87 253.457 302.065 257.494 321.932
5461.75 303.397 290.621 337.834 316.021
5464.63 315.01 286.34 352.734 314.819
5467.51 240.612 278.951 253.891 312.287
5470.4 281.229 280.567 330.237 310.997
5473.28 319.86 280.712 348.863 326.317
5476.16 241.048 292.49 299.85 346.471
5479.04 316.563 297.713 390.699 351.546
5481.92 335.53 325.526 364.09 367.307
5484.8 324.486 323.368 347.132 352.646
5487.68 310.087 307.116 346.715 346.909
5490.56 286.774 298.499 346.879 346.039
5493.44 298.636 294.591 344.523 348.729
5496.33 298.362 308.526 354.785 356.891
5499.21 328.579 305.066 371.364 349.796
5502.09 288.256 266.657 323.238 352.306
5504.97 183.136 197.033 362.316 343.164
5507.85 119.708 175.416 343.937 343.89
5510.73 223.403 202.727 325.417 331.506
5513.61 265.07 253.923 325.162 323.224
5516.49 273.296 255.626 319.093 321.757
5519.37 228.512 251.843 321.014 323.639
5522.25 253.722 235.622 330.81 301.385
5525.13 224.632 253.928 252.33 304.732
5528.01 283.43 273.133 331.056 327.673
5530.89 311.337 259.536 399.632 375.92
5533.77 183.841 256.95 397.072 380.532
5536.65 275.674 243.483 344.893 363.118
5539.52 270.935 268.865 347.39 345.59
5542.4 259.985 251.642 344.488 371.314
5545.28 224.007 266.404 422.065 387.267
5548.16 315.221 283.429 395.247 391.478
5551.04 311.058 310.559 357.122 370.278
5553.92 305.398 302.161 358.466 342.795
5556.8 290.027 238.362 312.796 331.982
5559.68 119.661 192.201 324.683 341.402
5562.56 166.916 187.008 386.729 355.822
5565.43 274.446 235.487 356.053 358.524
5568.31 265.099 288.339 332.789 360.409
5571.19 325.472 285.206 392.385 292.773
5574.07 265.048 19.3754 153.144 202.01
5576.95 -532.394 -13.0321 60.5004 108.823
5579.82 228.249 -46.5244 112.825 110.287
5582.7 164.571 77.0233 157.536 161.717
5585.58 -161.751 89.3455 214.792 217.271
5588.46 265.216 107.2 279.486 258.621
5591.34 218.134 168.739 281.584 308.634
5594.21 22.8688 165.819 364.832 332.622
5597.09 256.454 174.953 351.45 343.606
5599.97 245.535 264.352 314.537 348.065
5602.84 291.066 281.945 378.208 353.548
5605.72 309.233 319.363 367.899 382.708
5608.6 357.791 317.481 402.016 358.792
5611.47 285.418 310.689 306.461 350.472
5614.35 288.859 247.91 342.939 334.017
5617.23 169.453 253.21 352.651 345.13
5620.1 301.319 251.991 339.801 346.925
5622.98 285.202 302.771 348.324 335.978
5625.86 321.793 298.148 319.81 333.806
5628.73 287.447 291.588 333.284 328.346
5631.61 265.524 292.58 331.946 360.194
5634.49 324.769 289.794 415.351 372.997
5637.36 279.089 252.799 371.695 386.069
5640.24 154.54 259.042 371.16 374.621
5643.11 343.498 273.078 381.007 374.194
5645.99 321.196 328.343 370.415 383.427
5648.86 320.337 306.988 398.86 365.521
5651.74 279.432 272.984 327.288 325.617
5654.61 219.184 282.672 250.703 324.187
5657.49 349.399 301.125 394.57 355.669
5660.36 334.791 285.723 421.733 374.073
5663.24 172.977 230.414 305.914 368.72
5666.11 183.474 209.36 378.511 348.493
5668.99 271.629 211.571 361.054 371.638
5671.86 179.609 238.079 375.347 359.392
5674.74 262.998 198.035 341.774 347.004
5677.61 151.499 236.321 323.889 334.132
5680.49 294.464 237.886 336.734 373.822
5683.36 267.694 244.876 460.844 403.781
5686.24 172.469 253.235 413.767 431.434
5689.11 319.544 268.638 419.691 395.617
5691.98 313.903 344.095 353.395 423.277
5694.86 398.838 325.718 496.747 379.582
5697.73 264.414 333.669 288.605 402.174
5700.6 337.755 272.52 421.171 332.995
5703.48 215.392 270.739 289.211 364.945
5706.35 259.071 218.944 384.453 342.015
5709.23 182.368 233.906 352.381 344.699
5712.1 260.28 250.072 297.263 329.761
5714.97 307.568 287.556 339.64 331.402
5717.84 294.821 311.774 357.302 355.198
5720.72 332.934 317.525 368.652 371.547
5723.59 324.819 262.206 388.687 359.2
5726.46 128.865 239.184 320.26 337.789
5729.34 263.868 225.731 304.418 319.479
5732.21 284.462 243.002 333.758 319.344
5735.08 180.677 255 319.857 335.603
5737.95 299.861 272.285 353.194 344.367
5740.82 336.318 278.135 360.049 375.464
5743.7 198.225 231.524 413.149 384.985
5746.57 160.029 235.949 381.756 413.325
5749.44 349.594 279.276 445.068 415.702
5752.31 328.204 315.956 420.281 393.497
5755.18 270.068 293.694 315.143 370.888
5758.06 282.809 285.694 377.24 345.113
5760.93 304.206 289.314 342.956 362.457
5763.8 280.927 305.13 367.176 373.929
5766.67 330.256 304.675 411.655 383.873
5769.54 302.843 325.362 372.787 390.707
5772.41 342.988 311.306 387.678 386.293
5775.28 288.087 297.684 398.414 372.847
5778.15 261.977 269.845 332.45 346.637
5781.02 259.471 265.031 309.047 325.681
5783.89 273.645 282.017 335.548 332.586
5786.76 312.936 308.129 353.164 349.753
5789.63 337.807 305.692 360.547 336.059
5792.5 266.335 300.521 294.468 378.185
5795.38 297.423 311.21 479.54 407.276
5798.24 369.872 325.852 447.819 428.645
5801.11 310.26 354.686 358.576 416.585
5803.98 383.926 315.285 443.36 368.748
5806.85 251.668 301.876 304.308 358.026
5809.72 270.034 292.817 326.411 343.881
5812.59 356.749 337.022 400.925 395.931
5815.46 384.283 359.042 460.457 420.559
5818.33 336.092 357.333 400.295 429.91
5821.2 351.623 294.895 428.976 396.369
5824.07 196.971 303.928 359.837 411.549
5826.94 363.191 297.01 445.833 398.268
5829.81 330.868 339.16 389.133 395.773
5832.68 323.422 314.132 352.352 368.79
5835.54 288.108 308.914 364.885 375.08
5838.41 315.211 306.11 408.002 396.154
5841.28 315.012 307.841 415.575 389.594
5844.15 293.3 307.608 345.205 370.779
5847.02 314.512 306.111 351.555 337.67
5849.89 310.521 268.089 316.249 347.841
5852.75 179.234 274.844 375.719 360.651
5855.62 334.775 283.315 389.985 403.11
5858.49 335.935 320.476 443.625 382.339
5861.36 290.718 300.864 313.408 380.451
5864.22 275.939 292.346 384.321 363.646
5867.09 310.379 289.938 393.209 354.71
5869.96 283.496 258.466 286.601 340.247
5872.83 181.522 202.065 340.931 328.422
5875.69 141.178 198.939 357.735 365.294
5878.56 274.117 225.189 397.217 364.285
5881.43 260.274 173.847 337.904 316.098
5884.29 -12.8502 60.623 213.172 270.736
5887.16 -65.5547 15.2649 261.133 193.188
5890.03 124.2 84.7169 105.258 199.437
5892.89 195.506 194.363 231.92 215.879
5895.76 263.383 215.669 310.459 273.337
5898.63 188.118 234.961 277.632 313.802
5901.49 253.381 269.005 353.317 355.794
5904.36 365.516 314.084 436.434 385.254
5907.22 323.356 282.341 366.01 417.687
5910.09 158.152 260.828 450.617 405.22
5912.95 300.976 266.323 399.032 424.634
5915.82 339.843 284.79 424.253 354.5
5918.68 213.552 315.532 240.215 383.259
5921.55 393.201 304.982 485.309 379.572
5924.42 308.193 338.98 413.192 418.846
5927.28 315.545 322.364 358.036 394.04
5930.14 343.354 327.778 410.891 376.393
5933.01 324.437 263.583 360.252 371.817
5935.87 122.959 253.076 344.307 361.486
5938.74 311.833 196.946 379.897 375.636
5941.6 156.046 273.301 402.703 410.325
5944.47 352.024 275.282 448.374 409.955
5947.33 317.778 327.342 378.787 398.34
5950.2 312.223 261.238 367.859 379.109
5953.06 153.713 281.718 390.683 393.832
5955.92 379.218 278.415 422.954 395.598
5958.79 302.313 338.641 373.158 394.205
5961.65 334.391 347.001 386.503 409.609
5964.51 404.299 346.175 469.167 409.543
5967.38 299.836 317.148 372.958 436.752
5970.24 247.309 275.463 468.13 393.987
5973.1 279.245 264.333 340.874 383.51
5975.97 266.445 278.629 341.525 363.045
5978.83 290.196 301.918 406.736 385.271
5981.69 349.114 354.33 407.552 406.752
5984.56 423.679 376.538 405.969 420.042
5987.42 356.821 352.783 446.606 405.005
5990.28 277.85 333.472 362.439 391.15
5993.14 365.745 349.95 364.404 392.193
5996 406.254 361.079 449.737 395.931
5998.87 311.237 354.765 373.65 411.656
6001.73 346.805 336.717 411.58 399.895
6004.59 352.11 354.293 414.454 415.366
6007.45 363.965 337.531 420.065 399.521
6010.31 296.519 314.645 364.043 368.566
6013.17 283.451 294.663 321.591 360.144
6016.04 304.02 301.606 394.797 379.873
6018.9 317.347 303.713 423.231 373.78
6021.76 289.771 250.164 303.313 341.75
6024.62 143.374 223.085 298.706 337.564
6027.48 236.111 238.13 410.672 361.561
6030.34 334.906 255.371 375.305 378.715
6033.2 195.096 281.279 350.168 360.743
6036.06 313.835 246.291 356.756 363.164
6038.92 229.942 277.417 382.568 372.174
6041.78 288.474 269.427 377.198 369.324
6044.64 289.866 256.446 348.206 384.483
6047.5 190.997 263.967 428.045 385.608
6050.36 311.037 278.012 380.573 403.993
6053.22 332.003 334.498 403.36 421.507
6056.08 360.453 346.434 480.587 428.38
6058.94 346.847 345.733 401.194 412.412
6061.8 329.898 352.241 355.456 393.363
6064.66 379.978 300.905 423.438 389.408
6067.52 192.838 303.89 389.331 404.966
6070.38 338.854 288.591 402.13 410.795
6073.24 334.08 304.685 440.924 428.589
6076.1 241.121 308.285 442.713 439.643
6078.96 349.653 278.593 435.292 411.434
6081.81 245.006 308.332 356.298 396.231
6084.67 330.338 249.703 397.104 372.506
6087.53 173.764 237.422 364.116 394.927
6090.39 208.164 250.485 423.56 394.698
6093.25 369.527 269.707 396.418 386.862
6096.1 231.431 322.263 340.609 379.771
6098.96 365.83 305.804 402.284 364.926
6101.82 320.152 346.064 351.885 390.936
6104.68 352.209 326.416 418.639 372.249
6107.54 306.887 307.764 346.223 363.328
6110.39 264.195 243.172 325.122 318.596
6113.25 158.433 239.305 284.444 321.811
6116.11 295.288 269.981 355.867 349.89
6118.96 356.222 314.095 409.359 364.82
6121.82 290.775 317.249 329.234 360.75
6124.68 304.75 324.059 343.657 361.478
6127.53 376.652 325.513 411.542 361.256
6130.39 295.136 335.639 328.57 369.778
6133.25 335.131 310.375 369.222 343.771
6136.1 300.858 308.957 333.522 356.433
6138.96 290.883 313.562 366.554 363.711
6141.82 348.943 317.577 391.055 387.541
6144.67 312.906 322.111 405.012 373.724
6147.53 304.482 324.81 325.103 375.655
6150.38 357.043 315.556 396.851 360.29
6153.24 285.144 301.764 358.916 363.522
6156.09 263.105 223.989 334.799 327.913
6158.95 123.719 168.242 290.023 314.895
6161.8 117.9 190.126 319.861 330.455
6164.66 328.758 211.941 381.481 348.826
6167.51 189.166 271.234 345.136 351.698
6170.37 295.778 222.915 328.478 345.699
6173.22 183.801 261.372 363.483 347.383
6176.08 304.537 238.776 350.188 365.122
6178.93 227.99 244.768 381.694 380.001
6181.79 201.777 255.579 408.122 388.775
6184.64 336.97 275.124 376.509 367.825
6187.49 286.625 322.246 318.845 374.93
6190.35 343.142 304.706 429.438 380.181
6193.2 284.352 330.514 392.261 411.115
6196.05 364.047 325.944 411.648 417.558
6198.91 329.432 288.929 448.766 396.98
6201.76 173.307 233.525 330.526 379.186
6204.61 197.836 228.981 358.267 346.908
6207.47 315.801 215.656 351.931 332.325
6210.32 133.331 253.587 286.777 326.02
6213.17 311.629 257.224 339.353 325.49
6216.03 326.712 305.161 350.341 331.645
6218.88 277.143 260.482 305.242 340.419
6221.73 177.591 260.753 365.674 350.956
6224.58 327.525 242.061 381.953 334.101
6227.43 221.066 220.072 254.676 309.383
6230.29 111.623 203.799 291.521 283.873
6233.14 278.708 233.729 305.422 302.68
6235.99 310.855 257.969 311.098 332.468
6238.84 184.343 215.201 380.884 347.479
6241.69 150.405 215.397 350.455 370.032
6244.54 311.445 267.977 378.758 375.311
6247.4 342.082 330.027 396.721 398.655
6250.25 336.555 312.727 420.487 379.628
6253.1 259.544 280.935 321.675 353.729
6255.95 246.705 262.621 319.026 306.944
6258.8 281.614 265.2 280.131 292.077
6261.65 267.279 289.148 277.073 306.64
6264.5 318.55 286.769 362.717 328.243
6267.35 274.478 302.591 344.937 363.949
6270.2 314.745 303.333 384.192 364.192
6273.05 320.776 260.12 363.448 367.235
6275.9 144.84 187.371 354.064 332.894
6278.75 96.4962 158.742 281.169 315.637
6281.6 234.89 220.688 311.677 312.261
6284.45 330.677 227.15 343.936 322.219
6287.3 115.883 166.502 311.043 342.616
6290.15 52.9466 167.686 372.87 325.289
6293 334.227 210.725 291.954 232.549
6295.85 245.002 309.307 32.8232 124.448
6298.7 348.693 263.438 48.5677 38.4175
6301.54 196.617 276.298 33.8617 65.3399
6304.39 283.584 236.938 113.59 131.4
6307.24 230.612 283.776 246.749 245.925
6310.09 337.131 301.797 377.436 335.63
6312.94 337.647 321.797 382.704 381.615
6315.79 290.612 260.569 384.705 386.892
6318.63 153.449 193.342 393.266 390.922
6321.48 135.966 203.403 394.794 404.862
6324.33 320.793 250.553 426.526 389.29
6327.18 294.899 251.392 346.549 372.383
6330.02 138.485 210.117 344.073 380.361
6332.87 196.968 218.079 450.461 384.77
6335.72 318.785 262.532 359.774 383.162
6338.57 271.844 295.613 339.251 350.787
6341.41 296.209 308.479 353.336 368.053
6344.26 357.384 316.647 411.572 366.303
6347.11 296.349 341.892 334 396.079
6349.95 371.945 327.068 442.666 390.284
6352.8 312.912 356.306 394.187 427.972
6355.64 384.063 358.126 447.063 409.353
6358.49 377.405 340.581 386.81 366.761
6361.34 260.277 320.391 266.41 310.009
6364.18 323.493 277.753 276.806 284.296
6367.03 249.488 222.095 309.671 325.625
6369.87 93.3047 186.789 390.397 325.262
6372.72 217.573 221.865 275.718 367.662
6375.56 354.718 307.17 436.872 373.942
6378.41 349.218 333.451 409.236 393.863
6381.25 296.417 285.538 335.481 379.706
6384.1 210.977 221.562 394.402 354.82
6386.94 157.29 240.214 334.579 372.667
6389.79 352.373 237.57 389.02 362.481
6392.63 203.046 286.292 363.845 377.272
6395.48 303.456 229.421 378.952 366.298
6398.32 181.763 262.19 356.098 362.329
6401.16 301.351 279.26 351.937 381.212
6404.01 354.666 276.248 435.603 382.064
6406.85 172.728 260.943 358.653 361.338
6409.69 255.434 251.304 289.758 340.469
6412.54 325.751 261.138 372.995 354.335
6415.38 202.229 244.414 400.253 367.66
6418.22 205.261 246.702 329.731 368.832
6421.07 332.618 274.254 376.514 351.671
6423.91 284.883 314.895 348.77 374.14
6426.75 327.183 299.201 397.136 368.878
6429.59 285.537 266.239 360.729 388.338
6432.44 185.998 283.95 407.149 393.822
6435.28 380.316 293.752 413.587 396.86
6438.12 314.943 352.956 369.844 399.893
6440.96 363.608 313.064 416.249 395.181
6443.81 260.641 317.079 399.45 396.423
6446.65 326.987 308.23 373.569 402.174
6449.49 337.063 330.964 433.503 405.782
6452.33 328.841 313.315 410.276 396.563
6455.17 274.04 260.906 345.911 381.732
6458.01 179.838 245.801 389.009 362.097
6460.85 283.524 255.807 351.369 350.575
6463.69 304.057 305.401 311.347 345.131
6466.53 328.622 275.494 372.677 367.264
6469.38 193.804 274.25 417.769 391.889
6472.22 300.324 278.483 385.22 410.79
6475.06 341.321 260.97 429.38 390.252
6477.9 141.265 239.358 356.155 371.762
6480.74 235.486 186.988 329.753 358.956
6483.58 184.212 247.977 390.959 377.327
6486.42 324.233 223.9 411.27 403.721
6489.26 163.254 245.054 408.935 373.664
6492.09 247.674 218.473 300.788 359.748
6494.93 244.49 196.153 369.52 320.884
6497.77 96.2957 201.175 292.343 308.275
6500.61 262.739 235.46 262.961 332.98
6503.45 347.346 253.884 443.635 356.427
6506.29 151.569 207.793 362.686 380.463
6509.13 124.464 192.331 335.07 362.798
6511.97 300.96 247.555 390.64 370.072
6514.8 317.241 309.826 384.506 394.172
6517.64 311.277 291.12 407.369 376.078
6520.48 244.841 307.745 336.358 401.834
6523.32 367.116 306.7 461.775 402.894
6526.16 308.144 289.046 410.548 437.824
6528.99 191.878 266.478 441.15 412.992
6531.83 299.411 275.616 387.279 407.914
6534.67 335.56 319.893 395.313 407.079
6537.51 324.707 326.56 438.646 409.627
6540.34 319.412 332.047 394.921 434.069
6543.18 352.024 338.753 468.638 429.363
6546.02 344.823 337.003 424.53 441.306
6548.85 314.161 319.728 430.749 417.038
6551.69 300.199 313.389 395.835 411.125
6554.52 325.808 301.443 406.791 390.185
6557.36 278.324 300.976 367.929 363.796
6560.2 298.795 310.814 316.667 375.243
6563.03 355.324 324.627 441.134 385.249
6565.87 319.763 320.722 397.948 392.702
6568.7 287.079 314.596 339.024 378.14
6571.54 336.945 300.98 397.449 348.351
6574.37 278.916 289.942 308.579 342.848
6577.21 253.964 290.469 322.516 346.93
6580.04 338.526 289.054 409.695 371.936
6582.88 274.671 297.288 383.597 376.14
6585.71 278.666 276.555 335.128 372.319
6588.55 276.327 269.087 398.231 363.751
6591.38 252.266 249.834 357.893 393.738
6594.22 220.908 253.273 425.09 383.617
6597.05 286.644 262.411 367.868 375.397
6599.88 279.682 299.423 333.234 369.485
6602.72 331.942 293.221 407.354 363.233
6605.55 268.038 258.024 349.112 376.297
6608.38 174.091 247.88 372.426 375.494
6611.22 301.509 256.364 404.944 382.666
6614.05 293.493 278.717 370.629 389.973
6616.88 241.149 272.027 394.348 385.24
6619.72 281.439 272.147 390.743 379.814
6622.55 293.852 260.594 354.35 377.849
6625.38 206.492 283.288 388.453 406.79
6628.21 349.521 289.067 477.568 405.594
6631.05 311.189 313.876 350.761 387.227
6633.88 280.916 299.779 333.352 339.615
6636.71 307.23 299.703 334.731 327.867
6639.54 310.962 312.531 315.517 343.288
6642.37 319.401 296.912 379.615 339.785
6645.2 260.371 277.96 324.224 336.686
6648.03 254.106 276.065 306.219 331.239
6650.87 313.717 294.837 363.274 359.39
6653.7 316.687 303.732 408.678 371.064
6656.53 280.791 306.257 341.24 376.516
6659.36 321.293 305.012 379.632 360.849
6662.19 312.952 345.333 361.675 400.327
6665.02 401.755 331.902 459.673 383.573
6667.85 281 336.12 329.37 380.339
6670.68 325.606 299.661 351.974 338.767
6673.51 292.376 307.282 334.957 353.803
6676.34 303.864 303.031 374.477 361.295
6679.17 312.852 291.932 374.45 351.149
6682 259.079 294.632 304.518 348.16
6684.83 311.964 273.776 365.511 335.208
6687.66 250.285 293.617 335.595 361.441
6690.48 318.604 298.108 383.216 360.564
6693.31 325.436 308.637 362.88 350.267
6696.14 281.871 306.399 304.704 345.363
6698.97 311.891 303.409 368.505 333.252
6701.8 316.464 290.098 326.548 328.267
6704.63 241.939 287.408 289.747 315.329
6707.45 303.822 278.881 329.692 317.669
6710.28 290.881 288.444 333.569 339.176
6713.11 270.628 292.579 354.266 338.991
6715.94 316.227 295.203 329.139 350.78
6718.77 298.754 315.354 368.934 362.284
6721.59 331.081 311.785 388.778 368.113
6724.42 305.52 301.582 346.626 365.11
6727.25 268.146 298.751 359.926 354.593
6730.07 322.587 299.722 357.227 356.68
6732.9 308.433 309.353 352.888 353.66
6735.73 297.039 315.369 350.865 361.522
6738.55 340.634 258.025 380.814 334.937
6741.38 136.403 261.177 273.132 319.907
6744.2 306.493 252.721 305.775 314.876
6747.03 315.267 270.342 365.719 322.175
6749.86 189.265 269.647 295.03 342.734
6752.68 304.409 244.356 367.452 346.438
6755.51 239.393 261.495 376.833 366.89
6758.33 240.682 247.03 356.386 339.876
6761.16 261.015 262.563 286.411 323.792
6763.98 285.993 278.709 328.581 319.69
6766.81 289.12 293.954 344.08 338.059
6769.63 306.748 253.573 341.515 324.097
6772.45 164.85 242.277 286.696 336.653
6775.28 255.231 237.05 381.747 327.41
6778.1 291.067 294.345 313.786 355.773
6780.93 336.736 336.797 371.786 370.235
6783.75 382.586 340.536 425.131 374.178
6786.57 302.286 300.883 325.616 362.11
6789.4 217.776 253.482 335.583 309.16
6792.22 240.383 223.537 266.28 303.355
6795.04 212.45 265.45 308.201 318.825
6797.87 343.518 291.43 381.995 339.451
6800.69 318.322 319.538 328.157 352.344
6803.51 296.775 309.549 346.878 334.487
6806.33 313.549 306.351 328.426 338.452
6809.16 308.729 309.958 340.051 339.581
6811.98 307.595 295.461 350.266 329.335
6814.8 270.059 284.231 297.689 315.887
6817.62 275.039 283.582 299.707 316.196
6820.44 305.648 310.265 351.193 355.133
6823.26 350.107 316.881 414.5 359.508
6826.09 294.889 306.446 312.831 330.633
6828.91 274.343 202.439 264.567 303.533
6831.73 38.0836 214.068 333.201 289.997
6834.55 329.779 155.623 272.221 310.103
6837.37 99.0065 231.861 324.887 315.022
6840.19 266.798 181.307 347.957 347.368
6843.01 178.115 245.686 369.261 340.922
6845.83 292.145 255.825 305.549 322.85
6848.65 297.216 272.03 293.739 285.217
6851.47 226.728 203.815 256.364 290.832
6854.29 87.5022 192.649 322.392 294.608
6857.11 263.716 213.866 305.066 304.466
6859.93 290.379 278.487 285.94 282.638
6862.75 281.366 253.262 256.907 243.443
6865.57 188.041 166.812 187.481 226.089
6868.38 31.031 83.0632 233.879 209.888
6871.2 30.118 92.2851 208.302 217.019
6874.02 215.706 157.702 208.876 220.887
6876.84 227.281 241.042 245.483 256.491
6879.66 280.138 265.554 315.114 296.089
6882.48 289.244 259.605 327.669 296.63
6885.29 209.433 263.638 247.107 291.484
6888.11 292.236 266.738 299.675 282.151
6890.93 298.546 248.175 299.67 298.061
6893.75 153.743 231.225 294.838 276.303
6896.56 241.385 215.491 234.402 272.834
6899.38 251.344 239.062 289.262 255.116
6902.2 224.456 270.053 241.683 298.264
6905.01 334.36 283.817 363.846 320.09
6907.83 292.636 300.795 354.74 349.227
6910.65 275.388 280.128 329.095 316.212
6913.46 272.359 209.267 264.802 277.478
6916.28 80.0539 148.588 238.536 239.822
6919.09 93.3501 144.567 216.127 233.562
6921.91 260.298 153.507 246.024 244.794
6924.72 106.874 214.927 272.23 274.808
6927.54 277.609 174.867 306.171 291.887
6930.35 140.119 233.612 297.26 294.583
6933.17 283.109 191.008 280.316 288.425
6935.98 149.797 211.012 287.699 293.761
6938.8 200.131 200.371 313.267 283.703
6941.61 251.184 259.177 250.142 297.637
6944.43 326.217 284.24 329.5 288.374
6947.24 275.32 308.126 285.479 311.169
6950.06 322.84 282.839 318.527 269.981
6952.87 250.358 284.734 205.938 261.985
6955.68 281.003 282.798 261.49 263.281
6958.5 317.032 255.212 322.416 281.628
6961.31 167.602 278.445 260.978 316.142
6964.12 350.702 272.677 365.031 301.551
6966.94 299.728 308.321 278.645 309.401
6969.75 274.534 294.049 284.527 301.086
6972.56 307.887 301.458 340.085 324.137
6975.37 321.954 306.783 347.799 324.724
6978.18 290.507 292.622 286.288 304.523
6981 265.403 252.419 279.482 301.573
6983.81 201.347 227.124 338.949 308.915
6986.62 214.622 241.899 308.313 332.943
6989.43 309.728 276.587 351.566 320.879
6992.24 305.411 294.327 302.758 299.834
6995.05 267.841 248.592 245.179 273.039
6997.86 172.524 258.019 271.18 270.816
7000.68 333.691 232.216 296.089 250.382
7003.49 190.434 287.208 183.878 272.082
7006.3 337.501 269.163 336.277 267.233
7009.11 279.553 253.776 281.545 298.595
7011.92 144.275 241.036 277.962 289.681
7014.73 299.278 223.376 309.536 299.828
7017.54 226.573 270.701 311.986 309.517
7020.35 286.251 254.845 307.028 316.331
7023.16 251.711 269.665 329.979 300.485
7025.96 271.033 270.29 264.448 294.512
7028.77 288.125 300.484 289.11 296.699
7031.58 342.293 308.408 336.539 298.719
7034.39 294.806 325.934 270.506 320.133
7037.2 340.702 328.385 353.352 322.71
7040.01 349.648 337.073 344.272 348.667
7042.82 320.868 310.963 348.378 310.099
7045.62 262.372 290.644 237.646 292.72
7048.43 288.693 293.388 292.136 283.733
7051.24 329.098 292.803 321.417 295.464
7054.05 260.618 312.478 272.839 313.28
7056.85 347.717 276.522 345.584 305.042
7059.66 221.23 287.789 296.703 308.94
7062.47 294.42 283.665 284.534 305.175
7065.27 335.346 326.201 334.288 322.389
7068.08 348.838 299.04 348.346 302.997
7070.89 212.935 287.516 226.356 287.555
7073.69 300.775 282.521 287.963 273.337
7076.5 333.852 278.291 305.692 295.928
7079.3 200.245 217.937 294.128 266.992
7082.11 119.714 189.74 201.155 255.631
7084.92 249.262 209.387 271.611 237.745
7087.72 259.186 257.725 240.47 253.476
7090.53 264.728 275.329 248.349 264.309
7093.33 302.072 258.489 304.109 276.47
7096.14 208.667 256.063 276.952 272.51
7098.94 257.45 250.12 236.469 263.552
7101.74 284.243 258.75 277.233 279.466
7104.55 234.556 283.324 324.696 312.777
7107.35 331.173 285.126 336.403 310.213
7110.16 289.65 275.992 269.542 301.015
7112.96 207.154 261.926 297.099 277.089
7115.76 288.975 264.938 264.625 288.52
7118.57 298.684 288.543 303.834 278.311
7121.37 277.969 287.169 266.475 301.359
7124.17 284.853 275.326 333.768 289.862
7126.98 263.155 282.756 269.342 299.802
7129.78 300.261 267.545 296.295 265.195
7132.58 239.22 250.294 229.948 249.411
7135.38 211.402 241.645 221.991 242.374
7138.18 274.312 245.294 275.184 260.855
7140.99 250.169 263.668 285.391 274.277
7143.79 266.524 261.659 262.258 278.44
7146.59 268.284 284.832 287.672 282.75
7149.39 319.689 284.296 298.32 283.255
7152.19 264.916 283.318 263.772 274.127
7154.99 265.349 251.636 260.288 249.742
7157.79 224.642 239.369 225.166 221.674
7160.59 228.117 223.914 179.569 238.234
7163.39 218.985 224.638 309.968 275.226
7166.19 226.813 246.459 336.141 314.859
7168.99 293.579 262.161 298.467 305.752
7171.79 266.092 280.186 282.647 282.605
7174.59 280.888 255.436 266.701 281.507
7177.39 219.328 240.768 295.172 258.252
7180.19 222.087 218.194 212.883 240.671
7182.99 213.168 205.69 213.958 214.955
7185.79 181.814 209.632 218.024 222.862
7188.59 233.914 205.262 236.605 221.577
7191.39 200.058 236.741 210.103 240.731
7194.18 276.251 243.546 275.484 240.267
7196.98 254.329 278.803 235.214 270.132
7199.78 305.828 262.37 299.696 249.755
7202.58 226.953 255.657 214.355 244.505
7205.38 234.19 239.917 219.462 234.148
7208.17 258.606 257.325 268.626 251.323
7210.97 279.179 263.352 265.88 260.033
7213.77 252.272 268.935 245.593 257.065
7216.56 275.355 261.191 259.722 244.34
7219.36 255.948 260.993 227.705 238.028
7222.16 251.676 254.819 226.658 237.806
7224.95 256.834 221.121 259.056 246.796
7227.75 154.855 233.718 254.675 272.577
7230.54 289.467 173.904 304.002 275.679
7233.34 77.391 178.136 268.361 266.067
7236.14 167.55 57.0031 225.839 219.685
7238.93 -73.9318 119.133 164.854 217.056
7241.73 263.78 23.5131 260.476 216.309
7244.52 -119.309 139.72 223.598 260.439
7247.31 274.688 128.394 297.242 237.119
7250.11 229.802 255.204 190.517 251.322
7252.9 261.122 240.848 266.209 231.97
7255.7 231.619 245.169 239.184 249.784
7258.49 242.766 244.191 243.959 244.87
7261.29 258.189 243.762 251.467 242.33
7264.08 230.331 250.279 231.565 244.783
7266.87 262.318 247.18 251.316 239.514
7269.67 248.891 248.639 235.662 226.83
7272.46 234.707 269.702 193.512 254.959
7275.25 325.508 290.213 335.702 285.503
7278.04 310.423 292.182 327.295 303.814
7280.84 240.614 253.241 248.444 258.571
7283.63 208.687 242.542 199.975 247.271
7286.42 278.324 240.789 293.395 232.644
7289.21 235.357 254.801 204.562 263.909
7292 250.723 204.567 293.77 241.671
7294.79 127.62 214.145 226.682 262.546
7297.59 264.091 204.908 267.184 224.869
7300.38 223.012 270.552 180.739 260.208
7303.17 324.551 251.425 332.7 243.503
7305.96 206.711 202.274 217.068 284.913
7308.75 75.5584 179.919 304.97 265.6
7311.54 257.488 212.443 274.762 304.469
7314.33 304.282 291.341 333.675 283.051
7317.12 312.252 297.473 240.716 294.425
7319.91 275.886 269.501 308.884 257.813
7322.7 220.365 272.363 223.838 279.71
7325.49 320.838 269.307 306.409 256.35
7328.28 266.72 270.911 238.803 264.066
7331.06 225.176 271.54 246.985 243.328
7333.85 322.726 273.848 244.196 249.62
7336.64 273.643 302.818 257.679 233.05
7339.43 312.086 283.024 197.274 245.91
7342.22 263.342 189.581 282.776 241.492
7345.01 -6.68448 175.789 244.425 257.264
7347.79 270.708 164.874 244.591 247.184
7350.58 230.6 248.243 252.537 248.213
7353.37 243.422 258.671 247.511 266.635
7356.15 301.989 204.378 299.857 260.455
7358.94 67.7228 220.952 233.996 270.214
7361.73 293.143 200.664 276.79 236.745
7364.51 241.126 147.635 199.448 222.209
7367.3 -91.3631 129.913 190.39 210.544
7370.09 239.976 46.7181 241.794 233.3
7372.87 -8.45839 93.8792 267.715 250.137
7375.66 50.1201 107.758 240.902 264.379
7378.44 281.612 193.787 284.52 253.868
7381.23 249.63 261.126 236.183 259.152
7384.01 252.135 251.793 256.753 243.306
7386.8 253.615 194.815 236.98 222.623
7389.58 78.6947 137.966 174.137 217.968
7392.37 81.589 120.098 242.786 208.675
7395.15 200.011 179.14 209.103 217.999
7397.94 255.82 236.796 202.107 223.745
7400.72 254.558 236.899 260.025 234.505
7403.5 200.319 155.574 241.383 242.243
7406.29 11.8465 134.231 225.321 228.905
7409.07 190.528 119.825 220.012 238.038
7411.85 157.101 173.318 268.782 222.351
7414.64 172.325 172.287 178.26 245.193
7417.42 187.435 198.951 288.536 238.913
7420.2 237.093 220.991 249.942 259.386
7422.98 238.446 245.035 239.679 247.513
7425.77 259.565 249.678 252.918 242.344
7428.55 251.023 214.768 234.436 239.696
7431.33 133.717 175.364 231.736 255.04
7434.11 141.352 168.04 298.948 255.341
7436.89 229.05 196.713 235.34 258.43
7439.67 219.736 238.126 241.002 255.765
7442.45 265.591 234.018 290.953 246.94
7445.23 216.729 222.329 208.865 244.376
7448.01 184.669 224.655 233.308 232.459
7450.79 272.568 218.711 255.204 253.147
7453.57 198.898 244.091 270.927 264.477
7456.35 260.806 218.166 267.298 258.004
7459.13 194.795 240.228 235.787 250.862
7461.91 265.084 202.724 249.5 250.003
7464.69 148.295 206.167 264.722 257.218
7467.47 205.121 205.456 257.433 249.748
7470.25 262.953 250.379 227.09 266.885
7473.03 283.063 252.478 316.133 250.417
7475.81 211.417 261.029 208.029 242.5
7478.59 288.608 257.247 203.337 224.947
7481.36 271.716 285.989 263.475 241.646
7484.14 297.643 216.311 258.125 248.138
7486.92 79.5751 221.893 222.815 254.285
7489.7 288.462 207.237 281.915 243.483
7492.47 253.672 259.316 225.718 259.156
7495.25 235.814 253.122 269.835 242.178
7498.03 269.879 270.019 230.983 269.281
7500.8 304.364 276.005 307.027 266.792
7503.58 253.772 254.39 262.365 260.294
7506.35 205.035 240.611 211.49 236.996
7509.13 263.027 231.752 237.134 222.572
7511.91 227.193 251.39 219.093 231.839
7514.68 263.951 199.641 239.292 230.705
7517.46 107.778 217.781 233.729 253.848
7520.23 281.615 223.657 288.524 263.84
7523.01 281.577 248.616 269.267 252.574
7525.78 182.657 215.958 199.929 237.362
7528.56 183.64 190.809 242.889 217.204
7531.33 206.129 153.419 208.794 217.634
7534.1 70.4895 165.812 201.218 206.232
7536.88 220.817 171.584 208.685 210.744
7539.65 223.446 240.757 222.329 221.968
7542.42 278.008 250.687 234.891 230.705
7545.2 250.606 255.385 234.894 226.295
7547.97 237.541 223.266 209.099 233.115
7550.74 181.651 212.86 255.351 228.909
7553.51 219.39 200.606 222.277 233.923
7556.29 200.777 206.698 224.142 219.207
7559.06 199.929 206.721 211.201 241.954
7561.83 219.456 236.483 290.52 246.761
7564.6 290.064 198.371 238.563 257.02
7567.37 85.5933 233.867 241.977 236.577
7570.14 325.943 226.858 229.191 228.206
7572.92 269.039 267.893 213.45 218.655
7575.69 208.697 235.318 213.323 222.162
7578.46 228.218 205.719 239.714 204.243
7581.23 180.24 233.036 159.691 200.042
7584 290.649 238.638 200.721 197.849
7586.77 245.023 241.046 233.134 208.577
7589.54 187.465 195.579 191.877 173.678
7592.31 154.248 139.271 96.0219 119.784
7595.08 76.1014 76.6206 71.4541 85.1057
7597.84 -0.487104 47.1432 87.8411 80.5582
7600.61 65.8154 50.2715 82.3794 91.5665
7603.38 85.4863 60.3234 104.479 66.5022
7606.15 29.6684 73.4054 12.6484 74.1338
7608.92 105.062 91.9445 105.274 83.6709
7611.69 141.104 138.465 133.09 133.029
7614.45 169.231 140.812 160.722 138.917
7617.22 112.102 112.073 122.94 140.196
7619.99 54.8867 102.407 136.926 112.141
7622.76 140.232 93.0613 76.5578 112.41
7625.52 84.0655 93.3719 123.746 121.329
7628.29 55.8185 101.139 163.684 144.998
7631.06 163.534 108.693 147.563 144.982
7633.82 106.726 122.035 123.697 129.89
7636.59 95.8458 112.206 118.411 127.708
7639.35 134.044 126.47 141.015 133.396
7642.12 149.521 151.163 140.762 148.265
7644.88 169.925 158.571 163.017 148.433
7647.65 156.267 143.593 141.521 149.584
7650.41 104.588 122.069 144.215 147.878
7653.18 105.353 124.721 157.898 153.412
7655.94 164.222 152.264 158.124 168.561
7658.71 187.218 175.652 189.661 157.122
7661.47 175.517 184.31 123.582 151.228
7664.24 190.195 162.274 140.441 152.89
7667 121.11 171.082 194.649 166.846
7669.76 201.943 161.841 165.45 179.336
7672.53 162.471 201.534 177.91 189.236
7675.29 240.189 165.886 224.349 186.957
7678.05 94.9993 190.033 158.611 201.205
7680.81 234.911 134.822 220.654 175.556
7683.58 74.5548 158.357 147.404 181.994
7686.34 165.607 146.142 177.924 179.691
7689.1 198.265 182.766 213.746 180.112
7691.86 184.426 202.533 148.667 180.359
7694.62 224.907 206.346 178.663 158.524
7697.38 209.705 201.883 148.244 159.316
7700.14 171.038 151.76 151.04 170.883
7702.9 74.5361 98.3471 213.366 150.728
7705.66 49.4673 122.912 87.7786 161.145
7708.43 244.732 28.4824 182.291 137.068
7711.19 -208.752 66.3559 141.136 143.223
7713.94 163.088 22.6964 106.242 97.3719
7716.7 113.753 154.563 44.7385 118.1
7719.46 186.849 83.8427 203.32 168.942
7722.22 -49.0742 120.824 258.767 214.202
7724.98 224.696 131.704 180.518 207.144
7727.74 219.49 172.787 182.148 181.302
7730.5 74.176 146.592 181.238 165.671
7733.26 146.11 147.742 133.626 168.992
7736.01 222.94 165.314 192.113 163.74
7738.77 126.892 138.709 165.48 182.171
7741.53 66.295 145.105 188.921 172.694
7744.29 242.128 188.319 163.681 179.394
7747.04 256.536 250.998 185.579 152.201
7749.8 254.332 231.34 107.343 153.454
7752.56 183.152 97.166 167.44 157.772
7755.31 -145.986 71.5747 198.531 187.466
7758.07 177.558 10.5673 196.427 181.152
7760.83 0.129568 118.545 148.496 176.137
7763.58 177.949 79.2942 183.487 174.214
7766.34 59.8043 145.259 190.658 191.902
7769.09 198.025 157.25 201.562 194.433
7771.85 213.921 207.431 191.078 200.425
7774.6 210.346 220.076 208.636 197.658
7777.36 235.961 162.737 193.259 204.051
7780.11 41.9024 105.785 210.258 203.852
7782.86 39.4922 90.0566 208.038 206.336
7785.62 188.775 148.384 200.712 181.589
7788.37 216.883 204.136 136.017 144.043
7791.13 206.75 224.094 95.4008 128.959
7793.88 248.647 134.441 155.46 141.118
7796.63 -52.0746 118.542 172.493 161.064
7799.38 159.053 49.1505 155.24 169.92
7802.14 40.4732 126.807 182.027 159.462
7804.89 180.896 83.1916 141.12 158.77
7807.64 28.2052 136.481 153.163 160.196
7810.39 200.341 127.962 186.304 150.726
7813.14 155.339 221.147 112.71 161.711
7815.9 307.762 250.643 186.118 154.188
7818.65 288.83 176.862 163.734 190.485
7821.4 -66.0068 38.2634 221.603 191.496
7824.15 -108.032 4.76178 189.151 188.173
7826.9 188.325 88.6394 153.764 160.531
7829.65 185.626 167.848 138.676 172.036
7832.4 129.593 180.217 223.666 183.577
7835.15 225.433 202.084 188.387 199.242
7837.9 251.225 187.035 185.674 190.278
7840.65 84.4465 173.063 196.773 197.56
7843.39 183.517 141.011 210.234 189.794
7846.14 155.07 185.684 162.375 172.195
7848.89 218.464 38.0265 143.976 102.902
7851.64 -259.454 53.888 2.35461 108.804
7854.39 202.655 -112.586 180.083 79.5552
7857.14 -280.959 -42.5983 56.2283 148.558
7859.88 -49.4907 -61.1211 209.364 146.028
7862.63 147.086 94.0293 172.492 181.684
7865.38 184.492 142.169 163.198 136.432
7868.12 94.927 126.963 73.6064 91.8844
7870.87 101.468 134.506 38.8493 113.142
7873.62 207.123 164.167 226.969 122.981
7876.36 183.911 126.548 103.124 158.398
7879.11 -11.3889 131.552 145.102 140.06
7881.86 222.133 70.074 171.954 172.362
7884.6 -0.521908 115.312 200.03 174.052
7887.35 124.325 18.2861 150.173 170.186
7890.09 -68.9451 73.6054 160.355 157.628
7892.84 165.436 62.1308 162.357 167.259
7895.58 89.9014 149.616 179.065 171.622
7898.32 193.509 152.409 173.444 176.017
7901.07 173.817 187.503 175.544 180.138
7903.81 195.184 200.556 191.427 175.163
7906.55 232.665 110.256 158.518 135.235
7909.3 -97.0812 -57.4452 55.7606 119.199
7912.04 -307.92 -103.459 143.32 90.2869
7914.78 94.6251 1.47919 71.7805 144.784
7917.53 217.732 137.458 219.252 118.93
7920.27 100.017 142.979 65.7559 126.19
7923.01 111.188 67.616 93.5629 115.667
7925.75 -8.35675 18.4777 187.684 134.766
7928.49 -47.3978 45.6033 123.053 160.176
7931.24 192.564 64.4603 169.793 146.732
7933.98 48.2143 123.442 147.351 161.197
7936.72 129.548 119.379 166.447 151.137
7939.46 180.374 146.28 139.613 152.974
7942.2 128.918 153.643 152.863 124.899
7944.94 151.635 153.473 82.2219 114.557
7947.68 179.867 167.794 108.586 112.028
7950.42 171.88 173.766 145.275 138.236
7953.16 169.55 175.666 160.848 158.137
7955.9 185.568 176.65 168.288 141.395
7958.63 174.832 178.669 95.0484 136.307
7961.37 175.607 77.675 145.585 144.714
7964.11 -117.414 66.1891 193.507 155.426
7966.85 140.374 39.5936 127.186 146.682
7969.59 95.8209 122.867 119.353 125.814
7972.33 132.407 138.276 130.905 117.55
7975.06 186.6 151.884 102.393 120.698
7977.8 136.643 169.455 128.796 131.774
7980.54 185.122 150.668 164.133 148.867
7983.27 130.239 145.685 153.672 153.315
7986.01 121.696 153.461 142.14 133.36
7988.75 208.449 177.016 104.267 108.747
7991.48 200.903 56.3312 79.8327 102.15
7994.22 -240.358 41.9136 122.351 121.303
7996.95 165.196 33.4057 161.726 150.228
7999.69 175.379 164.541 166.606 146.058
8002.42 153.046 157.952 109.842 128.644
8005.16 145.432 177.882 109.483 139.017
8007.89 235.169 153.959 197.725 161.042
8010.63 81.2766 168.002 175.918 172.435
8013.36 187.559 137.095 143.663 142.655
8016.09 142.449 162.544 108.383 113.736
8018.83 157.625 148.611 89.1634 102.179
8021.56 145.758 156.569 108.991 87.5254
8024.29 166.323 67.0441 64.4221 120.475
8027.03 -110.949 71.2664 188.013 139.547
8029.76 158.425 69.3887 166.205 167.832
8032.49 160.69 168.977 149.277 170.299
8035.22 187.816 183.86 195.413 170.177
8037.96 203.075 182.748 165.84 162.808
8040.69 157.354 174.214 127.17 146.938
8043.42 162.213 168.338 147.805 142.204
8046.15 185.447 173.485 151.638 131.906
8048.88 172.795 146.087 96.2735 132.518
8051.61 80.0179 126.405 149.643 119.535
8054.34 126.402 119.534 112.688 120.23
8057.07 152.183 155.492 98.3585 114.963
8059.8 187.89 173.277 133.844 118.884
8062.53 179.758 182.4 124.45 133.843
8065.26 179.553 184.149 143.235 149.387
8067.99 193.137 165.927 180.474 144.451
8070.72 125.092 155.328 109.643 148.657
8073.44 147.755 151.662 155.854 136.435
8076.17 182.138 166.046 143.809 144.457
8078.9 168.245 179.355 133.709 146.455
8081.63 187.683 176.926 161.846 139.162
8084.36 174.85 177.88 121.931 142.715
8087.08 171.108 170.343 144.369 133.711
8089.81 165.071 169.583 134.833 145.268
8092.54 172.57 151.366 156.601 149.055
8095.26 116.459 136.313 155.731 132.767
8097.99 119.911 109.286 85.9706 117.894
8100.71 91.4896 123.051 111.981 113.663
8103.44 157.752 124.074 143.038 136.401
8106.17 122.981 147.231 154.182 146.005
8108.89 160.961 142.352 140.793 139.85
8111.62 143.114 160.742 124.575 142.14
8114.34 178.152 161.79 161.053 143.698
8117.06 164.104 167.037 145.466 137.25
8119.79 158.855 162.213 105.231 127.91
8122.51 163.681 141.638 133.035 116.951
8125.24 102.379 124.895 112.589 124.991
8127.96 108.624 121.683 129.35 124.337
8130.68 154.046 142.445 131.072 121.538
8133.4 164.667 167.693 104.192 125.106
8136.13 184.367 154.504 140.055 105.249
8138.85 114.478 133.363 71.5019 110.826
8141.57 101.243 131.44 120.921 109.381
8144.29 178.598 131.737 135.721 122.425
8147.01 115.371 152.124 110.633 135.904
8149.74 162.402 128.622 161.357 134.786
8152.46 108.094 133.999 132.368 135.918
8155.18 131.5 119.688 114.027 120.388
8157.9 119.469 125.194 114.768 109.195
8160.62 124.611 134.822 98.79 105.365
8163.34 160.386 132.543 102.536 93.3859
8166.06 112.633 131.373 78.8312 106.475
8168.78 121.099 130.525 138.058 106.443
8171.5 157.843 139.593 102.438 122.952
8174.22 139.836 145.851 128.361 112.828
8176.93 139.872 133.84 107.684 113.785
8179.65 121.813 123.144 105.31 105.068
8182.37 107.745 116.07 102.208 105.97
8185.09 118.651 134.837 110.392 106.098
8187.81 178.114 124.92 105.694 97.8415
8190.52 77.9962 121.147 77.4386 90.0867
8193.24 107.332 90.2482 87.1274 80.557
8195.96 85.4161 110.01 77.1051 100.254
8198.67 137.28 122.128 136.531 106.374
8201.39 143.688 147.212 105.485 120.608
8204.11 160.667 163.332 119.809 109.743
8206.82 185.641 170.715 103.935 126.01
8209.54 165.836 178.257 154.286 137.178
8212.25 183.294 171.494 153.313 143.219
8214.97 165.35 163.825 122.057 118.499
8217.68 142.832 144.504 80.1283 104.178
8220.4 125.33 133.261 110.347 104.835
8223.11 131.622 141.266 124.031 114.02
8225.82 166.847 144.155 107.681 104.269
8228.54 133.995 146.387 81.0962 104.865
8231.25 138.321 131.31 125.819 98.1636
8233.96 121.615 134.794 87.5754 107.894
8236.68 144.446 149.839 110.286 104.292
8239.39 183.457 158.462 115.013 114.451
8242.1 147.482 163.413 118.052 114.671
8244.81 159.299 141.637 110.948 102.288
8247.53 118.129 141.777 77.8623 103.116
8250.24 147.904 137.219 120.537 94.0659
8252.95 145.624 151.384 83.7981 107.155
8255.66 160.625 150.414 117.129 112.385
8258.37 144.994 139.398 136.227 114.763
8261.08 112.575 126.335 90.9319 104.714
8263.79 121.435 135.54 86.9849 107.074
8266.5 172.61 141.885 143.305 105.696
8269.21 131.609 150.474 86.7978 121.691
8271.92 147.203 140.125 134.969 110.864
8274.63 141.562 133.162 110.825 108.137
8277.34 110.72 130.392 78.6168 109.6
8280.05 138.895 137.608 139.358 114.342
8282.75 163.21 155.974 125.051 114.295
8285.46 165.818 148.758 78.4773 100.991
8288.17 117.246 141.459 99.4448 110.77
8290.88 141.312 141.156 154.389 101.398
8293.58 164.91 136.14 50.3616 104.827
8296.29 102.198 159.479 109.732 107.253
8299 211.328 154.896 161.666 127.881
8301.7 151.161 161.802 112.246 143.236
8304.41 122.918 128.788 155.795 115.258
8307.12 112.285 119.958 77.7348 90.077
8309.82 124.671 128.375 36.7016 65.7768
8312.53 148.17 136.757 82.8941 64.0814
8315.23 137.432 125.608 72.6484 78.5022
8317.94 91.223 129.319 79.9642 91.6632
8320.64 159.303 123.317 122.377 94.2201
8323.34 119.424 129.791 80.319 88.7152
8326.05 110.647 125.928 63.4496 84.7031
8328.75 147.712 134.023 110.341 90.1137
8331.45 143.709 128.532 96.5508 94.2041
8334.16 94.1754 126.363 75.7209 95.5389
8336.86 141.204 148.63 114.345 94.8098
8339.56 210.51 157.185 94.3634 113.792
8342.27 119.84 134.769 132.668 58.3204
8344.97 73.9555 81.3375 -52.0702 51.5639
8347.67 50.2169 86.656 74.094 35.0755
8350.37 135.796 106.932 83.2029 86.9718
8353.07 134.782 133.814 103.618 98.4539
8355.77 130.863 130.37 108.54 100.475
8358.47 125.465 124.5 89.2652 106.361
8361.17 117.172 117.118 121.276 98.3855
8363.87 108.717 132.404 84.6152 97.1841
8366.57 171.324 132.376 85.661 89.8508
8369.27 117.089 139.002 99.2762 93.6745
8371.97 128.595 125.428 96.0864 95.8075
8374.67 130.599 112.953 92.0601 87.9152
8377.37 79.6652 100.412 75.5993 88.3159
8380.07 90.9709 116.676 97.2883 94.235
8382.76 179.392 134.235 109.817 100.083
8385.46 132.341 152.745 93.1436 106.397
8388.16 146.504 131.329 116.23 92.3358
8390.86 115.141 133.267 67.6339 84.6675
8393.55 138.156 160.611 70.1385 71.1057
8396.25 228.536 196.728 75.5447 95.1671
8398.95 223.494 188.729 139.818 88.0535
8401.64 114.157 138.758 48.7979 97.3167
8404.34 78.6224 97.7934 103.334 82.3366
8407.03 100.601 133.319 94.8778 114.037
8409.73 220.735 167.686 143.9 147.305
8412.42 181.724 175.939 203.136 141.441
8415.12 125.359 160.307 77.2876 159.672
8417.81 173.836 139.041 198.592 134.251
8420.51 117.927 162.972 126.875 155.271
8423.2 197.153 138.403 140.346 126.213
8425.89 100.127 122.88 111.417 98.9314
8428.59 71.358 66.166 45.0314 54.3355
8431.28 27.0128 52.7828 6.55847 22.6645
8433.97 59.9775 46.3963 16.4038 25.8863
8436.67 52.1987 85.4431 54.6967 66.5041
8439.36 144.153 98.7173 128.412 86.1242
8442.05 99.8002 131.177 75.2641 123.021
8444.74 149.577 125.642 165.388 91.4414
8447.43 127.55 137.698 33.6721 107.273
8450.12 135.967 153.687 122.758 78.6924
8452.81 197.546 158.084 79.6467 96.6197
8455.5 140.739 152.125 87.4541 100.249
8458.19 118.092 129.014 133.646 80.2047
8460.88 128.212 143.19 19.5135 84.286
8463.57 183.265 164.788 99.6983 72.5441
8466.26 182.886 155.821 98.4207 85.5791
8468.95 101.311 124.836 58.6184 77.5759
8471.64 90.3095 111.618 75.6887 71.4202
8474.33 143.235 119.542 79.9536 72.3794
8477.02 125.082 128.185 61.4958 60.8857
8479.7 116.237 131.804 41.2076 69.7585
8482.39 154.093 142.553 106.572 92.6854
8485.08 157.329 134.157 130.277 92.9831
8487.77 91.0505 120.699 42.1006 87.886
8490.45 113.719 119.21 91.281 57.0945
8493.14 152.862 143.647 37.9019 73.5142
8495.83 164.359 145.905 91.3597 75.758
8498.51 120.494 141.443 98.0123 82.653
8501.2 139.476 121.11 58.5869 67.1246
8503.88 103.359 134.728 44.7748 60.9407
8506.57 161.349 121.977 79.4605 78.7521
8509.25 101.223 135.063 112.021 105.117
8511.94 142.619 120.503 123.87 113.479
8514.62 117.669 136.109 104.545 106.965
8517.3 148.041 137.629 92.4786 87.5287
8519.99 147.178 144.071 65.5626 76.1408
8522.67 136.995 138.861 70.381 69.3591
8525.35 132.41 137.403 72.1336 65.2017
8528.04 142.805 140.678 53.0904 73.0231
8530.72 146.819 148.702 93.8453 90.4916
8533.4 156.483 132.313 124.539 92.9488
8536.08 93.6378 124.247 60.462 94.5786
8538.76 122.621 119.258 98.7347 75.2581
8541.44 141.514 128.599 66.5775 82.7501
8544.12 121.662 134.67 82.9381 96.85
8546.81 140.834 125.447 141.034 92.8566
8549.49 113.845 118.275 54.5974 84.7013
8552.17 100.148 141.857 58.4723 80.794
8554.84 211.579 150.763 129.312 90.4433
8557.52 140.561 163.978 83.5453 101.413
8560.2 139.793 140.811 91.382 91.5683
8562.88 142.079 136.233 99.7775 98.826
8565.56 126.827 140.465 105.318 95.3732
8568.24 152.488 131.064 81.0237 82.6021
8570.92 113.878 143.072 61.4643 74.1615
8573.59 162.849 143.727 79.9963 70.366
8576.27 154.455 151.371 69.6372 85.6918
8578.95 136.809 146.617 107.442 99.4594
8581.62 148.587 148.662 121.299 113.386
8584.3 160.589 143.605 111.418 99.9384
8586.98 121.638 137.419 67.0976 98.5909
8589.65 130.031 132.434 117.257 87.385
8592.33 145.632 141.701 77.8007 85.7264
8595 149.439 132.19 62.1217 66.1414
8597.68 101.498 145.073 58.502 83.0333
8600.35 184.282 140.87 128.476 84.347
8603.03 136.829 146.682 66.063 100.352
8605.7 118.934 134.814 106.517 88.8971
8608.37 148.68 143.055 94.1112 91.9792
8611.05 161.55 145.37 75.3094 75.1809
8613.72 125.88 143.885 56.1221 76.6216
8616.39 144.225 139.736 98.4333 108.229
8619.07 149.102 142.93 170.133 131.132
8621.74 135.463 144.044 124.83 141.902
8624.41 147.567 135.318 130.742 106.661
8627.08 122.924 124.997 64.4103 83.3328
8629.75 104.499 130.533 54.8458 73.5658
8632.42 164.177 141.957 101.441 105.044
8635.09 157.196 152.615 158.844 112.951
8637.76 136.474 137.308 78.5664 96.2249
8640.43 118.254 139.9 51.2643 87.6904
8643.1 164.972 134.995 133.24 91.5988
8645.77 121.76 128.892 90.2917 97.161
8648.44 99.9439 98.1954 67.951 54.6287
8651.11 72.8826 102.072 5.64347 54.5049
8653.78 133.39 116.374 89.9204 62.5191
8656.45 142.85 131.543 91.9935 80.7761
8659.12 118.39 102.511 60.4143 49.7763
8661.78 46.2929 100.463 -3.07896 48.637
8664.45 136.708 89.123 88.5758 33.46
8667.12 84.3681 125.581 14.8831 36.3925
8669.78 155.666 130.209 5.71879 42.5485
8672.45 150.594 157.399 107.044 88.5333
8675.12 165.937 160.096 152.837 109.108
8677.78 163.758 153.208 67.4424 108.237
8680.45 129.928 123.134 104.431 81.3248
8683.11 75.7161 119.247 72.1009 73.3186
8685.78 152.098 120.406 43.4237 70.1276
8688.44 133.404 132.975 94.8582 67.8151
8691.11 113.423 140.803 65.1634 98.5285
8693.77 175.582 139.961 135.564 90.173
8696.43 130.878 157.394 69.7916 98.6739
8699.1 165.723 156.658 90.6663 89.8266
8701.76 173.373 163.615 109.022 100.558
8704.42 151.748 149.225 101.986 96.1616
8707.09 122.554 144.785 77.4769 98.3126
8709.75 160.051 147.091 115.475 90.2968
8712.41 158.669 166.156 77.9387 99.1182
8715.07 179.747 160.47 103.941 98.1093
8717.73 142.994 151.061 112.448 88.4992
8720.39 130.441 136.707 49.1085 77.779
8723.05 136.687 147.637 71.7805 79.9611
8725.71 175.782 147.384 118.994 77.8198
8728.37 129.683 171.623 42.6846 102.728
8731.03 209.403 152.951 146.505 87.272
8733.69 119.766 161.027 72.6264 98.9208
8736.35 153.911 137.215 77.6309 74.8304
8739.01 137.967 146.361 74.234 69.7951
8741.67 147.205 149.241 57.5204 77.0038
8744.33 162.551 150.953 99.257 88.5861
8746.98 143.103 138.362 108.981 101.491
8749.64 109.432 130.658 96.2339 117.941
8752.3 139.44 128.903 148.608 128.073
8754.95 137.838 167.791 139.377 133.032
8757.61 226.094 164.96 111.113 118.372
8760.27 130.949 159.996 104.626 121.662
8762.92 122.944 100.812 149.246 41.7805
8765.58 48.5443 102.958 -128.53 -2.02324
8768.23 137.385 91.4519 -26.7849 -34.1054
8770.89 88.426 99.7774 52.999 43.1281
8773.54 73.5209 75.6725 103.17 70.091
8776.2 65.0705 97.9595 54.1036 56.5227
8778.85 155.287 98.823 12.2942 -2.70017
8781.5 76.1113 115.624 -74.4983 -11.4655
8784.16 115.474 96.9502 27.8077 -12.6878
8786.81 99.2652 119.89 8.62721 24.0997
8789.46 144.929 114.571 35.8643 0.52965
8792.12 99.5182 128.257 -42.9025 -3.16245
8794.77 140.322 134.021 -2.4491 -1.17182
8797.42 162.223 143.651 41.8362 30.4651
8800.07 128.406 141.928 52.0082 62.1763
8802.72 135.156 118.948 92.6846 81.0468
8805.37 93.2807 116.76 98.4477 90.399
8808.02 121.843 128.565 80.0646 86.8361
8810.67 170.57 155.369 81.9959 84.5844
8813.32 173.692 171.414 91.6928 116.241
8815.97 169.98 139.715 175.035 185.768
8818.62 75.4713 141.633 290.577 277.743
8821.27 179.446 186.364 367.617 281.758
8823.92 304.175 247.574 187.081 185.532
8826.57 259.102 222.368 1.89878 3.80057
8829.21 103.827 145.733 -177.578 -106.997
8831.86 74.2711 86.4668 -145.313 -178.928
8834.51 81.3019 114.871 -213.894 -119.379
8837.16 189.039 112.894 1.06831 -69.6854
8839.8 68.3423 109.936 3.76917 15.6178
8842.45 72.4282 92.4276 42.016 39.7209
8845.09 136.512 134.215 73.3775 63.0618
8847.74 193.706 150.287 73.7919 29.9677
8850.39 120.644 155.887 -57.2664 41.3314
8853.03 153.311 131.442 107.469 28.6256
8855.67 120.371 128.234 35.6744 63.2848
8858.32 111.021 134.913 46.7113 78.1164
8860.96 173.347 133.387 151.964 92.2882
8863.61 115.792 153.277 78.1898 67.1193
8866.25 170.692 147.484 -28.7954 11.2251
8868.89 155.968 158.666 -15.719 -17.4565
8871.54 149.339 148.637 -7.85517 13.3441
8874.18 140.604 139.509 63.6065 77.1248
8876.82 128.584 136.516 175.623 154.449
8879.46 140.361 127.712 224.117 176.622
8882.1 114.192 89.7034 130.127 62.9185
8884.74 14.5576 91.1681 -165.489 -101.68
8887.38 144.755 62.6681 -269.679 -190.885
8890.02 28.6914 99.8335 -137.487 -125.103
8892.66 126.054 91.926 31.856 3.47053
8895.3 121.033 134.252 116.043 65.7963
8897.94 155.669 168.392 49.4902 77.9646
8900.58 228.473 196.3 68.3607 47.5095
8903.22 204.759 211.409 24.6776 41.7119
8905.86 200.996 169.978 32.0975 58.9823
8908.5 104.18 135.284 120.172 97.0919
8911.14 100.676 106.544 139.006 163.989
8913.77 114.777 140.557 232.788 128.043
8916.41 206.217 191.915 12.3339 8.52159
8919.05 254.752 221.813 -219.557 -106.731
8921.68 204.469 179.59 -112.969 -146.77
8924.32 79.5481 112.811 -107.784 -47.2713
8926.96 54.4152 81.1957 78.9393 20.0215
8929.59 109.624 107.661 88.9091 74.6891
8932.23 158.945 129.761 56.2188 70.5527
8934.86 120.715 139.275 66.5301 61.2812
8937.5 138.164 141.572 61.0948 57.7516
8940.13 165.836 146.999 45.6298 21.5437
8942.76 136.998 152.446 -42.0936 7.53031
8945.4 154.505 133.967 19.0547 -5.55515
8948.03 110.398 129.345 6.37345 59.721
8950.66 123.131 125.887 153.735 79.4842
8953.29 144.133 130.166 78.3441 58.6493
8955.93 123.235 57.1434 -56.1311 -58.476
8958.56 -95.938 14.305 -197.641 -74.404
8961.19 15.6183 -3.20702 30.5601 -19.3974
8963.82 70.6986 51.374 108.889 82.7293
8966.45 67.8052 83.1015 108.739 114.175
8969.08 110.801 89.7711 124.897 100.027
8971.71 90.7074 106.626 66.4444 87.8606
8974.34 118.37 99.5211 72.2404 61.9981
8976.97 89.4859 106.322 47.3096 50.4478
8979.6 111.109 114.846 31.7934 31.4738
8982.23 143.943 99.4534 15.3184 35.966
8984.86 43.3078 90.8401 60.7861 43.641
8987.49 85.2693 61.2141 54.8185 40.344
8990.11 55.0651 83.6513 5.42761 20.3856
8992.74 110.619 99.4974 0.910713 19.9191
8995.37 132.808 148.131 53.4191 -6.09871
8997.99 200.966 132.583 -72.6259 -10.1152
9000.62 63.974 114.024 -11.1387 -50.2424
9003.25 77.1319 75.669 -66.9626 11.8019
9005.87 85.901 76.4926 113.507 50.4162
9008.5 66.4449 74.5909 104.704 106.902
9011.12 71.4269 85.0895 102.494 93.8722
9013.75 117.397 93.5335 74.4183 81.818
9016.37 91.7769 106.752 68.5415 65.0929
9019 111.082 120.408 52.319 48.5227
9021.62 158.366 136.636 24.7077 38.3041
9024.24 140.461 124.151 37.8856 39.7821
9026.87 73.6267 100.877 56.753 44.6922
9029.49 88.5431 91.5262 39.4381 42.6278
9032.11 112.409 111.787 31.6924 56.9798
9034.73 134.41 107.267 99.8089 88.0355
9037.35 74.9816 119.345 132.605 81.0837
9039.98 148.645 118.72 10.8371 68.7738
9042.6 132.533 122.508 62.8789 12.1951
9045.22 86.3454 116.703 -37.1309 46.9175
9047.84 131.232 81.3162 115.005 51.6346
9050.46 26.3716 81.6112 77.0301 83.0103
9053.08 87.2304 73.1297 56.9962 54.0531
9055.7 105.787 94.3945 28.1331 46.6296
9058.31 90.1661 97.6112 54.7596 48.3045
9060.93 96.8804 108.86 62.0207 64.7936
9063.55 139.533 125.663 77.6005 63.6154
9066.17 140.574 129.202 51.225 59.0935
9068.79 107.497 110.612 48.4551 47.608
9071.4 83.7648 87.7955 43.1439 36.3247
9074.02 72.1244 76.4533 17.375 27.0366
9076.64 73.4705 48.5317 20.5911 12.6553
