wavelength spectrum_sum 3smoothed_sum spectrum_optimal 3smoothed_optimal
3511.24 19.2171 14.952 19.9714 12.0615
3514.16 25.639 26.0105 16.213 23.8127
3517.08 33.1753 32.1932 35.2538 22.9542
3520 37.7653 35.2269 17.3957 22.3269
3522.92 34.7402 35.5528 14.3311 23.3313
3525.85 34.1527 34.3659 38.2672 25.3681
3528.77 34.2048 34.5346 23.5059 31.8676
3531.69 35.2462 32.5892 33.8297 27.8836
3534.61 28.3165 35.218 26.3154 29.8379
3537.53 42.0913 31.6491 29.3688 30.5133
3540.45 24.5395 39.2521 35.8556 40.0191
3543.37 51.1254 36.6469 54.833 44.2469
3546.29 34.2758 41.9608 42.0522 45.9514
3549.21 40.4812 35.7234 40.969 40.192
3552.13 32.4132 38.9377 37.5549 44.042
3555.05 43.9187 37.8393 53.6023 43.4519
3557.98 37.1859 35.0415 39.1985 41.8403
3560.9 24.02 28.7332 32.72 36.9948
3563.82 24.9938 36.1399 39.066 42.3768
3566.74 59.4059 40.2442 55.3445 45.7693
3569.66 36.333 39.7387 42.8974 39.6927
3572.58 23.4771 29.1041 20.8363 34.6179
3575.5 27.5022 25.8997 40.1199 29.1471
3578.42 26.7198 31.9817 26.4852 28.0488
3581.34 41.7231 31.8085 17.5414 23.3765
3584.26 26.9824 30.1792 26.1028 23.6859
3587.18 21.832 32.4793 27.4136 30.9752
3590.1 48.6234 41.0123 39.4091 44.5499
3593.02 52.5814 42.6081 66.8269 47.4817
3595.94 26.6196 38.9124 36.2092 49.5712
3598.86 37.5361 36.098 45.6775 44.1188
3601.78 44.1384 38.063 50.4696 45.0088
3604.71 32.5146 46.4338 38.8794 50.8548
3607.63 62.6485 45.3781 63.2155 47.1432
3610.55 40.9711 49.1643 39.3346 52.5898
3613.47 43.8732 41.9242 55.2194 42.4711
3616.39 40.9284 51.599 32.8593 56.3511
3619.31 69.9954 60.8405 80.9746 64.6183
3622.23 71.5977 65.6837 80.0209 71.482
3625.15 55.4578 61.4319 53.4505 68.4199
3628.07 57.2401 61.5805 71.7882 63.0902
3630.99 72.0437 60.3285 64.032 65.7166
3633.91 51.7018 62.1072 61.3297 66.4615
3636.83 62.576 64.9353 74.0227 73.62
3639.75 80.5281 74.4592 85.5077 77.4834
3642.67 80.2736 69.3745 72.9199 74.8024
3645.59 47.3218 72.7591 65.9797 74.2729
3648.51 90.6819 73.1445 83.919 78.3559
3651.43 81.4299 90.4873 85.169 90.6891
3654.35 99.3502 90.1318 102.979 95.5019
3657.27 89.6153 89.9923 98.3575 95.5299
3660.19 81.0114 78.7811 85.2531 82.8676
3663.11 65.7167 80.031 64.9922 82.5445
3666.03 93.3647 83.702 97.3883 88.1694
3668.95 92.0245 95.4149 102.128 104.211
3671.87 100.855 88.8469 113.116 94.4871
3674.79 73.6609 84.0616 68.218 86.8392
3677.71 77.6685 72.4867 79.1841 72.9563
3680.63 66.1306 75.319 71.4668 79.9719
3683.55 82.1578 73.7417 89.2649 77.876
3686.47 72.9365 85.5199 72.8964 84.5684
3689.39 101.465 90.2833 91.5438 81.4374
3692.31 96.4479 103.212 79.8719 92.8066
3695.23 111.723 95.668 107.004 99.7161
3698.15 78.833 90.6731 112.272 106.688
3701.07 81.4632 79.615 100.788 100.484
3703.99 78.5487 73.3379 88.3915 87.2716
3706.91 60.0017 73.173 72.6355 83.2812
3709.82 80.9685 80.1364 88.8164 91.7474
3712.74 99.4388 86.1481 113.79 95.6369
3715.66 78.037 88.2921 84.3038 96.9506
3718.58 87.4005 83.1691 92.7578 95.8291
3721.5 84.0698 82.894 110.426 102.285
3724.42 77.2115 71.1445 103.671 97.3472
3727.34 52.1521 62.0744 77.9445 89.9955
3730.26 56.8596 52.3576 88.3708 80.0552
3733.18 48.061 59.5607 73.8502 86.2559
3736.1 73.7614 71.4275 96.5468 101.105
3739.02 92.4601 75.6816 132.917 109.292
3741.94 60.8233 72.1686 98.411 103.759
3744.86 63.2223 63.5037 79.9497 88.9991
3747.78 66.4656 65.1089 88.6365 85.2288
3750.7 65.6388 62.6051 87.1001 83.0248
3753.61 55.7109 58.4058 73.3378 80.18
3756.53 53.8678 60.6801 80.1021 87.7184
3759.45 72.4617 65.1592 109.715 93.2181
3762.37 69.148 73.6619 89.8367 102.733
3765.29 79.3761 85.5557 108.646 112.515
3768.21 108.143 93.7372 139.062 127.784
3771.13 93.6926 105.529 135.644 138.48
3774.05 114.751 105.27 140.735 144.562
3776.97 107.367 111.964 157.309 147.69
3779.89 113.774 111.076 145.026 152.88
3782.8 112.087 98.386 156.305 143.407
3785.72 69.2965 97.1536 128.889 144.7
3788.64 110.077 94.3041 148.905 139.194
3791.56 103.539 108.77 139.788 141.675
3794.48 112.695 109.723 136.332 136.839
3797.4 112.937 110.764 134.398 134.042
3800.32 106.659 105.245 131.395 137.539
3803.23 96.1391 89.2881 146.824 125.854
3806.15 65.0657 87.099 99.3427 130.835
3809.07 100.092 80.6361 146.337 110.189
3811.99 76.7505 97.3982 84.8873 137.278
3814.91 115.352 85.4509 180.61 124.145
3817.83 64.2499 89.2623 106.938 142.514
3820.75 88.1849 71.8433 139.994 117.088
3823.66 63.095 82.7934 104.332 124.269
3826.58 97.1003 75.1472 128.482 104.075
3829.5 65.2463 82.4492 79.4109 105.457
3832.42 85.0011 76.7438 108.479 90.4504
3835.34 79.9839 82.5421 83.4618 97.3626
3838.26 82.6413 79.7718 100.147 89.628
3841.17 76.6902 74.5109 85.2749 89.1269
3844.09 64.2012 73.5544 81.9585 94.6309
3847.01 79.7717 86.2453 116.659 110.99
3849.93 114.763 90.5744 134.353 115.594
3852.85 77.1883 89.0276 95.7704 108.19
3855.76 75.1313 72.2677 94.4464 94.5208
3858.68 64.4834 77.8109 93.3455 108.79
3861.6 93.8179 81.7522 138.577 107.818
3864.52 86.9553 91.2342 91.5327 114.406
3867.44 92.9295 74.9177 113.107 95.5472
3870.35 44.8683 74.9802 82.0015 112.923
3873.27 87.1427 75.9625 143.661 127.814
3876.19 95.8765 87.3882 157.78 138.046
3879.11 79.1454 88.3397 112.699 133.889
3882.03 89.9972 89.2436 131.189 126.588
3884.94 98.588 97.4509 135.877 133.837
3887.86 103.768 116.793 134.444 145.903
3890.78 148.022 130.385 167.388 160.226
3893.7 139.365 146.738 178.845 176.23
3896.61 152.828 151.363 182.458 185.619
3899.53 161.895 153.569 195.553 185.42
3902.45 145.984 165.134 178.249 203.484
3905.37 187.523 165.73 236.648 216.513
3908.28 163.683 175.647 234.642 229.754
3911.2 175.736 168.943 217.971 227.717
3914.12 167.41 158.079 230.538 217.354
3917.04 131.091 144.708 203.552 224.352
3919.95 135.622 130.264 238.967 214.302
3922.87 124.08 118.464 200.387 201.179
3925.79 95.6896 110.731 164.184 172.771
3928.7 112.424 101.64 153.742 152.444
3931.62 96.8057 95.5158 139.406 127.08
3934.54 77.3172 88.1051 88.0909 106.953
3937.46 90.1926 101.239 93.3612 121.478
3940.37 136.208 117.804 182.983 155.827
3943.29 127.011 136.867 191.137 196.963
3946.21 147.382 144.278 216.769 211.276
3949.12 158.442 158.526 225.923 235.194
3952.04 169.753 160.267 262.891 241.59
3954.96 152.605 160.275 235.958 239.734
3957.87 158.467 152.148 220.355 229.483
3960.79 145.372 131.581 232.137 197.288
3963.71 90.904 108.807 139.371 159.918
3966.62 90.1436 105.224 108.247 134.317
3969.54 134.625 126.944 155.334 151.107
3972.46 156.063 159.046 189.741 195.785
3975.37 186.451 170.644 242.279 215.47
3978.29 169.417 184.375 214.389 235.044
3981.21 197.257 186.086 248.464 241.076
3984.12 191.583 207.371 260.374 271.541
3987.04 233.272 219.376 305.785 296.408
3989.96 233.272 245.015 323.064 334.674
3992.87 268.5 241.246 375.173 339.152
3995.79 221.967 250.895 319.218 338.704
3998.71 262.218 252.305 321.72 328.543
4001.62 272.729 260.469 344.692 336.87
4004.54 246.46 267.31 344.199 357.03
4007.46 282.74 273.587 382.198 367.384
4010.37 291.561 278.028 375.755 368.241
4013.29 259.784 264.491 346.771 358.304
4016.2 242.127 262.383 352.386 360.133
4019.12 285.239 271.642 381.242 378.914
4022.04 287.561 288.731 403.113 387.83
4024.95 293.392 289.245 379.134 391.649
4027.87 286.782 285.301 392.7 384.142
4030.78 275.728 278.812 380.59 392.344
4033.7 273.926 278.861 403.742 401.779
4036.61 286.931 281.41 421.005 407.098
4039.53 283.374 297.333 396.546 426.591
4042.45 321.694 299.037 462.223 423.806
4045.36 292.044 309.899 412.648 438.457
4048.28 315.959 291.247 440.499 407.562
4051.19 265.74 291.945 369.54 410.119
4054.11 294.136 269.031 420.318 377.601
4057.02 247.217 260.171 342.944 364.499
4059.94 239.159 265.515 330.234 362.337
4062.86 310.17 270.241 413.831 366.91
4065.77 261.395 262.837 356.663 362.762
4068.69 216.945 259.963 317.79 365.138
4071.6 301.549 285.824 420.96 403.401
4074.52 338.976 322.114 471.452 449.5
4077.43 325.817 325.623 456.089 450.747
4080.35 312.076 334.472 424.7 455.977
4083.26 365.524 332.721 487.142 462.183
4086.18 320.563 331.603 474.706 472.363
4089.09 308.72 322.176 455.241 473.832
4092.01 337.243 314.052 491.547 452.737
4094.92 296.193 321.966 411.422 457.163
4097.84 332.461 317.631 468.518 451.986
4100.75 324.238 319.946 476.018 442.372
4103.67 303.138 322.11 382.581 443.786
4106.58 338.954 328.105 472.758 435.464
4109.5 342.224 356.04 451.052 478.882
4112.41 386.941 353.11 512.836 476.149
4115.33 330.165 353.312 464.56 482.252
4118.24 342.831 333.16 469.36 457.123
4121.16 326.484 344.536 437.449 467.135
4124.07 364.291 358.929 494.597 487.752
4126.99 386.012 360.27 531.21 507.112
4129.9 330.508 363.127 495.529 513.311
4132.81 372.861 360.524 513.195 508.606
4135.73 378.203 370.227 517.094 506.624
4138.64 359.618 360.524 489.583 492.634
4141.56 343.752 362.101 471.225 493.058
4144.47 382.932 357.596 518.366 494.621
4147.39 346.104 346.649 494.271 485.976
4150.3 310.911 330.428 445.289 477.382
4153.21 334.269 319.712 492.585 463.531
4156.13 313.954 347.73 452.718 501.877
4159.04 394.966 359.649 560.329 520.316
4161.96 370.025 365.653 547.901 527.271
4164.87 331.968 349.471 473.583 515.636
4167.78 346.42 346.718 525.426 505.77
4170.7 361.766 349.027 518.302 500.185
4173.61 338.894 355.601 456.827 495.437
4176.53 366.141 365.59 511.184 506.364
4179.44 391.736 372.747 551.081 523.104
4182.35 360.363 380.68 507.047 530.382
4185.27 389.942 384.09 533.017 530.688
4188.18 401.965 372.8 552 531.787
4191.09 326.493 355.131 510.345 524.463
4194.01 336.935 333.998 511.044 502.278
4196.92 338.566 339.163 485.446 492.666
4199.83 341.988 365.056 481.507 518.213
4202.75 414.613 375.239 587.686 529.894
4205.66 369.115 390.114 520.49 554.072
4208.57 386.615 384.45 554.04 559.675
4211.49 397.619 392.702 604.495 572.168
4214.4 393.871 411.436 557.97 602.991
4217.31 442.817 422.483 646.508 605.728
4220.23 430.762 418.653 612.707 605.678
4223.14 382.38 407.384 557.819 573.111
4226.05 409.011 403.425 548.807 563.882
4228.97 418.885 409.743 585.021 568.647
4231.88 401.335 417.193 572.113 585.867
4234.79 431.358 424.561 600.466 593.482
4237.71 440.989 435.765 607.867 598.006
4240.62 434.946 442.884 585.685 605.119
4243.53 452.717 414.429 621.804 581.467
4246.44 355.623 421.774 536.913 595.767
4249.36 456.981 400.136 628.584 582.522
4252.27 387.805 407.649 582.07 585.468
4255.18 378.161 410.438 545.75 587.27
4258.09 465.348 422.849 633.99 603.144
4261.01 425.037 446.094 629.692 637.616
4263.92 447.897 426.895 649.166 624.278
4266.83 407.75 427.139 593.977 625.497
4269.74 425.771 426.15 633.348 618.102
4272.66 444.929 443.962 626.98 647.234
4275.57 461.187 438.872 681.375 633.565
4278.48 410.501 431.491 592.341 629.961
4281.39 422.784 417.165 616.168 595.232
4284.3 418.209 407.97 577.185 586.588
4287.22 382.918 405.145 566.41 581.645
4290.13 414.307 404.96 601.339 575.862
4293.04 417.655 397.445 559.837 566.067
4295.95 360.372 383.311 537.026 545.628
4298.86 371.905 358.565 540.022 526.733
4301.78 343.418 350.438 503.15 506.506
4304.69 335.99 327.212 476.345 476.241
4307.6 302.229 343.575 449.227 483.548
4310.51 392.507 383.136 525.071 538.559
4313.42 454.673 434.338 641.38 608.626
4316.33 455.834 449.166 659.427 638.798
4319.25 436.991 439.499 615.589 621.221
4322.16 425.67 454.459 588.647 630.255
4325.07 500.716 478.353 686.53 669.176
4327.98 508.674 534.57 732.352 758.302
4330.89 594.321 540.114 856.024 785.568
4333.8 517.346 518.801 768.329 763.343
4336.71 444.735 478.606 665.675 697.413
4339.62 473.737 477.685 658.236 683.541
4342.54 514.583 513.967 726.714 711.373
4345.45 553.581 540.755 749.169 747.973
4348.36 554.102 550.954 768.035 755.679
4351.27 545.181 532.819 749.831 749.244
4354.18 499.175 526.073 729.864 749.471
4357.09 533.864 521.139 768.716 746.193
4360 530.378 532.791 739.998 771.007
4362.91 534.131 522.514 804.307 758.382
4365.82 503.034 533.811 730.842 780.525
4368.73 564.268 526.772 806.425 762.802
4371.64 513.012 543.996 751.14 784.991
4374.55 554.706 545.857 797.409 793.596
4377.46 569.852 533.847 832.239 769.663
4380.38 476.984 521.908 679.341 749.501
4383.29 518.889 496.781 736.924 718.963
4386.2 494.471 523.395 740.624 757.808
4389.11 556.826 533.59 795.876 767.525
4392.02 549.472 529.575 766.075 758.058
4394.93 482.428 513.353 712.224 738.273
4397.84 508.158 509.321 736.521 732.897
4400.75 537.376 528.572 749.946 749.827
4403.66 540.181 532.43 763.014 759.866
4406.57 519.731 552.271 766.637 784.224
4409.48 596.9 563.582 823.023 794.147
4412.39 574.113 596.225 792.781 832.699
4415.3 617.662 607.866 882.294 858.092
4418.21 631.822 618.806 899.199 879.962
4421.12 606.933 591.568 858.392 844.369
4424.02 535.949 580.457 775.515 843.121
4426.93 598.491 567.874 895.455 839.699
4429.84 569.183 589.308 848.127 869.12
4432.75 600.25 597.453 863.778 883.558
4435.66 622.927 608.329 938.768 887.457
4438.57 601.81 610.132 859.826 899.727
4441.48 605.659 617.099 900.588 901.522
4444.39 643.829 634.626 944.152 938.065
4447.3 654.391 632.132 969.454 935.534
4450.21 598.175 623.695 892.997 925.306
4453.12 618.518 608.821 913.466 907.833
4456.03 609.771 604.044 917.036 894.178
4458.94 583.844 607.607 852.031 890.11
4461.84 629.207 617.059 901.263 903.348
4464.75 638.126 644.864 956.751 937.601
4467.66 667.259 637.683 954.788 938.093
4470.57 607.665 656.115 902.739 948.591
4473.48 693.421 642.929 988.246 947.659
4476.39 627.701 663.589 951.991 968.181
4479.3 669.645 682.494 964.304 988.026
4482.21 750.136 695.616 1047.78 1006.62
4485.11 667.068 705.278 1007.77 1029.38
4488.02 698.631 671.144 1032.58 1002.08
4490.93 647.732 670.037 965.888 995.723
4493.84 663.747 688.185 988.704 1021.83
4496.75 753.076 704.324 1110.9 1046.39
4499.66 696.15 727.627 1039.56 1071.45
4502.56 733.656 717.805 1063.9 1067.3
4505.47 723.608 729.383 1098.45 1074.11
4508.38 730.884 733.766 1059.96 1088.46
4511.29 746.806 743.43 1106.95 1093.9
4514.2 752.6 753.237 1114.77 1121.43
4517.1 760.305 745.608 1142.56 1121.46
4520.01 723.918 737.832 1107.06 1103.44
4522.92 729.273 708.513 1060.7 1060.17
4525.83 672.35 710.038 1012.76 1045.29
4528.73 728.492 692.918 1062.41 1034.8
4531.64 677.911 702.244 1029.22 1054.84
4534.55 700.328 707.355 1072.9 1060.69
4537.46 743.825 706.313 1079.95 1052.08
4540.36 674.786 720.089 1003.39 1062.08
4543.27 741.656 706.955 1102.89 1052.54
4546.18 704.422 746.242 1051.34 1098.59
4549.09 792.647 761.686 1141.54 1111.86
4551.99 787.988 794.734 1142.68 1150.41
4554.9 803.566 781.177 1167.01 1138.52
4557.81 751.976 785.444 1105.88 1153.22
4560.71 800.789 768.938 1186.76 1142.89
4563.62 754.048 794.194 1136.05 1182.19
4566.53 827.745 790.31 1223.77 1180.23
4569.43 789.137 792.597 1180.86 1194.81
4572.34 760.909 773.15 1179.82 1173.79
4575.25 769.403 750.157 1160.69 1138.56
4578.15 720.158 751.516 1075.17 1132.16
4581.06 764.986 739.486 1160.62 1119.79
4583.97 733.314 748.234 1123.59 1141.49
4586.87 746.402 766.263 1140.27 1163.12
4589.78 819.074 768.958 1225.49 1162.95
4592.69 741.399 761.461 1123.09 1158.86
4595.59 723.911 752.788 1127.99 1152.34
4598.5 793.055 755.344 1205.93 1154.26
4601.4 749.066 786.479 1128.86 1180.56
4604.31 817.316 779.116 1206.88 1173.13
4607.22 770.965 801.792 1183.66 1202.75
4610.12 817.096 797.124 1217.72 1203.8
4613.03 803.312 807.627 1210.01 1210.22
4615.93 802.473 802.353 1202.94 1206.46
4618.84 801.274 814.273 1206.43 1214.06
4621.75 839.072 830.817 1232.82 1245.13
4624.65 852.105 846.939 1296.15 1279.95
4627.56 849.639 824.378 1310.88 1258.99
4630.46 771.389 830.99 1169.93 1256.7
4633.37 871.943 812.163 1289.28 1216.33
4636.27 793.158 825.078 1189.78 1241.3
4639.18 810.134 816.619 1244.85 1241.13
4642.08 846.566 824.337 1288.77 1256.49
4644.99 816.311 819.641 1235.84 1247.8
4647.89 796.046 804.581 1218.8 1223.51
4650.8 801.387 809.007 1215.89 1234.89
4653.7 829.587 820.076 1269.97 1248.27
4656.61 829.255 818.243 1258.95 1247.78
4659.51 795.887 782.503 1214.41 1199.82
4662.42 722.366 767.921 1126.1 1181.09
4665.32 785.509 752.311 1202.78 1152
4668.23 749.059 765.02 1127.12 1170.29
4671.13 760.493 773.031 1180.97 1176.57
4674.04 809.54 785.567 1221.63 1200.46
4676.94 786.668 816.191 1198.79 1232.86
4679.85 852.366 807.396 1278.16 1218.75
4682.75 783.154 815.932 1179.31 1233.2
4685.65 812.276 800.028 1242.12 1212.25
4688.56 804.654 803.152 1215.3 1216.8
4691.46 792.527 814.435 1192.97 1221.99
4694.37 846.123 772.438 1257.71 1179.94
4697.27 678.664 789.248 1089.13 1219.08
4700.17 842.957 760.603 1310.41 1193.03
4703.08 760.189 812.441 1179.54 1253.53
4705.98 834.178 791.778 1270.64 1208.62
4708.89 780.969 802.39 1175.68 1216.54
4711.79 792.023 776.211 1203.31 1175.41
4714.69 755.643 816.957 1147.25 1244.7
4717.6 903.205 863.281 1383.54 1299.09
4720.5 930.996 902.288 1366.47 1361.49
4723.4 872.663 879.515 1334.48 1327.23
4726.31 834.887 835.889 1280.73 1280.73
4729.21 800.118 841.59 1226.97 1281.33
4732.11 889.766 862.145 1336.31 1307.67
4735.02 896.55 876.035 1359.73 1332.57
4737.92 841.788 872.378 1301.69 1328.57
4740.82 878.795 882.106 1324.31 1336.12
4743.73 925.733 900.465 1382.35 1357.93
4746.63 896.866 901.025 1367.13 1362.14
4749.53 880.477 872.085 1336.93 1326.8
4752.43 838.911 850.941 1276.35 1297.3
4755.34 833.434 852.166 1278.61 1301.72
4758.24 884.153 868.772 1350.2 1330.87
4761.14 888.73 877.101 1363.78 1342.86
4764.04 858.42 866.823 1314.58 1330.85
4766.95 853.319 836.546 1314.18 1289.11
4769.85 797.897 867.464 1238.56 1321.72
4772.75 951.176 887.41 1412.41 1360.72
4775.65 913.158 934.399 1431.17 1436.26
4778.56 938.862 916.253 1465.2 1426.9
4781.46 896.738 907.535 1384.34 1404.13
4784.36 887.004 900.874 1362.84 1390.64
4787.26 918.879 919.48 1424.75 1404.68
4790.16 952.556 944.131 1426.45 1428.62
4793.07 960.959 961.032 1434.66 1429.15
4795.97 969.581 965.752 1426.33 1432.83
4798.87 966.716 938.667 1437.51 1410.46
4801.77 879.704 892.581 1367.54 1364.29
4804.67 831.324 866.738 1287.83 1346.39
4807.57 889.186 890.018 1383.8 1369.01
4810.47 949.545 910.879 1435.4 1395.83
4813.38 893.906 934.097 1368.3 1422.69
4816.28 958.84 931.418 1464.39 1431.8
4819.18 941.507 943.27 1462.7 1447.79
4822.08 929.462 960.726 1416.28 1468.63
4824.98 1011.21 935.831 1526.91 1442.09
4827.88 866.823 923.914 1383.07 1432.19
4830.78 893.712 892.294 1386.59 1390.75
4833.68 916.348 918.574 1402.6 1413.36
4836.58 945.663 928.315 1450.88 1423.91
4839.48 922.935 925.934 1418.26 1421.16
4842.38 909.205 921.35 1394.35 1410.63
4845.29 931.909 930.781 1419.28 1420.05
4848.19 951.229 906.216 1446.52 1387.19
4851.09 835.509 859.88 1295.77 1337.86
4853.99 792.901 790.347 1271.31 1249.85
4856.89 742.631 767.822 1182.47 1217.56
4859.79 767.934 764.102 1198.9 1196.02
4862.69 781.743 795.213 1206.7 1232.82
4865.59 835.964 805.473 1292.85 1243.16
4868.49 798.714 806.297 1229.94 1253.24
4871.39 784.214 804.522 1236.92 1233.82
4874.29 830.639 843.674 1234.6 1283.79
4877.19 916.168 871.005 1379.86 1311.95
4880.09 866.209 891.846 1321.38 1345.69
4882.99 893.16 888.759 1335.83 1356.13
4885.89 906.907 878.113 1411.18 1346.04
4888.78 834.274 879.262 1291.11 1366.81
4891.68 896.606 878.096 1398.15 1360.15
4894.58 903.41 898.474 1391.19 1399.11
4897.48 895.408 916.249 1407.99 1415.9
4900.38 949.929 918.647 1448.54 1413.75
4903.28 910.604 945.883 1384.71 1438.48
4906.18 977.115 957.423 1482.19 1449.56
4909.08 984.549 951.571 1481.79 1454.61
4911.98 893.05 938.322 1399.84 1444.65
4914.88 937.367 886.279 1452.31 1388.95
4917.78 828.42 879.408 1314.71 1368.36
4920.67 872.438 865.653 1338.05 1352.07
4923.57 896.1 908.122 1403.46 1405.71
4926.47 955.827 919.787 1475.62 1428.07
4929.37 907.434 940.998 1405.12 1454.25
4932.27 959.732 921.032 1482.02 1426.52
4935.17 895.93 939.93 1392.4 1450.78
4938.06 964.129 918.705 1477.92 1422.38
4940.96 896.056 953.094 1396.82 1460.85
4943.86 999.097 959.037 1507.8 1465.43
4946.76 981.959 992.081 1491.66 1502.21
4949.66 995.187 987.174 1507.17 1496.72
4952.55 984.376 976.841 1491.33 1485.99
4955.45 950.96 986.977 1459.45 1484.36
4958.35 1025.6 985.752 1502.29 1503.32
4961.25 980.701 999.118 1548.21 1523.81
4964.14 991.057 972.049 1520.93 1505.75
4967.04 944.39 973.909 1448.1 1504.76
4969.94 986.28 991.287 1545.24 1537.65
4972.84 1043.19 1019.5 1619.62 1578.61
4975.73 1029.03 1010.78 1570.99 1547.51
4978.63 960.123 987.838 1451.94 1500.43
4981.53 974.36 965.849 1478.37 1476.55
4984.42 963.064 992.75 1499.34 1522.1
4987.32 1040.82 993.367 1588.59 1533.11
4990.22 976.214 1013.4 1511.4 1538.06
4993.12 1023.16 990.324 1514.21 1500.67
4996.01 971.599 1012.53 1476.41 1505.87
4998.91 1042.85 1010.72 1527 1515.49
5001.8 1017.7 1010.65 1543.07 1502.9
5004.7 971.39 983.57 1438.62 1493.1
5007.6 961.62 960.821 1497.6 1474.16
5010.49 949.452 937.612 1486.26 1448.98
5013.39 901.762 919.534 1363.08 1413.92
5016.29 907.387 929.79 1392.43 1410.41
5019.18 980.222 952.118 1475.72 1448.22
5022.08 968.744 940.726 1476.5 1438.02
5024.97 873.212 961.417 1361.85 1467.12
5027.87 1042.3 948.567 1563 1442.45
5030.77 930.193 989.348 1402.48 1493.34
5033.66 995.556 957.224 1514.53 1439.93
5036.56 945.923 959.923 1402.77 1447.35
5039.45 938.289 939.678 1424.75 1422.24
5042.35 934.823 969.912 1439.18 1464.57
5045.24 1036.63 979.65 1529.78 1480.29
5048.14 967.503 1006.83 1471.89 1509.8
5051.03 1016.37 1010.16 1527.71 1546.92
5053.93 1046.61 1010.43 1641.14 1560.89
5056.82 968.308 1009.13 1513.82 1571.34
5059.72 1012.47 995.717 1559.05 1542.46
5062.61 1006.38 1008.89 1554.52 1538.58
5065.51 1007.83 1029.07 1502.18 1550.38
5068.4 1073.01 1051.41 1594.42 1556.57
5071.3 1073.37 1070.29 1573.11 1587.12
5074.19 1064.48 1040.5 1593.82 1570.64
5077.09 983.645 1026.71 1544.99 1564.59
5079.98 1032.01 1011.09 1554.97 1570.86
5082.88 1017.62 1012.17 1612.62 1555.19
5085.77 986.871 1028.64 1497.98 1581.24
5088.66 1081.44 1065.83 1633.13 1612.68
5091.56 1129.19 1082.35 1706.92 1657.59
5094.45 1036.41 1033.87 1632.72 1592.21
5097.35 936.005 998.822 1436.99 1563.56
5100.24 1024.05 1003.11 1620.96 1547.85
5103.13 1049.26 1012.45 1585.58 1576.65
5106.03 964.045 996.522 1523.41 1531.35
5108.92 976.258 1002.72 1485.05 1543.48
5111.81 1067.85 1022.2 1621.98 1571.03
5114.71 1022.5 1043.11 1606.07 1615.28
5117.6 1038.98 1028.69 1617.8 1597.24
5120.49 1024.58 1028.6 1567.87 1597.22
5123.39 1022.24 1023.99 1605.98 1577.26
5126.28 1025.16 1015.86 1557.92 1576.03
5129.17 1000.17 1020.65 1564.19 1577.8
5132.07 1036.61 1006.62 1611.3 1562.44
5134.96 983.09 1012.05 1511.83 1567.53
5137.85 1016.45 1007.64 1579.45 1554.05
5140.74 1023.38 1021.84 1570.86 1590.33
5143.64 1025.68 1004.44 1620.67 1570.9
5146.53 964.259 969.019 1521.17 1543.42
5149.42 917.119 961.479 1488.41 1528.01
5152.31 1003.06 992.9 1574.45 1566.15
5155.21 1058.52 1060.33 1635.58 1638.39
5158.1 1119.41 1028.87 1705.13 1592.94
5160.99 908.671 970.768 1438.12 1514.42
5163.88 884.22 870.724 1400.01 1381.43
5166.77 819.28 839.67 1306.15 1329.1
5169.66 815.51 852.747 1281.14 1339.65
5172.56 923.45 904.369 1431.67 1407.57
5175.45 974.146 949.707 1509.91 1480.26
5178.34 951.524 938.716 1499.2 1463.24
5181.23 890.48 935.577 1380.63 1463.47
5184.12 964.727 945.43 1510.59 1469.22
5187.01 981.085 972.216 1516.43 1506.75
5189.91 970.836 987.55 1493.23 1530.21
5192.8 1010.73 1001.71 1580.96 1556.89
5195.69 1023.57 1051.92 1596.48 1621.61
5198.58 1121.46 1083.07 1687.39 1650.39
5201.47 1104.19 1103.39 1667.3 1676.68
5204.36 1084.52 1065.14 1675.35 1634.91
5207.25 1006.72 1035.59 1562.06 1624.33
5210.14 1015.52 1030.36 1635.57 1630.12
5213.03 1068.84 1065.37 1692.73 1697.17
5215.92 1111.76 1100.6 1763.23 1727
5218.81 1121.21 1098.37 1725.04 1732.65
5221.7 1062.14 1057.32 1709.67 1670.05
5224.59 988.609 1029.62 1575.44 1638.9
5227.48 1038.12 1023.83 1631.58 1614.38
5230.37 1044.76 1047.18 1636.1 1636.57
5233.26 1058.65 1049.66 1642.03 1641.77
5236.15 1045.57 1087.71 1647.17 1684.91
5239.04 1158.92 1114.15 1765.53 1737.32
5241.93 1137.97 1124.14 1799.27 1746.2
5244.82 1075.52 1093.95 1673.82 1715.59
5247.71 1068.36 1086.49 1673.7 1700.28
5250.6 1115.59 1077.01 1753.31 1705.44
5253.49 1047.07 1106.64 1689.32 1754.77
5256.38 1157.28 1101.18 1821.69 1748.46
5259.27 1099.21 1086.86 1734.38 1710.06
5262.16 1004.08 1020.93 1574.12 1605.3
5265.05 959.511 982.465 1507.4 1543.87
5267.93 983.803 919.674 1550.08 1544.51
5270.82 815.708 866.232 1576.06 1592.74
5273.71 799.185 815.495 1652.08 1624.49
5276.6 831.592 746.855 1645.32 1668.06
5279.49 609.789 704.443 1706.77 1671.58
5282.38 671.947 714.432 1662.63 1689.4
5285.27 861.56 772.182 1698.81 1735.28
5288.15 783.039 846.782 1844.4 1773.04
5291.04 895.746 859.34 1775.92 1812.92
5293.93 899.235 879.614 1818.44 1766.33
5296.82 843.862 863.66 1704.63 1744.82
5299.71 847.884 868.326 1711.41 1736.3
5302.59 913.231 915.587 1792.86 1806.92
5305.48 985.645 889.902 1916.48 1872.76
5308.37 770.829 888.686 1908.93 1884.72
5311.26 909.583 810.457 1828.75 1858.35
5314.14 750.96 779.244 1837.36 1817.28
5317.03 677.188 747.117 1785.72 1776.4
5319.92 813.204 794.535 1706.11 1762.67
5322.8 893.212 856.688 1796.19 1739.97
5325.69 863.648 807.829 1717.61 1727.05
5328.58 666.627 737.645 1667.35 1691.46
5331.47 682.66 740.376 1689.44 1714.44
5334.35 871.841 822.694 1786.52 1746.27
5337.24 913.582 891.705 1762.85 1758.51
5340.13 889.691 889.295 1726.17 1731.75
5343.01 864.612 905.7 1706.24 1759.76
5345.9 962.796 921.348 1846.86 1790.02
5348.78 936.637 959.247 1816.97 1837.75
5351.67 978.307 981.255 1849.41 1875.22
5354.56 1028.82 985.642 1959.27 1907.66
5357.44 949.799 895.43 1914.3 1884.69
5360.33 707.672 854.869 1780.5 1834.62
5363.21 907.137 845.478 1809.06 1786.04
5366.1 921.625 849.406 1768.55 1792.61
5368.99 719.455 870.973 1800.23 1803.99
5371.87 971.84 873.465 1843.18 1815.87
5374.76 929.1 962.392 1804.2 1842.59
5377.64 986.235 891.981 1880.4 1840.61
5380.53 760.608 916.547 1837.22 1868.72
5383.41 1002.8 901.085 1888.55 1872.93
5386.3 939.849 966.645 1893 1882.15
5389.18 957.288 921.936 1864.89 1840.89
5392.07 868.672 892.733 1764.76 1770.6
5394.95 852.238 880.7 1682.13 1742.44
5397.84 921.188 868.863 1780.43 1712.97
5400.72 833.161 793.399 1676.36 1699.81
5403.61 625.846 782.722 1642.66 1687.96
5406.49 889.157 806.868 1744.87 1693.25
5409.37 905.602 907.615 1692.22 1762.89
5412.26 928.085 931.465 1851.58 1787.29
5415.14 960.708 919.264 1818.07 1789.61
5418.03 868.999 906.612 1699.18 1760.33
5420.91 890.13 885.706 1763.74 1744.2
5423.79 897.987 892.523 1769.68 1766.7
5426.68 889.451 884.53 1766.69 1749.91
5429.56 866.151 824.942 1713.35 1751.78
5432.45 719.225 845.946 1775.31 1773.64
5435.33 952.461 896.635 1832.26 1840.39
5438.21 1018.22 977.712 1913.6 1865
5441.1 962.456 963.104 1849.16 1841.47
5443.98 908.637 901.734 1761.67 1846.78
5446.86 834.111 908.265 1929.51 1858.58
5449.74 982.046 858.86 1884.55 1888.28
5452.63 760.424 894.424 1850.78 1851.84
5455.51 940.803 895.531 1820.19 1847.76
5458.39 985.366 932.014 1872.31 1814.55
5461.28 869.873 942.231 1751.16 1829.9
5464.16 971.453 951.299 1866.23 1846.32
5467.04 1012.57 895.075 1921.58 1852.34
5469.92 701.203 895.449 1769.22 1834.08
5472.8 972.573 888.146 1811.43 1807.18
5475.69 990.661 988.835 1840.89 1846.03
5478.57 1003.27 1000.92 1885.77 1876.28
5481.45 1008.81 990.539 1902.19 1884.87
5484.33 959.533 966.194 1866.64 1870.27
5487.21 930.234 966.896 1841.97 1877.96
5490.1 1010.92 930.622 1925.27 1898.62
5492.98 850.709 941.328 1928.62 1907.16
5495.86 962.352 935.553 1867.59 1897.06
5498.74 993.598 974.333 1894.96 1874.68
5501.62 967.048 985.185 1861.48 1887.78
5504.5 994.908 978.337 1906.89 1891.13
5507.38 973.056 978.751 1905.01 1874.63
5510.26 968.29 978.213 1812 1857.45
5513.14 993.294 987.261 1855.34 1850.02
5516.02 1000.2 1037.07 1882.73 1920
5518.91 1117.71 1043.1 2021.93 1925.79
5521.79 1011.39 972.61 1872.7 1911.28
5524.67 788.733 942.786 1839.21 1859.37
5527.55 1028.24 922.787 1866.19 1851.22
5530.43 951.393 1008.74 1848.25 1873.1
5533.31 1046.58 996.469 1904.87 1874.33
5536.19 991.435 958.297 1869.87 1909.22
5539.07 836.877 936.241 1952.91 1900.54
5541.95 980.41 959.117 1878.85 1931.04
5544.83 1060.06 1020.12 1961.37 1917.25
5547.71 1019.87 1046.16 1911.52 1965.51
5550.59 1058.53 1024.77 2023.63 1932.72
5553.46 995.9 940.366 1863.01 1904.39
5556.34 766.665 929.223 1826.53 1875.44
5559.22 1025.11 915.21 1936.78 1846.08
5562.1 953.86 907.157 1774.94 1851.94
5564.98 742.504 881.351 1844.11 1791.46
5567.86 947.688 908.38 1755.31 1845.24
5570.74 1034.95 1020.7 1936.29 1851.67
5573.62 1079.47 1039.45 1863.41 1895.56
5576.5 1003.93 858.913 1886.97 1845.67
5579.37 493.342 692.912 1786.63 1828.28
5582.25 581.47 552.76 1811.24 1793.37
5585.13 583.47 698.168 1782.23 1758.27
5588.01 929.565 833.584 1681.35 1751.94
5590.89 987.717 866.106 1792.25 1753.08
5593.76 681.035 889.988 1785.64 1806.65
5596.64 1001.21 895.859 1842.06 1796.4
5599.52 1005.33 1000.31 1761.5 1814.04
5602.4 994.393 1014.05 1838.57 1819.71
5605.28 1042.44 1003.88 1859.07 1838.12
5608.15 974.8 1021.91 1816.72 1855.61
5611.03 1048.48 1010.84 1891.05 1856.38
5613.91 1009.23 1020.06 1861.36 1853.86
5616.78 1002.46 938.423 1809.18 1842.84
5619.66 803.577 904.052 1857.98 1796.85
5622.54 906.117 941.378 1723.39 1847.8
5625.41 1114.44 929.051 1962.03 1843.6
5628.29 766.596 977.784 1845.39 1895.45
5631.17 1052.32 959.771 1878.92 1887.03
5634.04 1060.4 1057.14 1936.77 1909.4
5636.92 1058.69 1060.09 1912.51 1919.77
5639.8 1061.19 1061.02 1910.01 1907.72
5642.67 1063.17 1055.19 1900.64 1891.3
5645.55 1041.21 1004.86 1863.24 1905.24
5648.43 910.21 975.659 1951.85 1874.42
5651.3 975.559 954.583 1808.16 1850.87
5654.18 977.979 885.446 1792.59 1760.2
5657.05 702.801 882.223 1679.86 1753.49
5659.93 965.888 897.563 1788.02 1758.42
5662.8 1024 1000.86 1807.39 1809.93
5665.68 1012.7 939.685 1834.38 1810.45
5668.55 782.354 944.206 1789.57 1828.29
5671.43 1037.56 951.223 1860.9 1832.31
5674.3 1033.75 1062.46 1846.46 1888.78
5677.18 1116.06 1068.19 1958.96 1905.65
5680.05 1054.76 1087.58 1911.54 1917.12
5682.93 1091.93 1060.15 1880.87 1892.53
5685.8 1033.78 1051.53 1885.16 1871.16
5688.68 1028.89 974.057 1847.44 1873.28
5691.55 859.504 962.621 1887.25 1855.08
5694.43 999.468 968.551 1830.57 1859.87
5697.3 1046.68 1028.1 1861.81 1851.07
5700.17 1038.16 1037.9 1860.84 1848.33
5703.05 1028.85 1037.1 1822.35 1843.1
5705.92 1044.29 996.027 1846.11 1788.2
5708.79 914.94 986.901 1696.15 1782.82
5711.67 1001.47 970.328 1806.2 1752.51
5714.54 994.571 1038.8 1755.19 1820.03
5717.41 1120.37 984.726 1898.7 1830.96
5720.29 839.238 1001.25 1838.98 1857.48
5723.16 1044.13 982.356 1834.76 1837.55
5726.03 1063.7 1041.48 1838.91 1827.06
5728.91 1016.62 1063.34 1807.51 1870.35
5731.78 1109.7 1071.47 1964.62 1890.99
5734.65 1088.09 1111.47 1900.84 1912.2
5737.53 1136.62 1021.56 1871.13 1865.75
5740.4 839.989 1020.37 1825.28 1838.28
5743.27 1084.51 985.332 1818.42 1822.56
5746.14 1031.49 1048.74 1823.98 1813.11
5749.01 1030.22 1031.01 1796.95 1820.06
5751.89 1031.31 1035.18 1839.25 1820.65
5754.76 1044 967.608 1825.76 1814.16
5757.63 827.512 953.408 1777.48 1771.93
5760.5 988.71 958.82 1712.55 1776.05
5763.37 1060.24 1013.41 1838.13 1764.44
5766.24 991.284 1054.69 1742.64 1813.86
5769.12 1112.53 1046.95 1860.82 1821.29
5771.99 1037.03 1055.72 1860.4 1847.14
5774.86 1017.6 1005.31 1820.19 1785.7
5777.73 961.29 923.171 1676.52 1744.82
5780.6 790.619 912.827 1737.74 1720.67
5783.47 986.572 921.816 1747.75 1727.98
5786.34 988.257 1024.32 1698.44 1752.18
5789.21 1098.14 1055.09 1810.34 1773.89
5792.08 1078.88 1093.37 1812.89 1835.29
5794.95 1103.1 1084.97 1882.65 1834.45
5797.82 1072.94 1085.86 1807.82 1825.75
5800.69 1081.55 1062.37 1786.78 1790.3
5803.56 1032.63 991.645 1776.32 1797.36
5806.43 860.759 992.509 1828.98 1812.78
5809.3 1084.14 942.719 1833.04 1841.73
5812.17 883.256 988.036 1863.16 1808.12
5815.04 996.709 1004.06 1728.16 1829.39
5817.91 1132.21 1083.19 1896.84 1835.71
5820.78 1120.63 1125.81 1882.11 1902.85
5823.65 1124.59 1032.85 1929.58 1881.92
5826.52 853.335 944.95 1834.08 1877.41
5829.39 856.921 932.346 1868.57 1843.2
5832.26 1086.78 945.298 1826.96 1865.62
5835.13 892.191 954.537 1901.33 1861.66
5837.99 884.638 974.45 1856.68 1903.27
5840.86 1146.52 1069.06 1951.81 1925.09
5843.73 1176.01 1133.75 1966.77 1909.89
5846.6 1078.73 1138.01 1811.1 1901.95
5849.47 1159.28 1019.63 1927.99 1832.29
5852.34 820.889 1021.81 1757.79 1856.67
5855.2 1085.25 974.495 1884.25 1806.02
5858.07 1017.35 1069.04 1776.04 1839.66
5860.94 1104.52 1087.09 1858.7 1846.77
5863.81 1139.41 1115.21 1905.56 1860.54
5866.67 1101.69 1091.77 1817.35 1849.83
5869.54 1034.23 1055.2 1826.6 1812.64
5872.41 1029.68 1070.93 1793.96 1845.87
5875.28 1148.88 990.66 1917.04 1844.44
5878.14 793.422 1021.4 1822.33 1869.44
5881.01 1121.9 988.395 1868.94 1801.42
5883.88 1049.86 1044.17 1713 1747.81
5886.74 960.734 965.058 1661.48 1631.1
5889.61 884.579 908.576 1518.83 1583.51
5892.48 880.415 773.129 1570.22 1520.88
5895.34 554.394 792.235 1473.59 1540.23
5898.21 941.896 717.861 1576.89 1544.37
5901.07 657.292 889.674 1582.64 1660.45
5903.94 1069.83 950.137 1821.83 1777.92
5906.81 1123.28 1012.71 1929.3 1840.19
5909.67 845.022 948.003 1769.45 1861.69
5912.54 875.704 931.639 1886.32 1807.83
5915.4 1074.19 952.346 1767.73 1844.99
5918.27 907.142 955.629 1880.93 1816.9
5921.13 885.553 952.233 1802.06 1808.35
5924 1064 1023.7 1742.07 1797.34
5926.86 1121.54 1132.37 1847.89 1849.11
5929.73 1211.57 1031.65 1957.37 1823.05
5932.59 761.831 1019.35 1663.89 1811.37
5935.46 1084.65 1002.91 1812.85 1768.11
5938.32 1162.25 1040.45 1827.57 1825.8
5941.19 874.459 1050.11 1836.97 1849.87
5944.05 1113.62 1005.19 1885.06 1827.19
5946.91 1027.5 1053.54 1759.54 1801.57
5949.78 1019.51 948.599 1760.11 1722.48
5952.64 798.789 953.157 1647.78 1706.45
5955.51 1041.18 906.326 1711.46 1722.13
5958.37 879.014 928.752 1807.15 1781.4
5961.23 866.065 953.665 1825.58 1808.26
5964.1 1115.91 1014.02 1792.05 1800.27
5966.96 1060.07 1096.65 1783.16 1795.57
5969.82 1113.96 1079.57 1811.5 1784.85
5972.69 1064.7 1104.71 1759.88 1797.82
5975.55 1135.48 1103.73 1822.06 1793.54
5978.41 1111.02 1099.02 1798.68 1785.53
5981.28 1050.56 1066.5 1735.86 1762.96
5984.14 1037.91 1048.09 1754.33 1733.8
5987 1055.78 1070.97 1711.21 1739.63
5989.86 1119.22 1093.04 1753.33 1743.46
5992.72 1104.11 1078.76 1765.83 1737.01
5995.59 1012.94 1066.7 1691.85 1735.92
5998.45 1083.04 1040.81 1750.08 1706.52
6001.31 1026.44 1065.96 1677.63 1727.28
6004.17 1088.39 997.631 1754.13 1723.32
6007.03 878.062 1020.28 1738.19 1750.2
6009.9 1094.39 1036.66 1758.29 1768.45
6012.76 1137.52 1027.11 1808.88 1757.08
6015.62 849.427 1013.1 1704.08 1741.17
6018.48 1052.35 915.236 1710.56 1716.58
6021.34 843.935 980.766 1735.1 1714.49
6024.2 1046.02 912.082 1697.83 1707.98
6027.06 846.293 995.489 1691.01 1702.07
6029.92 1094.16 1020.64 1717.36 1733.56
6032.78 1121.46 1099.88 1792.3 1766.65
6035.64 1084.03 1091.76 1790.29 1788.52
6038.5 1069.8 1005.41 1782.98 1773.58
6041.36 862.41 996.68 1747.47 1762.95
6044.22 1057.83 1008 1758.41 1771.42
6047.08 1103.77 1078.09 1808.39 1769.34
6049.94 1072.66 1090.31 1741.22 1752.29
6052.8 1094.5 1073.36 1707.26 1724.79
6055.66 1052.93 1076.03 1725.89 1698.93
6058.52 1080.64 1076.41 1663.65 1710.2
6061.38 1095.65 1018.54 1741.07 1738.08
6064.24 879.313 1040.57 1809.51 1780.25
6067.1 1146.75 1060.26 1790.18 1805.6
6069.96 1154.71 1064.18 1817.1 1782.65
6072.82 891.089 1053.46 1740.67 1775.53
6075.67 1114.59 956.241 1768.81 1738.91
6078.53 863.042 1011.14 1707.25 1711.9
6081.39 1055.78 999.419 1659.66 1701.3
6084.25 1079.43 1089.11 1736.98 1722.53
6087.11 1132.13 1085.68 1770.96 1735.15
6089.97 1045.49 1082.39 1697.51 1724.35
6092.82 1069.55 1003.97 1704.59 1725.14
6095.68 896.881 1009.68 1773.34 1713.05
6098.54 1062.59 995.453 1661.24 1696.48
6101.4 1026.88 1036.43 1654.86 1639.87
6104.25 1019.82 1065.27 1603.53 1663.48
6107.11 1149.1 1088.05 1732.06 1689.61
6109.97 1095.23 1045.48 1733.23 1739.86
6112.82 892.116 951 1754.29 1737.96
6115.68 865.652 935.091 1726.37 1716.05
6118.54 1047.5 931.165 1667.51 1682.83
6121.39 880.337 934.902 1654.61 1675.44
6124.25 876.863 882.659 1704.2 1674.83
6127.11 890.775 922.7 1665.67 1653.51
6129.96 1000.46 976.335 1590.66 1630.04
6132.82 1037.77 1039 1633.79 1633.48
6135.68 1078.78 1068.83 1676 1666.06
6138.53 1089.94 1069 1688.41 1655.98
6141.39 1038.29 973.678 1603.54 1635.05
6144.24 792.809 964.095 1613.21 1626.35
6147.1 1061.19 993.851 1662.3 1678.74
6149.95 1127.55 1060.98 1760.7 1656.32
6152.81 994.208 1069.9 1545.97 1650.45
6155.66 1087.94 1025.88 1644.68 1567.55
6158.52 995.485 1014.64 1512.01 1566.3
6161.37 960.488 975.464 1542.22 1521.43
6164.23 970.418 927.41 1510.07 1574.7
6167.08 851.324 959.483 1671.83 1624.58
6169.94 1056.71 993.529 1691.84 1678.72
6172.79 1072.55 1046.68 1672.47 1675.07
6175.64 1010.77 1044.02 1660.9 1673.86
6178.5 1048.74 1064.56 1688.2 1689.66
6181.35 1134.17 1003.44 1719.88 1695.72
6184.21 827.406 989.835 1679.08 1647.8
6187.06 1007.93 956.3 1544.43 1603.87
6189.91 1033.56 1026.21 1588.11 1595.72
6192.77 1037.13 970.998 1654.61 1617.24
6195.62 842.299 896.315 1608.99 1624.21
6198.47 809.513 922.115 1609.02 1624.03
6201.33 1114.53 943.446 1654.07 1653.6
6204.18 906.292 1033.68 1697.72 1676.09
6207.03 1080.21 1014.92 1676.49 1661.42
6209.88 1058.25 995.901 1610.04 1644.23
6212.74 849.246 1001.85 1646.16 1644.92
6215.59 1098.06 993.459 1678.57 1655.81
6218.44 1033.08 1073.33 1642.7 1658.66
6221.29 1088.85 1049.3 1654.71 1642.93
6224.14 1025.97 1038.91 1631.39 1634
6227 1001.91 944.28 1615.91 1593.09
6229.85 804.968 956.215 1531.97 1587.14
6232.7 1061.77 987.479 1613.53 1611.04
6235.55 1095.7 1078 1687.61 1648.2
6238.4 1076.52 1057.3 1643.47 1613.36
6241.25 999.667 1043.09 1508.99 1599.7
6244.1 1053.07 1025.07 1646.64 1580
6246.95 1022.47 947.061 1584.37 1579.59
6249.8 765.639 889.288 1507.77 1570.77
6252.65 879.754 888.399 1620.17 1577.44
6255.51 1019.8 979.779 1604.38 1600.22
6258.36 1039.78 1017.34 1576.1 1568.33
6261.21 992.441 1023.57 1524.5 1568.99
6264.06 1038.49 1023.55 1606.38 1581.59
6266.91 1039.74 1046.53 1613.9 1616.53
6269.75 1061.37 1067.19 1629.33 1657.26
6272.6 1100.45 1028.78 1728.57 1630.31
6275.45 924.517 1007.99 1533.03 1573.33
6278.3 999.013 988.083 1458.4 1507.66
6281.15 1040.72 1050.91 1531.55 1543.24
6284 1113.01 1064.58 1639.75 1581.54
6286.85 1040.01 1039.07 1573.31 1588.3
6289.7 964.184 1019.42 1551.82 1542.97
6292.55 1054.08 1018.79 1503.77 1530.78
6295.4 1038.11 1023.48 1536.75 1494.97
6298.24 978.26 987.806 1444.39 1434.88
6301.09 947.047 966.939 1323.49 1406.89
6303.94 975.509 1025.55 1452.78 1469.91
6306.79 1154.09 959.69 1633.46 1570.83
6309.64 749.474 995.021 1626.24 1602.45
6312.48 1081.5 926.412 1547.66 1553.23
6315.33 948.262 999.191 1485.8 1512.94
6318.18 967.81 996.752 1505.36 1523.49
6321.03 1074.19 1027.78 1579.32 1550.51
6323.87 1041.35 1080.08 1566.85 1608.52
6326.72 1124.69 1077.78 1679.39 1624.95
6329.57 1067.3 1095.82 1628.61 1642.86
6332.41 1095.47 1060.65 1620.58 1600.89
6335.26 1019.2 967.86 1553.49 1571.05
6338.11 788.917 945.987 1539.07 1563.33
6340.95 1029.85 889.258 1597.43 1560.69
6343.8 849.008 921.149 1545.58 1597.82
6346.64 884.589 940.705 1650.46 1609.39
6349.49 1088.52 1014.43 1632.12 1640.35
6352.34 1070.19 1063 1638.47 1604.73
6355.18 1030.3 1030.91 1543.6 1564.29
6358.03 992.258 1015.33 1510.8 1531.06
6360.87 1023.42 1034.45 1538.78 1536
6363.72 1087.68 1033.41 1558.43 1528.46
6366.56 989.141 1031.58 1488.16 1546.48
6369.41 1017.92 994.252 1592.85 1499.78
6372.25 975.694 951.554 1418.31 1550.22
6375.1 861.047 879.682 1639.48 1533.18
6377.94 802.306 821.623 1541.74 1581.7
6380.78 801.516 808.668 1563.89 1560.33
6383.63 822.182 825.131 1575.38 1573.73
6386.47 851.697 829.918 1581.92 1566.57
6389.32 815.876 822.273 1542.42 1539.44
6392.16 799.246 813.522 1493.99 1519.4
6395 825.445 803.184 1521.79 1498.99
6397.85 784.862 799.829 1481.21 1488.63
6400.69 789.181 781.816 1462.9 1472.61
6403.53 771.405 802.533 1473.71 1502.08
6406.38 847.014 811.411 1569.65 1542.43
6409.22 815.814 821.212 1583.94 1562.59
6412.06 800.808 824.035 1534.19 1552.44
6414.91 855.483 828.494 1539.2 1543.49
6417.75 829.193 823.719 1557.09 1530.67
6420.59 786.48 752.191 1495.72 1547.61
6423.43 640.901 752.243 1590.03 1526.64
6426.27 829.348 743.747 1494.17 1530.64
6429.12 760.992 753.184 1507.72 1514.18
6431.96 669.213 764.017 1540.64 1545.5
6434.8 861.848 772.042 1588.15 1541.17
6437.64 785.066 826.141 1494.72 1536.38
6440.48 831.51 817.71 1526.27 1535.71
6443.32 836.554 840.476 1586.13 1556.99
6446.16 853.364 839.055 1558.57 1553.07
6449 827.248 820.931 1514.49 1521.59
6451.85 782.182 813.711 1491.71 1506.71
6454.69 831.704 827.465 1513.93 1523.55
6457.53 868.509 824.423 1565.02 1515.94
6460.37 773.057 843.385 1468.88 1545.51
6463.21 888.587 815.703 1602.63 1524.29
6466.05 785.466 816.413 1501.37 1502.82
6468.89 775.187 807.2 1404.47 1493.82
6471.73 860.947 812.821 1575.61 1477.83
6474.57 802.328 845.481 1453.42 1525.15
6477.41 873.169 829.871 1546.42 1517.77
6480.24 814.115 837.256 1553.46 1537.76
6483.08 824.484 852.092 1513.4 1552.19
6485.92 917.678 796.082 1589.69 1528.28
6488.76 646.084 783.534 1481.73 1517.69
6491.6 786.84 721.213 1481.65 1453.9
6494.44 730.716 701.941 1398.3 1442.01
6497.28 588.267 713.571 1446.08 1449
6500.11 821.73 741.818 1502.61 1469.18
6502.95 815.459 817.789 1458.85 1504.17
6505.79 816.178 840.521 1551.03 1492.81
6508.63 889.926 841.698 1468.55 1467.17
6511.47 818.99 850.513 1381.94 1475.54
6514.3 842.624 757.335 1576.12 1458.5
6517.14 610.393 766.394 1417.45 1487.5
6519.98 846.164 775.967 1468.94 1465.46
6522.82 871.343 785.55 1509.99 1479.89
6525.65 639.143 793.262 1460.75 1493.22
6528.49 869.299 783.675 1508.91 1497.78
6531.33 842.582 852.284 1523.67 1552.06
6534.16 844.972 759.352 1623.61 1541.86
6537 590.503 757.308 1478.3 1553.14
6539.83 836.451 740.864 1557.51 1501.37
6542.67 795.638 807.747 1468.3 1491.71
6545.51 791.153 732.202 1449.31 1462.97
6548.34 609.816 740.679 1471.3 1445.25
6551.18 821.067 742.351 1415.13 1414.8
6554.01 796.17 768.26 1357.96 1342.79
6556.85 687.543 656.997 1255.29 1278.19
6559.68 487.277 577.399 1221.33 1285.85
6562.52 557.377 588.534 1380.94 1296.97
6565.35 720.948 700.814 1288.64 1352.21
6568.19 824.118 768.354 1387.04 1336.68
6571.02 759.998 814.483 1334.35 1405.57
6573.86 859.335 802.6 1495.33 1417.86
6576.69 788.467 819.461 1423.89 1453.71
6579.52 810.58 798.58 1441.89 1408.69
6582.36 796.695 813.917 1360.29 1425.94
6585.19 834.478 752.916 1475.63 1421.65
6588.03 627.577 768.179 1429.03 1462.99
6590.86 842.482 781.116 1484.32 1466.77
6593.69 873.289 823.278 1486.98 1460.19
6596.53 754.064 830.308 1409.27 1459.42
6599.36 863.572 762.537 1482.02 1459.31
6602.19 669.975 808.298 1486.63 1505.39
6605.02 891.346 788.463 1547.53 1495.95
6607.86 804.069 840.826 1453.71 1487.38
6610.69 827.063 794.289 1460.92 1487.05
6613.52 751.737 805.34 1546.54 1492.76
6616.35 837.221 789.116 1470.81 1492.56
6619.18 778.391 746.696 1460.34 1462.16
6622.02 624.475 748.002 1455.31 1476.41
6624.85 841.139 720.177 1513.57 1492.91
6627.68 694.918 784.496 1509.85 1487.09
6630.51 817.432 768.165 1437.87 1440.73
6633.34 792.144 821.857 1374.49 1434.63
6636.17 855.994 769.347 1491.52 1441.71
6639 659.903 730.306 1459.13 1465.52
6641.83 675.022 690.834 1445.9 1470.87
6644.67 737.578 753.857 1507.59 1487.08
6647.5 848.971 785.178 1507.76 1464.56
6650.33 768.985 813.161 1378.33 1431.65
6653.16 821.526 810.152 1408.85 1420.63
6655.99 839.944 799.944 1474.72 1469.37
6658.82 738.363 813.837 1524.55 1486.37
6661.64 863.204 761.536 1459.84 1465.87
6664.47 683.042 786.672 1413.21 1422.7
6667.3 813.768 790.192 1395.04 1423.96
6670.13 873.764 829.142 1463.64 1416.55
6672.96 799.893 825.484 1390.99 1412.75
6675.79 802.795 793.008 1383.64 1411.15
6678.62 776.336 828.053 1458.82 1434.07
6681.45 905.027 864.64 1459.76 1483.43
6684.28 912.556 870.292 1531.72 1448.31
6687.1 793.293 870.398 1353.44 1432.48
6689.93 905.345 842.876 1412.28 1379.28
6692.76 829.991 851.982 1372.12 1393.68
6695.59 820.611 816.901 1396.65 1382.17
6698.42 800.101 819.569 1377.74 1393.52
6701.24 837.994 857.565 1406.19 1423.57
6704.07 934.6 880.175 1486.79 1434.37
6706.9 867.932 887.814 1410.12 1463.21
6709.72 860.91 780.22 1492.7 1421.92
6712.55 611.819 766.28 1362.93 1408.75
6715.38 826.112 758.594 1370.6 1391.88
6718.2 837.851 829.361 1442.09 1399.9
6721.03 824.12 821.862 1387.01 1398.65
6723.86 803.617 836.222 1366.84 1383.98
6726.68 880.93 844.455 1398.1 1403.77
6729.51 848.818 872.029 1446.37 1436.67
6732.33 886.34 847.812 1465.53 1448.82
6735.16 808.278 848.477 1434.58 1420.3
6737.98 850.815 786.822 1360.79 1404.8
6740.81 701.375 741.793 1419.02 1398.41
6743.63 673.189 696.981 1415.41 1423.99
6746.46 716.379 772.332 1437.53 1409.74
6749.28 927.427 839.814 1376.3 1408.44
6752.11 875.635 820.545 1411.48 1408.87
6754.93 658.574 799.771 1438.82 1418.74
6757.76 865.104 728.251 1405.92 1428.01
6760.58 661.073 800.676 1439.3 1425.93
6763.4 875.851 784.516 1432.58 1387.88
6766.23 816.624 849.764 1291.75 1375.29
6769.05 856.816 841.977 1401.55 1362.43
6771.88 852.49 834.222 1394 1363.35
6774.7 793.36 842.634 1294.52 1362.5
6777.52 882.052 845.56 1398.98 1383.78
6780.34 861.268 806.114 1457.84 1408.02
6783.17 675.022 731.624 1367.25 1385.2
6785.99 658.581 724.163 1330.5 1339.32
6788.81 838.885 777.339 1320.22 1331.65
6791.63 834.551 847.437 1344.24 1347.98
6794.46 868.876 855.157 1379.48 1371.47
6797.28 862.045 869.976 1390.68 1389.76
6800.1 879.007 872.272 1399.14 1385.46
6802.92 875.764 865.357 1366.58 1359.71
6805.74 841.3 854.971 1313.4 1331.27
6808.57 847.848 860.99 1313.83 1336.61
6811.39 893.82 864.141 1382.6 1344.9
6814.21 850.754 837.827 1338.27 1342.34
6817.03 768.907 834.105 1306.13 1371.71
6819.85 882.655 758.976 1470.72 1359.96
6822.67 625.365 707.458 1303.03 1369.96
6825.49 614.353 699.097 1336.13 1315.23
6828.31 857.574 676.217 1306.53 1327.85
6831.13 556.725 775.457 1340.89 1342.43
6833.95 912.072 777.369 1379.87 1337.3
6836.77 863.31 864.157 1291.14 1332.52
6839.59 817.089 852.152 1326.54 1320.27
6842.41 876.055 836.892 1343.12 1330.26
6845.23 817.533 859.705 1321.13 1344.97
6848.05 885.528 783.054 1370.68 1329.98
6850.86 646.102 797.104 1298.13 1347
6853.68 859.681 794.885 1372.2 1356.09
6856.5 878.871 775.225 1397.93 1346.84
6859.32 587.123 738.892 1270.37 1289.95
6862.14 750.68 642.853 1201.55 1174.02
6864.96 590.756 670.933 1050.14 1091.56
6867.77 671.363 642.783 1023 1028.36
6870.59 666.231 606.992 1011.94 1025.61
6873.41 483.381 631.283 1041.91 1049.53
6876.23 744.237 661.119 1094.74 1089.26
6879.04 755.738 691.719 1131.15 1114.75
6881.86 575.183 696.33 1118.35 1131.1
6884.68 758.07 689.418 1143.79 1120.68
6887.49 735 689.312 1099.88 1125
6890.31 574.867 677.277 1131.34 1120.32
6893.13 721.963 638.892 1129.75 1138.5
6895.94 619.845 681.507 1154.41 1121.6
6898.76 702.714 712.415 1080.63 1144.06
6901.58 814.686 783.481 1197.13 1167.13
6904.39 833.045 810.262 1223.62 1194.99
6907.21 783.055 800.822 1164.22 1177.59
6910.02 786.366 776.43 1144.94 1167.15
6912.84 759.868 769.4 1192.3 1163.85
6915.65 761.965 693.078 1154.32 1166.99
6918.47 557.4 712.33 1154.36 1183.37
6921.28 817.624 644.854 1241.43 1183.39
6924.1 559.54 649.781 1154.4 1191.07
6926.91 572.181 645.382 1177.38 1191.65
6929.72 804.426 700.768 1243.18 1164.16
6932.54 725.696 783.496 1071.92 1170.13
6935.35 820.365 786.21 1195.28 1128.06
6938.17 812.568 811.183 1116.98 1173.31
6940.98 800.614 712.2 1207.66 1140.54
6943.79 523.417 700.899 1096.98 1166.49
6946.61 778.667 713.518 1194.81 1159.16
6949.42 838.471 786.273 1185.7 1159.43
6952.23 741.68 770.295 1097.77 1127.27
6955.04 730.733 754.765 1098.35 1110.68
6957.86 791.882 725.311 1135.92 1130.22
6960.67 653.319 689.464 1156.38 1167.47
6963.48 623.192 701.387 1210.12 1210.59
6966.29 827.65 784.094 1265.28 1240.26
6969.1 901.44 838.142 1245.37 1205.2
6971.92 785.337 754.255 1104.94 1162.48
6974.73 575.987 713.351 1137.13 1139.57
6977.54 778.728 711.885 1176.65 1155.83
6980.35 780.94 810.145 1153.69 1182.19
6983.16 870.767 786.506 1216.24 1213.17
6985.97 707.812 792.741 1269.59 1225.31
6988.78 799.644 730.926 1190.11 1202.45
6991.59 685.321 767.447 1147.64 1169.88
6994.4 817.375 763.709 1171.89 1150.66
6997.21 788.431 799.537 1132.46 1155.71
7000.02 792.807 759.167 1162.77 1126.44
7002.83 696.265 773.521 1084.07 1141.63
7005.64 831.492 768.67 1178.05 1128.87
7008.45 778.254 781.512 1124.49 1119.36
7011.26 734.789 765.262 1055.54 1099.95
7014.07 782.744 743.375 1119.82 1087.09
7016.88 712.591 746.315 1085.9 1112.7
7019.69 743.61 747.095 1132.37 1115.43
7022.49 785.085 753.206 1128.01 1099.13
7025.3 730.923 762.667 1037.02 1106.15
7028.11 771.994 756.255 1153.42 1087.48
7030.92 765.847 716.542 1071.99 1097.44
7033.73 611.786 669.603 1066.91 1087.56
7036.53 631.177 685.476 1123.79 1108.99
7039.34 813.466 671.762 1136.28 1094.42
7042.15 570.643 719.763 1023.18 1062.29
7044.96 775.179 641.308 1027.39 1041.96
7047.76 578.102 719.299 1075.32 1060.36
7050.57 804.615 713.931 1078.37 1082.02
7053.38 759.077 714.614 1092.36 1066.63
7056.18 580.149 707.086 1029.17 1071.87
7058.99 782.033 711.369 1094.08 1062.18
7061.79 771.923 730.125 1063.3 1100.05
7064.6 636.419 689.798 1142.78 1098.74
7067.41 661.052 646.061 1090.14 1105.48
7070.21 640.712 649.121 1083.53 1084.95
7073.02 645.598 681.506 1081.2 1076.5
7075.82 758.207 726.571 1064.78 1065.7
7078.63 775.909 772.975 1051.12 1051.38
7081.43 784.808 717.571 1038.25 1042.89
7084.24 591.997 722.031 1039.31 1055.39
7087.04 789.288 703.087 1088.6 1043.6
7089.84 727.976 739.166 1002.89 1042.45
7092.65 700.235 691.981 1035.86 1043.58
7095.45 647.731 708.355 1091.97 1049.65
7098.26 777.099 727.979 1021.12 1053.98
7101.06 759.106 761.861 1048.85 1020.47
7103.86 749.377 765.192 991.432 1016.6
7106.67 787.093 757.167 1009.53 982.672
7109.47 735.033 784.233 947.055 1012.52
7112.27 830.574 780.091 1080.97 1018.4
7115.07 774.666 795.204 1027.16 1046.32
7117.88 780.373 767.809 1030.83 1005.15
7120.68 748.387 734.484 957.457 987.754
7123.48 674.691 740.972 974.971 973.984
7126.28 799.838 746.912 989.526 1007.54
7129.09 766.206 759.776 1058.13 1012.48
7131.89 713.285 741.166 989.768 1007.19
7134.69 744.007 736.028 973.659 976.939
7137.49 750.793 697.228 967.389 985.047
7140.29 596.886 704.495 1014.09 992.379
7143.09 765.808 645.767 995.655 1001.03
7145.89 574.607 695.959 993.333 1000.98
7148.69 747.462 676.762 1013.96 982.679
7151.49 708.217 736.744 940.747 985.293
7154.29 754.551 737.608 1001.17 970.435
7157.09 750.057 741.642 969.382 988.929
7159.89 720.317 740.405 996.229 987.385
7162.69 750.84 720.841 996.542 975.361
7165.49 691.366 710.722 933.311 935.132
7168.29 689.96 673.232 875.543 945.738
7171.09 638.37 676.924 1028.36 934.54
7173.89 702.442 686.188 899.715 965.347
7176.69 717.752 718.836 967.964 943.407
7179.49 736.313 663.438 962.543 941.042
7182.28 536.251 596.034 892.619 925.595
7185.08 515.539 574.794 921.624 893.569
7187.88 672.594 636.591 866.464 900.131
7190.68 721.641 703.14 912.305 924.672
7193.47 715.187 721.08 995.247 944.71
7196.27 726.411 717.25 926.578 945.635
7199.07 710.151 709.84 915.081 908.886
7201.87 692.957 694.538 884.998 897.358
7204.66 680.505 701.843 891.994 905.068
7207.46 732.067 653.883 938.213 906.44
7210.26 549.078 685.957 889.114 926.643
7213.05 776.727 670.256 952.601 895.301
7215.85 684.962 716.931 844.187 902.224
7218.64 689.105 671.592 909.883 870.774
7221.44 640.709 692.942 858.253 891.704
7224.24 749.012 635.653 906.975 887.969
7227.03 517.239 651.209 898.679 885.726
7229.83 687.377 636.332 851.523 862.637
7232.62 704.378 691.686 837.711 858.439
7235.42 683.303 700.255 886.083 858.006
7238.21 713.082 687.404 850.223 854.092
7241 665.827 685.077 825.969 833.515
7243.8 676.321 670.632 824.353 810.279
7246.59 669.749 673.603 780.516 827.73
7249.39 674.739 687.252 878.322 847.536
7252.18 717.269 711.896 883.769 902.861
7254.97 743.679 713.964 946.491 885.648
7257.77 680.944 708.36 826.685 885.016
7260.56 700.457 682.699 881.871 849.647
7263.35 666.695 632.603 840.384 867.567
7266.15 530.657 618.986 880.446 845.47
7268.94 659.605 620.705 815.579 827.447
7271.73 671.853 547.162 786.316 801.39
7274.52 310.027 579.958 802.276 821.966
7277.31 757.992 568.564 877.305 820.893
7280.11 637.672 694.165 783.098 840.244
7282.9 686.832 678.523 860.33 830.768
7285.69 711.065 690.764 848.875 855.758
7288.48 674.396 678.763 858.068 833.51
7291.27 650.827 621.61 793.587 832.504
7294.06 539.607 620.148 845.857 821.755
7296.85 670.01 630.876 825.822 830.984
7299.64 683.012 606.797 821.272 811.329
7302.43 467.37 610.707 786.895 820.948
7305.22 681.738 592.684 854.676 804.361
7308.01 628.944 659.515 771.511 809.845
7310.8 667.861 659.282 803.347 782.51
7313.59 681.04 681.837 772.671 797.52
7316.38 696.609 703.217 816.542 819.19
7319.17 732.003 689.636 868.358 807.844
7321.96 640.297 688.277 738.633 806.491
7324.75 692.532 671.341 812.481 801.017
7327.54 681.193 651.829 851.939 833.491
7330.33 581.763 622.276 836.054 845.929
7333.11 603.872 573.023 849.794 798.655
7335.9 533.434 560.775 710.116 806.474
7338.69 545.019 533.514 859.51 785.894
7341.48 522.089 533.964 788.057 807.972
7344.26 534.783 513.638 776.349 767.072
7347.05 484.041 517.835 736.81 775.708
7349.84 534.68 524.008 813.965 774.304
7352.62 553.305 549.334 772.136 784.609
7355.41 560.016 539.715 767.724 767.231
7358.2 505.824 545.311 761.833 769.733
7360.98 570.093 522.525 779.641 743.656
7363.77 491.658 528.942 689.495 739.498
7366.56 525.074 532.279 749.357 735.769
7369.34 580.103 536.602 768.456 763.574
7372.13 504.628 550.943 772.909 774.927
7374.91 568.097 539.613 783.417 789.871
7377.7 546.115 544.842 813.288 786.912
7380.48 520.314 513.155 764.031 765.564
7383.27 473.035 485.918 719.372 735.471
7386.05 464.405 501.309 723.011 726.51
7388.84 566.488 517.313 737.148 734.808
7391.62 521.045 525.946 744.265 732.353
7394.4 490.305 501.192 715.646 722.847
7397.19 492.226 495.45 708.63 728.845
7399.97 503.82 503.223 762.261 747.567
7402.75 513.622 517.721 771.81 768.228
7405.54 535.721 512.113 770.612 747.047
7408.32 486.995 500.717 698.719 711.816
7411.1 479.433 507.255 666.118 698.36
7413.89 555.335 517.738 730.244 712.835
7416.67 518.446 524.51 742.145 727.888
7419.45 499.748 511.507 711.276 725.186
7422.23 516.326 541.625 722.139 746.209
7425.01 608.8 544.711 805.213 754.435
7427.8 509.008 548.123 735.954 759.31
7430.58 526.561 533.388 736.763 741.527
7433.36 564.596 544.33 751.865 740.851
7436.14 541.832 540.693 733.924 721.877
7438.92 515.65 524.267 679.843 732.865
7441.7 515.319 512.3 784.827 720.902
7444.48 505.932 524.243 698.035 752.694
7447.26 551.48 523.007 775.22 727.652
7450.04 511.609 535.677 709.702 738.942
7452.82 543.942 513.873 731.903 710.236
7455.6 486.068 522.262 689.103 730.419
7458.38 536.776 501.124 770.25 723.961
7461.16 480.527 500.743 712.531 731.287
7463.94 484.924 483.24 711.08 700.43
7466.72 484.27 494.63 677.678 678.035
7469.49 514.695 507.643 645.348 675.118
7472.27 523.965 509.569 702.33 677.291
7475.05 490.047 508.503 684.195 682.235
7477.83 511.497 512.796 660.179 668.811
7480.61 536.844 529.633 662.059 672.383
7483.38 540.558 535.326 694.912 678.659
7486.16 528.576 514.945 679.007 680.901
7488.94 475.702 505.29 668.785 676.393
7491.72 511.593 498.085 681.387 670.855
7494.49 506.96 512.566 662.394 677.229
7497.27 519.146 513.418 687.906 657.826
7500.05 514.147 500.978 623.179 655.747
7502.82 469.642 506.585 656.157 656.738
7505.6 535.965 494.499 690.878 665.614
7508.37 477.889 504.891 649.808 672.782
7511.15 500.82 506.301 677.659 660.677
7513.92 540.196 542.484 654.564 686.781
7516.7 586.435 534.26 728.12 674.068
7519.47 476.15 540.329 639.519 669.143
7522.25 558.403 507.385 639.791 648.941
7525.02 487.602 517.765 667.514 645.755
7527.8 507.292 505.89 629.96 667.345
7530.57 522.775 537.27 704.559 682.643
7533.35 581.742 531.292 713.41 703.356
7536.12 489.359 528.869 692.099 688.916
7538.89 515.507 506.622 661.24 664.637
7541.67 515 515.49 640.572 651.194
7544.44 515.963 514.499 651.772 642.926
7547.21 512.535 499.531 636.433 658.123
7549.99 470.095 486.713 686.163 662.832
7552.76 477.51 480.578 665.901 650.032
7555.53 494.128 508.621 598.031 653.91
7558.3 554.224 530.218 697.799 646.264
7561.07 542.302 534.918 642.961 625.732
7563.85 508.227 527.237 536.436 601.243
7566.62 531.181 512.681 624.334 593.361
7569.39 498.633 509.828 619.312 628.104
7572.16 499.671 509.141 640.666 646.528
7574.93 529.119 506.882 679.605 646.967
7577.7 491.857 500.433 620.63 639.531
7580.47 480.321 491.231 618.357 610.035
7583.24 501.514 494.963 591.119 599.657
7586.01 503.054 457.256 589.494 557.933
7588.78 367.198 373.831 493.187 481.422
7591.55 251.241 279.645 361.584 386.974
7594.32 220.495 215.539 306.151 308.507
7597.09 174.88 151.364 257.785 237.238
7599.86 58.7166 118.372 147.777 186.25
7602.63 121.521 105.786 153.188 152.803
7605.4 137.12 144.306 157.445 170.351
7608.17 174.279 182.051 200.419 207.885
7610.93 234.753 254.385 265.792 274.357
7613.7 354.122 293.154 356.859 322.141
7616.47 290.587 301.468 343.772 341.484
7619.24 259.697 258.485 323.822 337.924
7622 225.172 241.072 346.179 318.753
7624.77 238.348 239.609 286.259 316.323
7627.54 255.308 246.896 316.531 293.202
7630.31 247.031 255.966 276.815 307.097
7633.07 265.56 258.38 327.945 304.518
7635.84 262.548 265.387 308.795 318.41
7638.6 268.054 281.648 318.49 322.879
7641.37 314.343 314.004 341.353 355.804
7644.14 359.614 330.57 407.569 389.608
7646.9 317.754 364.781 419.902 411.83
7649.67 416.974 351.831 408.019 410.293
7652.43 320.764 362.133 402.958 409.299
7655.2 348.66 360.432 416.921 418.159
7657.96 411.872 367.17 434.597 413.429
7660.73 340.979 383.808 388.769 422.97
7663.49 398.572 398.105 445.545 430.407
7666.25 454.763 426.708 456.906 466.956
7669.02 426.789 443.916 498.418 487.639
7671.78 450.195 445.056 507.594 496.888
7674.55 458.186 467.528 484.652 505.053
7677.31 494.205 471.876 522.912 511.153
7680.07 463.237 475.207 525.896 522.141
7682.83 468.179 456.825 517.613 515.302
7685.6 439.058 458.091 502.398 534.227
7688.36 467.035 446.115 582.669 535.159
7691.12 432.253 448.593 520.41 542.669
7693.88 446.489 447.373 524.928 503.771
7696.64 463.378 472 465.976 496.311
7699.41 506.133 487.122 498.029 476.729
7702.17 491.856 496.744 466.181 498.673
7704.93 492.243 471.428 531.808 481.147
7707.69 430.184 452.494 445.452 470.075
7710.45 435.054 434.49 432.966 443.607
7713.21 438.23 439.681 452.404 479.498
7715.97 445.76 461.781 553.124 506.835
7718.73 501.353 459.119 514.978 519.582
7721.49 430.243 466.968 490.645 515.262
7724.25 469.308 446.611 540.164 512.075
7727.01 440.282 442.036 505.416 529.814
7729.77 416.519 431.74 543.863 526.293
7732.53 438.419 435.437 529.601 512.08
7735.29 451.374 438.937 462.775 493.384
7738.04 427.018 434.681 487.775 469.134
7740.8 425.651 424.014 456.852 454.686
7743.56 419.374 422.179 419.432 405.091
7746.32 421.511 412.166 338.99 402.519
7749.08 395.612 439.352 449.136 419.001
7751.83 500.932 422.745 468.876 457.544
7754.59 371.692 417.397 454.62 446.845
7757.35 379.569 387.854 417.038 450.74
7760.1 412.3 395.7 480.561 453.112
7762.86 395.231 430.42 461.737 475.908
7765.62 483.73 419.119 485.427 467.986
7768.37 378.396 427.237 456.794 488.499
7771.13 419.586 428.539 523.276 485.459
7773.89 487.635 448.823 476.307 484.687
7776.64 439.248 449.316 454.478 452.062
7779.4 421.065 431.496 425.4 449.044
7782.15 434.176 430.485 467.255 428.337
7784.91 436.215 440.068 392.358 436.111
7787.66 449.812 448.019 448.72 433.853
7790.42 458.031 457.419 460.481 453.377
7793.17 464.413 463.41 450.931 440.924
7795.92 467.786 450.046 411.36 437.134
7798.68 417.94 448.337 449.113 451.688
7801.43 459.286 440.176 494.59 455.248
7804.18 443.301 433.251 422.041 420.419
7806.94 397.166 432.991 344.625 404.626
7809.69 458.506 421.824 447.212 410.092
7812.44 409.799 449.092 438.439 427.913
7815.19 478.97 446.929 398.088 422.53
7817.95 452.017 461.474 431.064 431.829
7820.7 453.434 440.096 466.336 440.434
7823.45 414.837 433.716 423.903 450.99
7826.2 432.878 419.408 462.733 434.207
7828.95 410.51 426.73 415.986 438.422
7831.7 436.801 424.732 436.547 430.434
7834.46 426.885 437.787 438.768 422.712
7837.21 449.674 451.548 392.82 439.456
7839.96 478.086 448.285 486.779 419.659
7842.71 417.095 440.411 379.379 430.389
7845.46 426.052 413.942 425.009 384.069
7848.21 398.679 406.99 347.821 395.806
7850.96 396.239 406.61 414.587 391.895
7853.71 424.913 405.679 413.276 407.608
7856.46 395.886 408.256 394.961 399.648
7859.2 403.97 390.913 390.708 383.317
7861.95 372.882 408.718 364.282 372.284
7864.7 449.3 407.076 361.861 344.414
7867.45 399.046 432.66 307.1 354.222
7870.2 449.633 417.57 393.705 388.34
7872.95 404.031 404.585 464.216 405.179
7875.69 360.09 397.145 357.617 408.38
7878.44 427.313 411.325 403.309 390.538
7881.19 446.572 420.825 410.69 396.686
7883.93 388.59 416.224 376.06 399.878
7886.68 413.509 401.213 412.885 378.77
7889.43 401.541 403.062 347.365 385.416
7892.17 394.135 408.803 395.999 393.695
7894.92 430.732 406.169 437.72 404.415
7897.67 393.638 413.13 379.526 385.936
7900.41 415.018 405.502 340.562 370.712
7903.16 407.849 426.506 392.048 365.582
7905.9 456.652 419.145 364.135 359.787
7908.65 392.935 403.336 323.179 329.975
7911.39 360.423 378.558 302.612 318.178
7914.14 382.316 370.687 328.743 310.002
7916.88 369.324 377.768 298.651 328.953
7919.62 381.665 381.598 359.465 346.784
7922.37 393.807 384.552 382.236 384.742
7925.11 378.185 372.978 412.523 372.7
7927.85 346.942 356.061 323.339 345.921
7930.6 343.056 369.786 301.901 328.752
7933.34 419.359 393.667 361.016 336.235
7936.08 418.585 405.978 345.789 339.989
7938.82 379.99 390.283 313.161 316.387
7941.57 372.274 382.954 290.21 313.563
7944.31 396.597 388.294 337.317 317.506
7947.05 396.01 402.316 324.991 326.228
7949.79 414.341 404.175 316.377 342.485
7952.53 402.174 398.403 386.087 342.694
7955.27 378.693 390.195 325.616 340.052
7958.02 389.717 393.833 308.453 337.634
7960.76 413.088 387.643 378.832 343.363
7963.5 360.123 375.165 342.804 343.288
7966.24 352.284 364.338 308.227 335.34
7968.98 380.605 376.087 354.989 315.535
7971.72 395.372 406.106 283.39 327.015
7974.46 442.341 403.987 342.668 323.664
7977.19 374.248 418.972 344.935 337.37
7979.93 440.328 394.344 324.507 334.362
7982.67 368.455 392.7 333.646 333.416
7985.41 369.315 381.374 342.096 355.541
7988.15 406.351 390.686 390.881 397.176
7990.89 396.39 407.456 458.55 413.228
7993.63 419.626 381.528 390.252 379.834
7996.36 328.566 362.248 290.7 350.496
7999.1 338.552 366.824 370.535 350.698
8001.84 433.354 378.915 390.858 354.186
8004.57 364.838 409.641 301.165 339.107
8007.31 430.732 394.859 325.299 327.945
8010.05 389.007 389.916 357.372 330.553
8012.78 350.008 363.588 308.989 325.877
8015.52 351.75 359.035 311.269 322.934
8018.26 375.346 375.749 348.544 306.298
8020.99 400.152 396.43 259.08 316.432
8023.73 413.793 391.825 341.671 307.139
8026.46 361.529 361.554 320.665 326.207
8029.2 309.341 358.533 316.285 332.257
8031.93 404.728 373.177 359.82 336.769
8034.67 405.461 390.831 334.201 335.063
8037.4 362.304 374.679 311.166 323.861
8040.13 356.273 366.167 326.217 310.722
8042.87 379.924 377.417 294.781 318.224
8045.6 396.056 393.25 333.673 323.373
8048.33 403.771 379.652 341.664 313.521
8051.07 339.131 359.73 265.225 299.628
8053.8 336.289 356.273 291.995 298.742
8056.53 393.399 374.329 339.005 327.889
8059.26 393.3 374.406 352.667 317.888
8062 336.518 381.256 261.991 309.168
8064.73 413.95 364.54 312.845 286.493
8067.46 343.15 376.589 284.644 297.823
8070.19 372.666 345.726 295.979 282.408
8072.92 321.363 368.118 266.6 293.479
8075.65 410.326 358.712 317.857 284.172
8078.38 344.448 370.301 268.059 293.472
8081.11 356.131 350.253 294.5 285.983
8083.84 350.182 362.635 295.39 296.022
8086.57 381.592 352.656 298.176 273.239
8089.3 326.194 363.451 226.151 277.64
8092.03 382.567 337.856 308.594 256.29
8094.76 304.808 350.746 234.126 283.33
8097.49 364.863 349.351 307.27 293.448
8100.22 378.382 376.418 338.948 298.117
8102.95 386.01 372.887 248.133 281.169
8105.68 354.271 362.942 256.426 263.618
8108.4 348.546 342.555 286.294 272.148
8111.13 324.847 334.009 273.724 296.122
8113.86 328.634 330.338 328.347 298.157
8116.59 337.534 338.182 292.398 302.385
8119.31 348.378 348.68 286.408 293.015
8122.04 360.127 352.143 300.239 274.535
8124.77 347.923 366.662 236.959 290.079
8127.49 391.937 356.121 333.041 284.584
8130.22 328.503 355.345 283.752 303.609
8132.95 345.596 356.138 294.035 284.646
8135.67 394.316 359.402 276.152 280.387
8138.4 338.293 361.445 270.974 269.607
8141.12 351.726 352.755 261.695 281.917
8143.85 368.246 336.531 313.082 275.063
8146.57 289.622 324.244 250.413 255.921
8149.3 314.863 318.855 204.269 221.92
8152.02 352.079 338.522 211.078 223.263
8154.75 348.623 341.91 254.442 246.053
8157.47 325.029 336.292 272.637 273.06
8160.19 335.224 329.859 292.1 263.078
8162.92 329.322 340.457 224.498 257.402
8165.64 356.825 341.814 255.61 235.377
8168.36 339.293 350.776 226.023 245.057
8171.08 356.208 342.093 253.538 227.12
8173.81 330.779 346.685 201.798 236.862
8176.53 353.067 332.528 255.25 232.168
8179.25 313.74 322.311 239.456 250.106
8181.97 300.126 324.174 255.613 258.16
8184.69 358.656 323.251 279.411 262.782
8187.41 310.972 328.924 253.32 258.001
8190.14 317.144 309.729 241.273 234.458
8192.86 301.07 309.867 208.78 227.138
8195.58 311.387 307.241 231.359 225.516
8198.3 309.268 324.584 236.409 229.339
8201.02 353.099 323.981 220.25 217.118
8203.74 309.578 324.02 194.695 222.749
8206.46 309.384 308.069 253.303 233.761
8209.17 305.245 298.626 253.284 240.3
8211.89 281.249 289.431 214.312 224.576
8214.61 281.799 279.34 206.132 217.357
8217.33 274.973 256.795 231.629 209.607
8220.05 213.612 241.879 191.06 216.119
8222.77 237.051 229.939 225.668 208.226
8225.48 239.153 250.838 207.95 218.805
8228.2 276.308 259.095 222.796 221.514
8230.92 261.823 260.427 233.796 221.906
8233.64 243.15 265.747 209.125 225.968
8236.35 292.268 257.248 234.983 215.484
8239.07 236.326 259.146 202.343 227.534
8241.79 248.843 246.273 245.276 225.656
8244.5 253.65 257.394 229.347 229.284
8247.22 269.688 269.756 213.23 230.62
8249.93 285.93 279.75 249.282 227.994
8252.65 283.632 279.531 221.47 250.026
8255.36 269.031 267.579 279.325 247.796
8258.08 250.074 256.407 242.591 236.944
8260.79 250.117 254.817 188.917 211.423
8263.51 264.259 254.84 202.761 204.705
8266.22 250.144 258.755 222.438 215.642
8268.93 261.862 263.519 221.727 219.871
8271.65 278.551 266.143 215.448 213.028
8274.36 258.016 273.868 201.909 202.485
8277.07 285.036 270.771 190.097 191.565
8279.79 269.262 269.025 182.689 182.61
8282.5 252.778 262.741 175.044 190.402
8285.21 266.185 251.826 213.474 197.7
8287.92 236.516 262.435 204.583 211.693
8290.64 284.604 268.954 217.023 190.142
8293.35 285.743 274.388 148.819 181.253
8296.06 252.819 263.945 177.918 180.332
8298.77 253.274 245.398 214.258 197.399
8301.48 230.101 241.732 200.019 213.559
8304.19 241.82 241.421 226.399 205.136
8306.9 252.342 237.309 188.99 195.484
8309.61 217.764 241.761 171.062 175.096
8312.32 255.176 250.653 165.237 187.659
8315.03 279.021 271.235 226.678 196.907
8317.74 279.509 269.724 198.807 209.159
8320.45 250.642 270.171 201.992 191.04
8323.16 280.361 267.378 172.32 189.358
8325.87 271.131 274.094 193.761 198.211
8328.58 270.789 270.825 228.552 204.237
8331.28 270.555 258.121 190.399 208.059
8333.99 233.018 241.264 205.225 189.722
8336.7 220.218 236.131 173.541 171.269
8339.41 255.156 233.024 135.04 172.929
8342.11 223.699 240.73 210.205 169.139
8344.82 243.335 215.897 162.171 150.635
8347.53 180.655 215.41 79.5293 128.911
8350.23 222.239 193.97 145.034 141.965
8352.94 179.017 219.418 201.332 196.925
8355.64 256.997 232.056 244.409 210.317
8358.35 260.152 242.248 185.211 209.499
8361.06 209.593 247.406 198.877 181.549
8363.76 272.472 245.843 160.559 164.828
8366.47 255.465 255.437 135.047 158.408
8369.17 238.375 249.829 179.617 167.11
8371.87 255.646 239.532 186.665 171.207
8374.58 224.574 258.344 147.338 182.07
8377.28 294.811 260.523 212.206 184.848
8379.99 262.184 274.624 195 199.376
8382.69 266.878 254.752 190.921 174.249
8385.39 235.194 251.19 136.826 170.243
8388.09 251.499 239.853 182.98 152.388
8390.8 232.867 253.265 137.358 163.04
8393.5 275.43 275.039 168.782 149.017
8396.2 316.819 295.365 140.913 159.555
8398.9 293.845 294.661 168.97 175.351
8401.6 273.317 267.91 216.171 178.455
8404.31 236.568 250.712 150.223 185.772
8407.01 242.251 253.064 190.92 176.906
8409.71 280.372 259.613 189.575 191.535
8412.41 256.215 261.713 194.109 178.429
8415.11 248.55 247.591 151.603 183.699
8417.81 238.009 243.479 205.384 176.281
8420.51 243.879 237.505 171.857 170.83
8423.21 230.628 248.12 135.25 143.734
8425.91 269.852 257.478 124.095 118.807
8428.61 271.954 268.366 97.0776 95.276
8431.3 263.292 259.713 64.655 97.2541
8434 243.892 261.88 130.03 122.631
8436.7 278.454 244.632 173.208 155.24
8439.4 211.548 242.546 162.481 168.874
8442.1 237.636 237.197 170.932 176.817
8444.79 262.408 248.211 197.04 155.459
8447.49 244.59 248.142 98.4065 165.797
8450.19 237.427 253.101 201.946 153.531
8452.88 277.285 245.863 160.24 167.98
8455.58 222.877 249.086 141.753 154.185
8458.28 247.096 238.899 160.562 150.1
8460.97 246.724 264.24 147.986 142.272
8463.67 298.901 279.623 118.268 127.802
8466.36 293.243 255.502 117.152 134.334
8469.06 174.361 252.338 167.583 152.621
8471.75 289.409 254.479 173.129 162.458
8474.45 299.666 274.088 146.663 149.638
8477.14 233.189 260.937 129.122 148.524
8479.84 249.957 257.227 169.786 160.591
8482.53 288.536 275.582 182.867 170.979
8485.22 288.252 291.873 160.286 164.032
8487.92 298.83 284.445 148.944 166.602
8490.61 266.253 262.455 190.576 149.783
8493.3 222.284 253.594 109.828 147.144
8496 272.245 226.15 141.027 122.84
8498.69 183.922 233.55 117.664 108.3
8501.38 244.482 230.78 66.2095 111.568
8504.07 263.935 255.347 150.829 123.233
8506.76 257.623 261.17 152.66 160.232
8509.45 261.952 259.552 177.207 155.536
8512.14 259.081 250.117 136.74 145.547
8514.84 229.317 244.317 122.694 137.832
8517.53 244.552 253.951 154.062 138.725
8520.22 287.982 265.063 139.418 149.017
8522.91 262.654 268.061 153.572 144.696
8525.6 253.547 262.881 141.097 142.196
8528.28 272.443 255.399 131.92 138.404
8530.97 240.207 247.378 142.194 144.529
8533.66 229.485 236.618 159.473 153.004
8536.35 240.163 231.473 157.344 152.652
8539.04 224.771 207.402 141.139 139.599
8541.73 157.273 195.08 120.313 123.026
8544.41 203.196 190.511 107.626 115.858
8547.1 211.064 215.399 119.636 109.328
8549.79 231.938 230.782 100.722 111.7
8552.48 249.344 250.85 114.743 118.934
8555.16 271.267 256.949 141.338 123.139
8557.85 250.235 263.456 113.335 127.847
8560.54 268.865 254.415 128.87 132.612
8563.22 244.144 257.881 155.631 150.837
8565.91 260.634 257.587 168.012 153.368
8568.59 267.984 262.962 136.461 145.731
8571.28 260.268 262.538 132.721 139.408
8573.96 259.362 276.859 149.042 167.965
8576.65 310.947 269.567 222.131 183.807
8579.33 238.393 272.654 180.247 185.655
8582.02 268.622 252.382 154.587 154.948
8584.7 250.13 275.676 130.009 134.489
8587.38 308.276 266.109 118.871 127.436
8590.07 239.92 260.128 133.428 129.221
8592.75 232.186 235.705 135.366 129.019
8595.43 235.01 242.701 118.263 145.078
8598.11 260.906 259.989 181.607 162.647
8600.8 284.051 261.995 188.07 174.833
8603.48 241.028 281.325 154.821 155.13
8606.16 318.897 273.141 122.5 131.319
8608.84 259.499 283.556 116.636 111.08
8611.52 272.274 254.77 94.1038 105.204
8614.2 232.539 252.299 104.873 119.542
8616.88 252.085 254.204 159.648 175.268
8619.56 277.99 269.023 261.282 179.448
8622.24 276.994 284.262 117.415 171.02
8624.92 297.802 282.264 134.363 129.434
8627.6 271.995 284.449 136.524 105.802
8630.28 283.55 268.591 46.5189 83.2767
8632.96 250.227 270.824 66.7874 71.5048
8635.64 278.696 260.124 101.208 85.0409
8638.32 251.449 270.315 87.1274 101.591
8641 280.8 269.837 116.436 108.833
8643.67 277.262 264.872 122.936 133.697
8646.35 236.554 257.065 161.719 134.246
8649.03 257.377 260.734 118.085 127.546
8651.71 288.271 272.583 102.835 110.78
8654.38 272.102 265.414 111.422 103.165
8657.06 235.869 233.135 95.2375 88.5793
8659.74 191.434 198.24 59.0784 82.8603
8662.41 167.416 206.486 94.2649 73.1737
8665.09 260.608 216.176 66.178 101.72
8667.76 220.504 237.96 144.718 86.8944
8670.44 232.768 245.606 49.7877 99.4562
8673.11 283.546 253.502 103.863 94.7147
8675.79 244.192 259.038 130.493 110.676
8678.46 249.376 261.767 97.6706 114.616
8681.14 291.733 276.331 115.686 96.0014
8683.81 287.883 286.028 74.648 100.393
8686.48 278.47 278.603 110.847 92.1433
8689.16 269.455 278.345 90.9352 119.832
8691.83 287.108 283.344 157.714 115.45
8694.5 293.468 282.144 97.6997 121.236
8697.17 265.856 289.735 108.295 92.5094
8699.85 309.879 271.029 71.5334 85.9099
8702.52 237.352 284.778 77.9012 83.4657
8705.19 307.103 265.97 100.962 102.666
8707.86 253.454 276.985 129.134 126.651
8710.53 270.398 254.689 149.856 132.554
8713.2 240.216 265.17 118.673 114.786
8715.87 284.896 257.038 75.8281 106.705
8718.54 246.001 274.076 125.613 114.481
8721.21 291.331 263.868 142.002 116.432
8723.88 254.272 270.696 81.6828 108.354
8726.55 266.486 267.072 101.378 99.2844
8729.22 280.458 274.521 114.792 107.166
8731.89 276.62 272.449 105.327 116.197
8734.56 260.27 271.94 128.472 115.677
8737.23 278.929 274.219 113.231 122.107
8739.9 283.459 278.13 124.619 107.583
8742.56 272 265.702 84.9004 103.353
8745.23 241.646 264.253 100.539 98.1698
8747.9 279.112 266.685 109.07 106.415
8750.56 279.296 266.44 109.635 88.4128
8753.23 240.914 261.748 46.5341 82.7285
8755.9 265.033 245.813 92.0168 39.0903
8758.56 231.492 265.104 -21.28 33.9113
8761.23 298.787 273.878 30.9973 34.0124
8763.9 291.354 296.174 92.3199 74.0285
8766.56 298.382 289.661 98.7684 90.91
8769.23 279.248 280.008 81.6418 84.6804
8771.89 262.393 277.077 73.6309 62.0561
8774.55 289.59 272.362 30.8956 50.0674
8777.22 265.104 260.72 45.6757 -6.93918
8779.88 227.467 260.349 -97.3889 -51.7411
8782.55 288.476 247.097 -103.51 -60.2032
8785.21 225.348 260.93 20.2895 -0.688629
8787.87 268.967 246.576 81.1549 50.3726
8790.53 245.413 249.317 49.6734 57.4732
8793.2 233.57 248.626 41.5912 56.9115
8795.86 266.896 255.719 79.4699 67.5968
8798.52 266.693 272 81.7292 80.3656
8801.18 282.411 264.043 79.8978 66.8569
8803.84 243.026 262.749 38.9437 55.7674
8806.51 262.81 247.962 48.4606 57.7308
8809.17 238.048 249.406 85.7881 65.0225
8811.83 247.36 247.397 60.8188 58.3208
8814.49 256.782 260.893 28.3554 49.2163
8817.15 278.536 272.226 58.4747 43.3241
8819.81 281.36 293.152 43.1422 52.2256
8822.47 319.561 298.198 55.0599 -15.3651
8825.12 293.674 314.846 -144.297 -75.6583
8827.78 331.303 261.997 -137.738 -193.392
8830.44 161.014 250.403 -298.142 -185.24
8833.1 258.892 229.471 -119.84 -165.574
8835.76 268.507 252.333 -78.7397 -59.9241
8838.42 229.599 241.681 18.8071 -11.6653
8841.07 226.938 238.611 24.9368 30.0378
8843.73 259.296 266.301 46.3695 34.4048
8846.39 312.668 305.96 31.908 21.7992
8849.04 345.917 321.372 -12.8798 4.14405
8851.7 305.53 305.929 -6.59601 -9.91453
8854.36 266.34 275.604 -10.2678 17.7635
8857.01 254.943 262.609 70.1544 35.1799
8859.67 266.545 255.581 45.6531 36.7681
8862.32 245.254 265.511 -5.50323 18.0362
8864.98 284.734 272.791 13.9589 -18.374
8867.63 288.384 275.554 -63.5777 -38.9462
8870.29 253.544 272.406 -67.2198 -58.981
8872.94 275.288 249.641 -46.1454 -47.3036
8875.59 220.09 253.92 -28.5456 -16.4252
8878.25 266.383 240.527 25.4155 -19.5378
8880.9 235.108 277.201 -55.4833 -12.3841
8883.55 330.113 279.352 -7.08456 -53.0733
8886.2 272.836 289.309 -96.6522 -99.8385
8888.86 264.977 263.081 -195.779 -101.567
8891.51 251.431 273.127 -12.271 -24.8065
8894.16 302.975 273.802 133.63 44.9962
8896.81 267.002 288.553 13.6293 64.5476
8899.46 295.682 279.815 46.3831 28.2526
8902.11 276.76 289.176 24.7453 0.604557
8904.76 295.086 285.815 -69.3147 -35.6914
8907.41 285.599 270.792 -62.5047 -19.7427
8910.06 231.692 258.141 72.5912 7.53114
8912.71 257.132 236.262 12.5069 26.5198
8915.36 219.961 250.552 -5.53879 -19.7489
8918.01 274.561 254.443 -66.2149 -51.9175
8920.66 268.808 271.413 -83.9988 -104.853
8923.31 270.869 256.77 -164.346 -71.7711
8925.96 230.633 236.891 33.0311 -7.87559
8928.61 209.173 243.735 107.688 71.3881
8931.25 291.398 252.105 73.4456 68.7649
8933.9 255.744 276.918 25.1614 38.1351
8936.55 283.612 273.52 15.7982 11.4116
8939.19 281.204 275.138 -6.72476 -11.9991
8941.84 260.599 268.774 -45.0706 -19.3409
8944.49 264.521 256.234 -6.22745 -21.4975
8947.13 243.582 254.275 -13.1946 -19.4149
8949.78 254.721 253.967 -38.8228 -31.6611
8952.42 263.598 254.254 -42.966 -30.1018
8955.07 244.443 249.08 -8.51676 -26.6012
8957.71 239.2 257.4 -28.3207 -23.577
8960.36 288.559 239.047 -33.8936 -15.0095
8963 189.382 227.143 17.1859 0.217198
8965.65 203.488 200.108 17.3593 12.1142
8968.29 207.455 222.579 1.79744 19.8172
8970.93 256.794 234.164 40.2948 7.10412
8973.58 238.242 247.958 -20.7799 4.50512
8976.22 248.839 246.183 -5.99958 -10.9721
8978.86 251.467 264.783 -6.13689 -16.1615
8981.5 294.043 268.867 -36.3482 -27.6208
8984.15 261.089 258.386 -40.3775 -30.6189
8986.79 220.026 236.929 -15.1311 -25.0784
8989.43 229.673 231.46 -19.7265 -12.4987
8992.07 244.681 236.867 -2.63851 -42.1753
8994.71 236.248 241.676 -104.161 -46.6336
8997.35 244.1 229.535 -33.1014 -52.3211
8999.99 208.258 231.853 -19.7011 -32.2699
9002.63 243.201 232.843 -44.0073 -42.4054
9005.27 247.068 252.409 -63.5077 -42.2782
9007.91 266.958 245.138 -19.3195 -45.3722
9010.55 221.388 236.084 -53.2893 -42.8276
9013.19 219.905 222.532 -55.874 -53.3902
9015.82 226.302 227.293 -51.0072 -42.0029
9018.46 235.671 240.202 -19.1276 -45.698
9021.1 258.632 238.962 -66.9591 -57.0533
9023.74 222.585 243.361 -85.0731 -75.5381
9026.37 248.867 244.906 -74.582 -81.6793
9029.01 263.266 255.355 -85.3827 -64.9908
9031.65 253.931 253.142 -35.0077 -52.5236
9034.28 242.23 260.102 -37.1804 -37.9015
9036.92 284.145 264.551 -41.5165 -47.6099
9039.55 267.279 254.541 -64.1328 -47.306
9042.19 212.199 250.789 -36.2686 -62.7811
9044.83 272.891 253.008 -87.9418 -78.225
9047.46 273.935 266.6 -110.465 -93.1585
9050.09 252.974 253.662 -81.0692 -100.573
9052.73 234.077 235.693 -110.185 -102.708
9055.36 220.029 208.919 -116.871 -116.789
9058 172.65 184.581 -123.312 -103.176
9060.63 161.063 181.017 -69.3463 -98.9319
9063.26 209.34 188.76 -104.137 -83.2491
9065.89 195.879 188.069 -76.2636 -73.7133
9068.53 158.989 183.344 -40.739 -55.0491
9071.16 195.164 171.418 -48.1447 -46.3723
9073.79 160.102 148.115 -50.233 -19.5072
9076.42 89.0802 83.0607 39.8562 -3.45894
