wavelength spectrum_sum 3smoothed_sum spectrum_optimal 3smoothed_optimal
3513.73 12.59 13.576 20.8498 20.3046
3516.65 28.1379 22.5256 40.0639 26.7202
3519.57 26.8488 29.8222 19.247 30.5007
3522.48 34.48 34.6742 32.1914 30.329
3525.4 42.6937 43.4461 39.5486 37.162
3528.31 53.1645 48.4978 39.7459 36.6185
3531.23 49.6352 49.0549 30.5608 36.7468
3534.14 44.365 49.1329 39.9336 34.927
3537.06 53.3986 44.3434 34.2865 33.5428
3539.97 35.2667 47.4229 26.4084 36.8883
3542.89 53.6035 45.1959 49.9701 41.502
3545.8 46.7176 57.6523 48.1274 55.3713
3548.72 72.6357 52.6494 68.0163 51.8723
3551.63 38.5948 52.337 39.4734 50.8373
3554.55 45.7806 46.1742 45.0222 49.1621
3557.46 54.1473 53.4643 62.9907 58.0705
3560.38 60.465 53.6099 66.1986 53.9602
3563.3 46.2174 48.7299 32.6911 49.4392
3566.21 39.5074 44.8794 49.4279 40.7746
3569.13 48.9135 40.0714 40.205 45.4572
3572.04 31.7932 44.4819 46.7387 42.4483
3574.96 52.7391 42.274 40.4012 47.6031
3577.87 42.2897 46.1124 55.6693 44.4851
3580.79 43.3085 39.7132 37.3848 47.3366
3583.7 33.5414 37.3669 48.9558 41.4781
3586.62 35.2508 42.137 38.0937 48.0506
3589.53 57.6188 46.0333 57.1023 47.1874
3592.45 45.2304 58.6473 46.3661 57.1772
3595.36 73.0927 56.8547 68.0632 52.7438
3598.28 52.2411 65.379 43.8021 60.8921
3601.19 70.8032 61.6265 70.8111 58.0753
3604.11 61.8353 62.3953 59.6127 61.0413
3607.02 54.5474 62.2254 52.7001 58.6808
3609.94 70.2935 61.0765 63.7297 59.113
3612.85 58.3885 61.8568 60.9092 55.9198
3615.77 56.8883 54.1294 43.1205 53.5079
3618.68 47.1115 56.5237 56.4941 54.5741
3621.6 65.5714 63.4484 64.1076 66.6927
3624.51 77.6624 69.5202 79.4763 64.1586
3627.43 65.3267 74.4856 48.8917 71.0628
3630.34 80.4676 74.2049 84.8202 71.6205
3633.26 76.8203 75.328 81.1497 79.8499
3636.17 68.6961 73.1314 73.5799 77.3888
3639.09 73.8777 70.5899 77.4369 75.7354
3642 69.1961 67.8497 76.1894 73.6409
3644.92 60.4753 72.9613 67.2964 76.4416
3647.83 89.2124 78.4777 85.8388 81.2622
3650.75 85.7453 89.8121 90.6513 91.6809
3653.66 94.4785 89.9787 98.5527 89.1898
3656.58 89.7124 90.561 78.3654 90.9025
3659.49 87.4921 96.2363 95.7894 90.003
3662.41 111.504 99.9258 95.8541 93.4413
3665.32 100.781 104.165 88.6805 99.5214
3668.24 100.21 101.111 114.03 101.452
3671.15 102.343 103.459 101.646 111.912
3674.07 107.824 102.41 120.059 104.114
3676.98 97.0636 99.7253 90.6355 101.883
3679.9 94.2886 97.8023 94.9549 93.3935
3682.81 102.055 93.2702 94.5902 87.4294
3685.73 83.4671 93.072 72.7432 88.5184
3688.64 93.6941 98.0107 98.2219 92.0585
3691.56 116.871 112.069 105.21 107.572
3694.47 125.641 116.966 119.284 111.465
3697.38 108.386 113.1 109.899 107.05
3700.3 105.272 107.052 91.9661 104.083
3703.21 107.498 106.98 110.382 98.4452
3706.13 108.172 113.832 92.9873 106.802
3709.04 125.827 112.637 117.037 105.975
3711.96 103.912 116.201 107.9 107.172
3714.87 118.864 110.334 96.5797 97.5123
3717.79 108.226 112.721 88.0569 93.3284
3720.7 111.072 112.609 95.3487 100.352
3723.62 118.53 118.817 117.65 115.229
3726.53 126.85 114.948 132.689 122.72
3729.45 99.4648 100.265 117.82 113.377
3732.36 74.4804 92.2071 89.6221 101.606
3735.27 102.676 92.227 97.3748 104.26
3738.19 99.5243 106.817 125.783 117.425
3741.1 118.251 108.514 129.118 126.024
3744.02 107.768 108.097 123.172 124.336
3746.93 98.2713 97.8491 120.719 108.981
3749.85 87.5083 103.573 83.0518 107.383
3752.76 124.939 114.66 118.377 110.212
3755.68 131.534 120.539 129.208 117.844
3758.59 105.144 118.397 105.948 117.306
3761.5 118.513 118.859 116.763 115.802
3764.42 132.919 129.727 124.696 123.53
3767.33 137.749 134.091 129.13 133.418
3770.25 131.604 141.402 146.429 144.453
3773.16 154.853 148.661 157.8 154.271
3776.08 159.525 161.36 158.582 163.484
3778.99 169.702 167.717 174.069 171.025
3781.9 173.925 169.771 180.422 180.765
3784.82 165.687 161.553 187.802 172.953
3787.73 145.047 152.601 150.634 161.009
3790.65 147.068 140.264 144.591 146.067
3793.56 128.677 142.441 142.976 155.107
3796.48 151.577 151.226 177.754 167.714
3799.39 173.425 161.722 182.413 175.502
3802.3 160.165 163.954 166.34 176.046
3805.22 158.273 157.792 179.385 165.221
3808.13 154.937 153.953 149.938 158.156
3811.05 148.649 139.056 145.145 136.191
3813.96 113.58 134.833 113.49 138.491
3816.87 142.269 134.904 156.838 148.269
3819.79 148.862 139.345 174.478 148.552
3822.7 126.904 127.767 114.34 138.232
3825.62 107.534 111.594 125.879 117.257
3828.53 100.344 105.081 111.553 115.164
3831.44 107.364 98.1833 108.061 104.926
3834.36 86.8418 99.7906 95.1632 99.5163
3837.27 105.166 107.206 95.3243 114.175
3840.18 129.612 128.081 152.037 131.074
3843.1 149.466 139.505 145.861 144.327
3846.01 139.438 150.192 135.082 144.115
3848.93 161.673 145.575 151.403 143.402
3851.84 135.614 138.616 143.721 137.523
3854.75 118.56 132.47 117.444 138.549
3857.67 143.235 145.033 154.482 145.631
3860.58 173.304 156.294 164.968 163.117
3863.49 152.342 156.714 169.902 161.802
3866.41 144.496 141.64 150.535 150.334
3869.32 128.081 132.966 130.566 137.034
3872.24 126.32 140.141 130.002 148.808
3875.15 166.021 145.951 185.856 159.216
3878.06 145.511 154.01 161.791 170.683
3880.98 150.497 150.766 164.404 165.165
3883.89 156.291 156.1 169.299 168.788
3886.8 161.513 170.683 172.661 177.921
3889.72 194.245 191.811 191.802 194.053
3892.63 219.676 206.593 217.696 204.69
3895.54 205.859 202.419 204.573 204.317
3898.46 181.721 198.681 190.683 205.018
3901.37 208.462 208.751 219.797 217.356
3904.28 236.071 217.276 241.589 226.196
3907.2 207.295 229.915 217.202 235.889
3910.11 246.378 230.625 248.874 239.675
3913.02 238.202 233.594 252.948 247.793
3915.94 216.201 222.018 241.557 243.117
3918.85 211.652 212.419 234.846 236.575
3921.76 209.404 204.004 233.323 222.808
3924.68 190.956 181.292 200.254 196.797
3927.59 143.515 157.083 156.815 168.99
3930.5 136.778 132.849 149.901 138.044
3933.41 118.255 127.985 107.417 128.576
3936.33 128.922 139.227 128.411 132.074
3939.24 170.503 164.048 160.395 165.332
3942.15 192.72 186.129 207.189 191.494
3945.07 195.163 197.12 206.899 213.268
3947.98 203.476 209.83 225.716 222.649
3950.89 230.85 225.945 235.332 241.657
3953.81 243.51 240.352 263.923 248.689
3956.72 246.696 241.216 246.813 250.91
3959.63 233.443 228.609 241.993 237.835
3962.54 205.687 204.359 224.697 214.863
3965.46 173.947 182.743 177.898 196.487
3968.37 168.596 176.194 186.865 183.511
3971.28 186.038 194.74 185.771 206.497
3974.2 229.587 217.217 246.856 224.182
3977.11 236.027 247.489 239.918 253.625
3980.02 276.854 274.953 274.101 275.338
3982.93 311.979 309.773 311.995 314.481
3985.85 340.487 332.507 357.348 337.428
3988.76 345.053 343.507 342.94 357.077
3991.67 344.979 347.292 370.944 352.169
3994.58 351.842 345.072 342.624 351.813
3997.5 338.395 370.026 341.872 367.861
4000.41 419.841 375.436 419.087 376.673
4003.32 368.07 396.394 369.059 405.781
4006.23 401.272 391.369 429.196 401.389
4009.15 404.764 411.378 405.913 431.885
4012.06 428.098 413.841 460.547 431.921
4014.97 408.661 423.489 429.303 452.776
4017.88 433.707 422.705 468.478 451.898
4020.8 425.747 428.753 457.913 452.955
4023.71 426.806 415.452 432.475 434.894
4026.62 393.802 410.751 414.295 424.567
4029.53 411.646 421.566 426.93 446.97
4032.44 459.251 434.325 499.685 472.816
4035.36 432.077 446.688 491.833 485.944
4038.27 448.736 432.688 466.312 475.949
4041.18 417.25 424.306 469.703 464.475
4044.09 406.93 409.181 457.411 455.798
4047 403.363 410.837 440.28 444.787
4049.92 422.217 432.962 436.671 460.578
4052.83 473.307 438.374 504.782 464.784
4055.74 419.597 428.744 452.899 455.977
4058.65 393.327 412.352 410.25 447.647
4061.56 424.132 410.411 479.794 441.798
4064.48 413.773 417.596 435.349 450.035
4067.39 414.882 428.311 434.961 454.47
4070.3 456.279 427.447 493.099 464.897
4073.21 411.181 441.109 466.633 479.615
4076.12 455.867 438.609 479.113 477.152
4079.03 448.78 462.29 485.709 492.275
4081.95 482.221 472.786 512.003 504.9
4084.86 487.358 491.835 516.987 525.118
4087.77 505.927 495.185 546.363 527.952
4090.68 492.27 504.776 520.506 535.744
4093.59 516.132 479.282 540.363 509.564
4096.5 429.443 476.327 467.824 504.181
4099.42 483.406 457.166 504.357 487.875
4102.33 458.648 479.474 491.444 513.391
4105.24 496.367 471.382 544.371 517.056
4108.15 459.132 505.418 515.352 552.714
4111.06 560.754 511.802 598.419 547.901
4113.97 515.52 549.22 529.93 585.226
4116.88 571.385 537.65 627.329 567.664
4119.79 526.045 541.584 545.732 576.798
4122.71 527.322 525.486 557.332 556.613
4125.62 523.092 519.063 566.775 546.961
4128.53 506.774 518.824 516.776 556.73
4131.44 526.608 528.901 586.639 569.901
4134.35 553.322 548.506 606.287 604.055
4137.26 565.588 563.815 619.24 607.357
4140.17 572.535 539.993 596.544 580.791
4143.08 481.857 539.474 526.589 582.198
4145.99 564.03 534.334 623.462 588.848
4148.91 557.115 555.95 616.492 607.253
4151.82 546.706 560.567 581.805 609.925
4154.73 577.88 569.994 631.478 611.069
4157.64 585.397 568.471 619.926 624.555
4160.55 542.136 567.226 622.262 619.405
4163.46 574.144 562.749 616.029 629.398
4166.37 571.966 565.901 649.902 631.999
4169.28 551.592 565.28 630.065 630.334
4172.19 572.281 576.076 611.036 641.063
4175.1 604.354 581.917 682.088 638.841
4178.01 569.116 584.568 623.399 641.32
4180.92 580.235 579.511 618.473 626.944
4183.83 589.182 591.975 638.959 647.194
4186.74 606.508 570.964 684.15 628.441
4189.65 517.203 580.845 562.215 641.083
4192.56 618.826 564.072 676.884 608.039
4195.47 556.189 577.572 585.017 628.764
4198.38 557.701 554.737 624.392 612.816
4201.3 550.32 563.862 629.038 636.297
4204.21 583.565 578.594 655.46 643.28
4207.12 601.898 591.98 645.342 636.86
4210.03 590.478 601.013 609.777 647.924
4212.94 610.662 597.72 688.654 661.186
4215.85 592.02 611.458 685.128 686.423
4218.76 631.693 606.889 685.488 677.911
4221.67 596.955 613.184 663.117 676.763
4224.58 610.904 610.431 681.684 673.523
4227.49 623.435 608.414 675.766 675.86
4230.4 590.903 608.834 670.129 686.044
4233.31 612.164 597.019 712.238 685.607
4236.22 587.988 607.639 674.453 701.089
4239.13 622.766 616.587 716.576 705.007
4242.03 639.007 614.917 723.992 687.987
4244.94 582.978 614.537 623.391 674.908
4247.85 621.626 604.512 677.341 654.331
4250.76 608.932 616.923 662.261 677.227
4253.67 620.211 622.443 692.08 688.525
4256.58 638.185 627.342 711.234 711.635
4259.49 623.63 634.732 731.591 720.556
4262.4 642.38 627.611 718.842 700.836
4265.31 616.823 608.092 652.075 660.398
4268.22 565.075 587.813 610.277 643.173
4271.13 581.541 587.516 667.169 645.966
4274.04 615.932 549.766 660.452 664.799
4276.95 451.826 522.14 666.776 673.462
4279.86 498.662 485.408 693.157 680.221
4282.77 505.735 498.568 680.73 687.497
4285.68 491.306 482.007 688.606 670.94
4288.59 448.981 466.044 643.486 665.716
4291.49 457.845 463.394 665.057 660.311
4294.4 483.356 441.294 672.39 630.207
4297.31 382.681 422.428 553.174 593.193
4300.22 401.247 407.649 554.016 566.525
4303.13 439.02 394.925 592.386 541.104
4306.04 344.508 388.68 476.909 540.425
4308.95 382.511 384.952 551.979 542.122
4311.86 427.836 440.215 597.477 616.775
4314.77 510.297 490.831 700.869 682.317
4317.67 534.359 510.25 748.605 712.931
4320.58 486.094 504.64 689.317 699.016
4323.49 493.466 505.719 659.124 702.926
4326.4 537.597 533.979 760.337 741.122
4329.31 570.873 564.395 803.906 797.342
4332.22 584.714 572.271 827.782 809.691
4335.13 561.224 568.937 797.384 796.74
4338.03 560.874 569.491 765.056 797.984
4340.94 586.375 583.65 831.513 810.621
4343.85 603.702 603.887 835.295 844.656
4346.76 621.583 604.729 867.161 836.176
4349.67 588.901 603.715 806.071 836.841
4352.57 600.661 605.738 837.29 834.475
4355.48 627.653 626.221 860.065 867.336
4358.39 650.35 647.987 904.653 888.06
4361.3 665.959 643.096 899.461 893.747
4364.21 612.977 640.453 877.125 898.178
4367.12 642.423 628.544 917.947 893.171
4370.02 630.232 630.694 884.44 888.947
4372.93 619.427 616.103 864.454 869.452
4375.84 598.649 613.937 859.462 875.357
4378.75 623.734 588.201 902.155 838.231
4381.65 542.22 597.051 753.076 848.088
4384.56 625.198 584.941 889.033 816.733
4387.47 587.407 607.17 808.09 845.276
4390.38 608.906 602.549 838.704 827.364
4393.28 611.335 628.531 835.299 866.173
4396.19 665.351 629.771 924.517 876.324
4399.1 612.627 635.601 869.156 894.36
4402.01 628.825 613.535 889.408 863.44
4404.91 599.153 613.468 831.755 867.631
4407.82 612.427 623.981 881.729 893.384
4410.73 660.362 639.73 966.666 912.775
4413.64 646.401 657.754 889.929 937.236
4416.54 666.499 654.985 955.112 937.459
4419.45 652.057 675.656 967.334 975.827
4422.36 708.413 688.601 1005.03 981.324
4425.27 705.333 694.37 971.605 984.228
4428.17 669.366 691.034 976.044 981.184
4431.08 698.402 692.445 995.904 999.399
4433.99 709.567 727.119 1026.25 1039.25
4436.89 773.39 746.855 1095.59 1070.87
4439.8 757.608 737.148 1090.76 1049.48
4442.71 680.447 725.154 962.081 1040.02
4445.61 737.407 716.635 1067.22 1018.05
4448.52 732.051 729.765 1024.85 1030.38
4451.43 719.835 733.349 999.055 1024.55
4454.33 748.161 707.922 1049.75 993.798
4457.24 655.77 697.711 932.584 986.281
4460.15 689.203 697.488 976.505 980.98
4463.05 747.491 717.321 1033.85 1010.12
4465.96 715.269 736.289 1020.01 1042.08
4468.87 746.106 744.174 1072.39 1057.14
4471.77 771.146 766.07 1079.02 1088.21
4474.68 780.958 789.634 1113.23 1117.55
4477.58 816.799 809.906 1160.39 1142.03
4480.49 831.961 831.949 1152.47 1161.78
4483.4 847.087 829.906 1172.48 1155.67
4486.3 810.67 810.816 1142.04 1131.28
4489.21 774.692 797.222 1079.32 1122.01
4492.11 806.303 797.906 1144.66 1132.3
4495.02 812.724 832.637 1172.9 1181.72
4497.93 878.882 856.052 1227.61 1206.33
4500.83 876.549 880.712 1218.5 1235.9
4503.74 886.704 876.051 1261.58 1235.64
4506.64 864.899 877.834 1226.83 1236.15
4509.55 881.899 874.917 1220.03 1228.04
4512.45 877.954 862.672 1237.26 1211.34
4515.36 828.163 862.663 1176.74 1209.88
4518.27 881.872 847.662 1215.65 1195.91
4521.17 832.949 841.84 1195.35 1177.8
4524.08 810.697 815.491 1122.39 1152.59
4526.98 802.827 823.179 1140.03 1152.53
4529.89 856.012 842.496 1195.17 1185.72
4532.79 868.65 850.916 1221.96 1197.22
4535.7 828.087 846.835 1174.52 1198.84
4538.6 843.767 835.423 1200.03 1179.04
4541.51 834.415 852.954 1162.59 1200.66
4544.41 880.681 857.444 1239.37 1200.55
4547.32 857.235 852.882 1199.69 1197.43
4550.22 820.73 858.296 1153.23 1207.96
4553.13 896.923 877.798 1270.95 1234.46
4556.03 915.742 909.175 1279.19 1282.27
4558.94 914.861 900.765 1296.66 1265.09
4561.84 871.693 902.722 1219.42 1265.64
4564.75 921.613 881.286 1280.84 1230.17
4567.65 850.553 896.916 1190.26 1247.74
4570.56 918.582 898.239 1272.12 1249.54
4573.46 925.582 916.534 1286.25 1271.97
4576.37 905.437 931.259 1257.54 1292.86
4579.27 962.757 939.35 1334.8 1313.85
4582.17 949.857 948.857 1349.22 1337.85
4585.08 933.956 942.638 1329.52 1332.37
4587.98 944.101 924.312 1318.36 1305.26
4590.89 894.878 909.35 1267.89 1289.8
4593.79 889.07 899.063 1283.14 1273.29
4596.69 913.241 918.836 1268.83 1294.69
4599.6 954.198 947.023 1332.11 1316.96
4602.5 973.629 960.492 1349.94 1346.34
4605.41 953.65 966.156 1356.98 1354.58
4608.31 971.188 979.38 1356.81 1368.63
4611.21 1013.3 990.01 1392.11 1383.84
4614.12 985.539 996.204 1402.6 1391.62
4617.02 989.771 1006.8 1380.16 1407.94
4619.93 1045.08 1001.55 1441.06 1386.91
4622.83 969.81 1019.46 1339.5 1415.97
4625.73 1043.48 997.105 1467.35 1394.52
4628.64 978.029 1018.63 1376.7 1430.28
4631.54 1034.38 988.629 1446.78 1388.53
4634.44 953.478 1004.8 1342.1 1409.7
4637.35 1026.53 976.755 1440.23 1367.47
4640.25 950.255 989.975 1320.07 1387.1
4643.15 993.136 984.884 1401 1379.89
4646.06 1011.26 995.051 1418.6 1406.27
4648.96 980.755 997.662 1399.21 1411.85
4651.86 1000.97 1005.72 1417.76 1422.43
4654.77 1035.43 1003.77 1450.34 1412.2
4657.67 974.903 1023.33 1368.51 1440.12
4660.57 1059.66 992.803 1501.5 1407.15
4663.47 943.849 990.112 1351.44 1402.98
4666.38 966.828 968.867 1356.01 1368.9
4669.28 995.925 986.093 1399.26 1391.54
4672.18 995.525 999.046 1419.35 1405.34
4675.08 1005.69 1008.96 1397.4 1417.54
4677.99 1025.66 1013.46 1435.88 1409.46
4680.89 1009.03 1006.63 1395.1 1404.39
4683.79 985.206 992.769 1382.18 1390.75
4686.69 984.071 1005.81 1394.96 1418.49
4689.6 1048.17 1016.7 1478.33 1447.82
4692.5 1017.86 1031.47 1470.17 1470.23
4695.4 1028.39 1008.67 1462.2 1440.3
4698.3 979.749 994.696 1388.54 1406.29
4701.21 975.947 977.431 1368.14 1371.75
4704.11 976.597 970.899 1358.58 1364.19
4707.01 960.153 971.32 1365.84 1371.56
4709.91 977.209 1000.65 1390.25 1415.05
4712.81 1064.57 1018.47 1489.07 1431.79
4715.71 1013.62 1047.7 1416.07 1471.35
4718.62 1064.9 1046.63 1508.92 1467.39
4721.52 1061.37 1067.83 1477.18 1501.62
4724.42 1077.21 1069.79 1518.74 1497.29
4727.32 1070.79 1064.8 1495.95 1489.51
4730.22 1046.42 1056.47 1453.84 1476.09
4733.12 1052.21 1059.42 1478.48 1480.69
4736.03 1079.64 1066.17 1509.73 1490.47
4738.93 1066.67 1088.63 1483.19 1507.69
4741.83 1119.59 1081.35 1530.14 1501.13
4744.73 1057.79 1109.18 1490.05 1535.21
4747.63 1150.15 1115.18 1585.44 1549.61
4750.53 1137.61 1129.91 1573.36 1567.96
4753.43 1101.98 1108.93 1545.08 1544.95
4756.33 1087.19 1092.49 1516.43 1519.91
4759.23 1088.31 1071.86 1498.24 1491.05
4762.14 1040.07 1068.26 1458.5 1486.58
4765.04 1076.4 1093.96 1503.02 1525.93
4767.94 1165.4 1108.27 1616.28 1545.95
4770.84 1083.02 1126.86 1518.54 1569.85
4773.74 1132.17 1105.52 1574.75 1542.12
4776.64 1101.37 1129 1533.09 1582.17
4779.54 1153.46 1129.14 1638.67 1580.39
4782.44 1132.6 1127.79 1569.41 1582.96
4785.34 1097.3 1098.83 1540.79 1522.97
4788.24 1066.6 1087.37 1458.72 1510.09
4791.14 1098.22 1114.06 1530.78 1537.26
4794.04 1177.36 1148.81 1622.28 1591.99
4796.94 1170.84 1170.02 1622.92 1624.19
4799.84 1161.86 1156.97 1627.38 1614.15
4802.74 1138.21 1156.2 1592.16 1618.91
4805.64 1168.53 1156.44 1637.19 1611.01
4808.54 1162.56 1177.28 1603.68 1643.6
4811.44 1200.75 1169.84 1689.93 1630.76
4814.34 1146.2 1168.56 1598.67 1637.77
4817.24 1158.73 1144.75 1624.69 1611.46
4820.14 1129.33 1130.87 1611.03 1596.83
4823.04 1104.56 1130.52 1554.78 1597.33
4825.94 1157.68 1130.17 1626.18 1601.37
4828.84 1128.27 1145.64 1623.13 1611.76
4831.74 1150.96 1152.1 1585.96 1628.29
4834.63 1177.06 1169.88 1675.77 1635.06
4837.53 1181.61 1174.15 1643.46 1648.25
4840.43 1163.78 1175.34 1625.51 1640.56
4843.33 1180.61 1184.21 1652.71 1660.71
4846.23 1208.23 1175.09 1703.91 1663.07
4849.13 1136.44 1154.86 1632.59 1641.69
4852.03 1119.9 1092.84 1588.57 1555.78
4854.93 1022.19 1056.75 1446.19 1498.22
4857.83 1028.17 1010.91 1459.91 1435.05
4860.72 982.366 1001.34 1399.06 1419.43
4863.62 993.473 1017.5 1399.32 1423.49
4866.52 1076.67 1042.07 1472.1 1453.22
4869.42 1056.06 1054.15 1488.22 1478.27
4872.32 1029.71 1044.62 1474.48 1473.89
4875.22 1048.09 1051.77 1458.96 1474.39
4878.12 1077.52 1068.59 1489.73 1499.33
4881.01 1080.17 1096.51 1549.31 1545.29
4883.91 1131.85 1114.83 1596.83 1573.85
4886.81 1132.47 1121.78 1575.41 1582.89
4889.71 1101.02 1135.97 1576.44 1600.1
4892.61 1174.43 1137.05 1648.43 1605.1
4895.5 1135.71 1155.45 1590.42 1629.51
4898.4 1156.22 1170.16 1649.68 1664.56
4901.3 1218.57 1186.52 1753.59 1696.86
4904.2 1184.78 1182.11 1687.32 1690.17
4907.09 1142.99 1154.28 1629.61 1643.4
4909.99 1135.07 1138.22 1613.29 1615.9
4912.89 1136.61 1128.64 1604.81 1596.82
4915.79 1114.25 1128.02 1572.35 1594.23
4918.68 1133.22 1149.92 1605.54 1621.35
4921.58 1202.28 1170.14 1686.18 1655.18
4924.48 1174.91 1203.37 1673.84 1698.14
4927.38 1232.9 1203.01 1734.41 1709.81
4930.27 1201.23 1207.26 1721.18 1707.11
4933.17 1187.66 1183.86 1665.73 1677.91
4936.07 1162.71 1190.52 1646.82 1664.58
4938.96 1221.19 1194.92 1681.21 1670.06
4941.86 1200.85 1216.55 1682.17 1709.92
4944.76 1227.61 1228.88 1766.38 1740.27
4947.65 1258.18 1248.03 1772.25 1770.98
4950.55 1258.3 1224.26 1774.32 1736.44
4953.45 1156.31 1214.02 1662.75 1730.35
4956.34 1227.45 1200.48 1753.98 1705.99
4959.24 1217.68 1218.77 1701.24 1728.83
4962.13 1211.18 1216.44 1731.28 1734.13
4965.03 1220.47 1257.17 1769.86 1795.54
4967.93 1339.86 1263.71 1885.47 1790.11
4970.82 1230.79 1283.38 1714.99 1801.5
4973.72 1279.49 1251.82 1804.05 1765.53
4976.61 1245.18 1243.24 1777.55 1757.41
4979.51 1205.04 1222.09 1690.63 1723.68
4982.41 1216.04 1219.62 1702.86 1696.29
4985.3 1237.79 1238.26 1695.38 1727.33
4988.2 1260.96 1235.95 1783.73 1733.99
4991.09 1209.1 1237.36 1722.85 1756.15
4993.99 1242.01 1250.53 1761.88 1779.4
4996.88 1300.49 1265.83 1853.47 1786.35
4999.78 1254.98 1271.48 1743.69 1785.35
5002.67 1258.96 1247.97 1758.89 1721.63
5005.57 1229.97 1235.5 1662.31 1711.12
5008.47 1217.55 1218.73 1712.15 1676.07
5011.36 1208.66 1225.83 1653.77 1687.13
5014.26 1251.26 1232.84 1695.48 1686.94
5017.15 1238.59 1232.46 1711.57 1687.99
5020.04 1207.52 1225.06 1656.91 1693.23
5022.94 1229.05 1238.62 1711.22 1687.89
5025.83 1279.29 1256.96 1695.55 1715.35
5028.73 1262.52 1270.1 1739.29 1722.16
5031.62 1268.48 1269.88 1731.63 1748.2
5034.52 1278.64 1252.34 1773.67 1730.95
5037.41 1209.9 1240.2 1687.55 1733.43
5040.31 1232.08 1246.24 1739.06 1739.31
5043.2 1296.74 1252.15 1791.32 1737.19
5046.09 1227.62 1266.74 1681.2 1724.44
5048.99 1275.87 1259.24 1700.79 1716.14
5051.88 1274.24 1290.23 1766.44 1764.45
5054.78 1320.57 1310.41 1826.11 1807.68
5057.67 1336.43 1337.06 1830.5 1834.69
5060.56 1354.19 1325.84 1847.48 1809.54
5063.46 1286.91 1330 1750.66 1838.2
5066.35 1348.89 1327.18 1916.45 1849.37
5069.25 1345.74 1334.38 1881.01 1883.27
5072.14 1308.5 1320.24 1852.34 1852.79
5075.03 1306.48 1301.56 1825.03 1828.3
5077.93 1289.68 1292.06 1807.53 1819.73
5080.82 1280.02 1314.99 1826.65 1849.96
5083.71 1375.26 1322.85 1915.71 1861.91
5086.6 1313.27 1344.85 1843.39 1882.32
5089.5 1346.02 1335.25 1887.87 1874.1
5092.39 1346.46 1323.33 1891.03 1859.4
5095.28 1277.51 1336.52 1799.31 1874.78
5098.18 1385.6 1330.61 1933.99 1873.85
5101.07 1328.71 1349.36 1888.24 1900.81
5103.96 1333.76 1332.57 1880.19 1882.05
5106.85 1335.23 1354.16 1877.72 1901.36
5109.75 1393.48 1365.69 1946.16 1921.43
5112.64 1368.36 1374.98 1940.42 1940.37
5115.53 1363.09 1350.3 1934.54 1912.14
5118.42 1319.45 1334.89 1861.47 1902.4
5121.32 1322.12 1319.77 1911.21 1877.82
5124.21 1317.74 1322.33 1860.8 1881.09
5127.1 1327.13 1334.57 1871.28 1896.87
5129.99 1358.82 1370.06 1958.53 1948.86
5132.88 1424.23 1370.86 2016.77 1956.9
5135.78 1329.53 1361.66 1895.4 1938.19
5138.67 1331.23 1340.24 1902.4 1910.78
5141.56 1359.96 1331.2 1934.54 1895.21
5144.45 1302.41 1326.31 1848.7 1874.52
5147.34 1316.56 1313.96 1840.34 1846.6
5150.23 1322.91 1322.06 1850.76 1861.58
5153.12 1326.72 1305.85 1893.63 1851.98
5156.02 1267.94 1303.39 1811.56 1849.52
5158.91 1315.5 1289.84 1843.36 1818.55
5161.8 1286.08 1279.22 1800.72 1800.53
5164.69 1236.09 1212.94 1757.52 1721.46
5167.58 1116.64 1172.71 1606.14 1677.2
5170.47 1165.42 1163.81 1667.95 1655.17
5173.36 1209.36 1214.84 1691.44 1713.33
5176.25 1269.73 1236.46 1780.61 1744.77
5179.14 1230.28 1229.28 1762.26 1735.87
5182.03 1187.83 1228.8 1664.74 1738.45
5184.92 1268.3 1264.1 1788.36 1773.24
5187.81 1336.16 1283.86 1866.62 1810.24
5190.7 1247.12 1313.95 1775.75 1855.71
5193.59 1358.57 1314.45 1924.77 1858.45
5196.48 1337.66 1363.54 1874.84 1921.09
5199.37 1394.39 1359.16 1963.67 1912.53
5202.26 1345.43 1360.76 1899.08 1918.45
5205.15 1342.47 1344.78 1892.59 1905.49
5208.04 1346.43 1376.92 1924.79 1952.64
5210.93 1441.85 1406.86 2040.54 1996.16
5213.82 1432.29 1432.92 2023.14 2016.27
5216.71 1424.62 1437.56 1985.12 2028.46
5219.6 1455.77 1405.9 2077.11 1981.82
5222.49 1337.32 1376.29 1883.24 1947.86
5225.38 1335.78 1344.83 1883.24 1895.22
5228.27 1361.4 1367.11 1919.19 1919.38
5231.16 1404.15 1371.37 1955.72 1932.03
5234.05 1348.57 1395.4 1921.19 1960.24
5236.94 1433.46 1436.17 2003.8 2025.04
5239.83 1526.46 1471.27 2150.14 2065.57
5242.71 1453.89 1463.36 2042.76 2058.75
5245.6 1409.72 1430 1983.36 2014.03
5248.49 1426.39 1405.89 2015.96 1976.28
5251.38 1381.56 1407.4 1929.54 1999.88
5254.27 1414.24 1417.08 2054.14 2017.75
5257.16 1455.44 1415.14 2069.57 2030.76
5260.05 1375.75 1380.17 1968.58 1961.4
5262.93 1309.33 1327.07 1846.04 1882.23
5265.82 1296.14 1301.67 1832.07 1852.16
5268.71 1299.55 1301.8 1878.36 1857.73
5271.6 1309.72 1330.96 1862.76 1896.17
5274.49 1383.62 1375.79 1947.41 1943.79
5277.37 1434.05 1415.42 2021.2 1990.01
5280.26 1428.59 1417 2001.43 1983.88
5283.15 1388.36 1422 1929.01 1987.9
5286.04 1449.05 1436.52 2033.27 2020.25
5288.92 1472.14 1479.26 2098.47 2076.91
5291.81 1516.6 1472.23 2098.97 2070.98
5294.7 1427.96 1480.89 2015.48 2068.92
5297.59 1498.13 1474.43 2092.3 2067.58
5300.47 1497.2 1488.31 2094.95 2079.94
5303.36 1469.6 1493.82 2052.58 2093.51
5306.25 1514.65 1516.7 2133.01 2127.16
5309.13 1565.85 1542.19 2195.87 2166.23
5312.02 1546.06 1550.15 2169.82 2182.76
5314.91 1538.54 1524.43 2182.6 2150.63
5317.79 1488.68 1493.47 2099.46 2097.49
5320.68 1453.18 1454.61 2010.4 2038.73
5323.57 1421.96 1438.94 2006.33 2019.09
5326.45 1441.67 1442.25 2040.54 2029.29
5329.34 1463.11 1452.73 2041 2039.46
5332.22 1453.41 1464.34 2036.85 2030.9
5335.11 1476.48 1464.67 2014.86 2028.71
5338 1464.11 1479.23 2034.42 2049.58
5340.88 1497.1 1476.35 2099.48 2057.83
5343.77 1467.84 1492.07 2039.58 2078.05
5346.65 1511.28 1477.92 2095.1 2060.65
5349.54 1454.64 1489.63 2047.27 2085.92
5352.43 1502.95 1493.28 2115.39 2097.65
5355.31 1522.23 1540.35 2130.3 2145.81
5358.2 1595.87 1556.91 2191.75 2156.38
5361.08 1552.63 1541.25 2147.1 2130.86
5363.97 1475.24 1493.51 2053.75 2078.91
5366.85 1452.67 1457.41 2035.9 2033.87
5369.74 1444.33 1469.93 2011.96 2058.02
5372.62 1512.78 1487.1 2126.19 2077.72
5375.51 1504.2 1499.84 2095 2093.93
5378.39 1482.54 1506.3 2060.61 2093.54
5381.28 1532.16 1537.14 2125.01 2133.49
5384.16 1596.72 1549.22 2214.87 2145.07
5387.04 1518.79 1550.03 2095.33 2141.12
5389.93 1534.58 1514.43 2113.16 2092.32
5392.81 1489.91 1474.36 2068.46 2040.66
5395.7 1398.58 1468.89 1940.36 2029.75
5398.58 1518.18 1456.87 2080.42 2005.99
5401.47 1453.84 1470.69 1997.19 2014.74
5404.35 1440.04 1445.14 1966.61 1977.09
5407.23 1441.52 1452.93 1967.49 1985.33
5410.12 1477.23 1492.27 2021.9 2033.75
5413 1558.04 1534.82 2111.85 2113.72
5415.88 1569.19 1549.77 2207.4 2139.01
5418.77 1522.07 1554.97 2097.78 2156.17
5421.65 1573.64 1553.82 2163.33 2147.57
5424.53 1565.74 1561.75 2181.6 2156.01
5427.42 1545.88 1542.56 2123.1 2126.74
5430.3 1516.07 1504.81 2075.53 2064.62
5433.18 1452.46 1500.12 1995.23 2054.95
5436.07 1531.82 1534.96 2094.1 2092.69
5438.95 1620.61 1569.09 2188.73 2135.76
5441.83 1554.85 1559.2 2124.44 2110.04
5444.71 1502.15 1559.51 2016.95 2119.19
5447.6 1621.54 1565.04 2216.18 2123.13
5450.48 1571.43 1589.06 2136.26 2157.07
5453.36 1574.2 1555.35 2118.77 2116.55
5456.24 1520.42 1536.61 2094.62 2086.03
5459.13 1515.2 1529.25 2044.7 2074.09
5462.01 1552.14 1547.12 2082.95 2093.84
5464.89 1574.01 1579.35 2153.86 2140.3
5467.77 1611.89 1588.25 2184.08 2170.82
5470.65 1578.85 1589.91 2174.53 2167.41
5473.53 1579.01 1542.78 2143.62 2114.66
5476.42 1470.47 1524.4 2025.82 2086.81
5479.3 1523.71 1513.61 2090.98 2072.48
5482.18 1546.65 1551.94 2100.64 2122.26
5485.06 1585.45 1559.62 2175.17 2119.33
5487.94 1546.77 1577.66 2082.17 2151.05
5490.82 1600.77 1580.57 2195.79 2141.48
5493.7 1594.19 1609.91 2146.46 2176.99
5496.58 1634.78 1476.66 2188.72 2134.15
5499.47 1201.02 1341.01 2067.25 2085.74
5502.35 1187.21 1192.24 2001.26 2037.44
5505.23 1188.49 1190.94 2043.81 2050.53
5508.11 1197.13 1211.29 2106.53 2121.24
5510.99 1248.26 1229.8 2213.39 2156.79
5513.87 1244.01 1250.69 2150.45 2197.29
5516.75 1259.81 1241.47 2228.02 2193.55
5519.63 1220.6 1263.03 2202.18 2232.2
5522.51 1308.68 1262.9 2266.4 2212.98
5525.39 1259.43 1259.35 2170.34 2159.09
5528.27 1209.95 1268.42 2040.52 2147.96
5531.15 1335.89 1274.39 2233.02 2156.36
5534.03 1277.32 1280.45 2195.53 2195
5536.91 1228.13 1277.11 2156.46 2192.88
5539.79 1325.86 1275.92 2226.64 2195.63
5542.67 1273.78 1297.08 2203.78 2217.21
5545.54 1291.59 1288.59 2221.22 2214.5
5548.42 1300.39 1279.14 2218.5 2184.59
5551.3 1245.42 1288.64 2114.06 2183.61
5554.18 1320.12 1281.46 2218.27 2156.98
5557.06 1278.83 1300.25 2138.62 2212.05
5559.94 1301.8 1287.26 2279.27 2188.34
5562.82 1281.15 1296.82 2147.13 2207.88
5565.7 1307.52 1299.85 2197.26 2177.32
5568.58 1310.87 1301.78 2187.58 2178.45
5571.45 1286.94 1308.85 2150.52 2178.83
5574.33 1328.72 1309.36 2198.39 2144.84
5577.21 1312.41 1290.67 2085.61 2090
5580.09 1230.89 1297.69 1986.01 2097.89
5582.97 1349.76 1277.89 2222.06 2091.65
5585.84 1253.03 1283.31 2066.9 2134.83
5588.72 1247.13 1237.85 2115.55 2082.65
5591.6 1213.37 1260.58 2065.52 2129.5
5594.48 1321.22 1266.54 2207.43 2135.28
5597.35 1265.02 1291.78 2132.89 2203.74
5600.23 1289.09 1291.42 2270.91 2191.29
5603.11 1320.14 1298.32 2170.07 2239.79
5605.99 1285.72 1307.51 2278.39 2261.66
5608.86 1316.66 1291.46 2336.51 2281.01
5611.74 1272.01 1278.5 2228.14 2241.22
5614.62 1246.83 1267.28 2159 2208.45
5617.49 1283.01 1313.75 2238.21 2245.26
5620.37 1411.41 1356.73 2338.56 2280.62
5623.25 1375.78 1387.6 2265.08 2288.2
5626.12 1375.61 1366.14 2260.95 2281.68
5629 1347.02 1363.33 2318.99 2282.54
5631.88 1367.35 1327.77 2267.68 2263.26
5634.75 1268.95 1329.03 2203.09 2240.09
5637.63 1350.79 1306.95 2249.49 2206.04
5640.5 1301.1 1343.28 2165.55 2239.53
5643.38 1377.95 1367.06 2303.54 2257.3
5646.26 1422.13 1396.4 2302.79 2297.1
5649.13 1389.13 1359.9 2284.97 2276
5652.01 1268.45 1344.89 2240.24 2251.47
5654.88 1377.08 1295.22 2229.21 2205.56
5657.76 1240.13 1295.6 2147.22 2187.96
5660.63 1269.6 1294.78 2187.46 2188.23
5663.51 1374.61 1328.3 2230.02 2198.03
5666.38 1340.7 1384.4 2176.62 2263.49
5669.26 1437.88 1381.96 2383.83 2258.45
5672.13 1367.31 1362.13 2214.9 2272.82
5675.01 1281.2 1328.07 2219.72 2249.51
5677.88 1335.7 1324.11 2313.91 2249.54
5680.76 1355.43 1330.47 2215 2246.69
5683.63 1300.27 1346.78 2211.14 2232.71
5686.51 1384.63 1355.52 2271.99 2250.05
5689.38 1381.66 1349.96 2267.01 2250.75
5692.25 1283.59 1356.52 2213.26 2249.38
5695.13 1404.31 1350.44 2267.88 2240.25
5698 1363.42 1384.17 2239.59 2259.2
5700.88 1384.77 1349.4 2270.14 2228.65
5703.75 1300 1313.95 2176.23 2205.76
5706.62 1257.07 1314.32 2170.92 2200.78
5709.5 1385.89 1334.68 2255.17 2202.07
5712.37 1361.07 1352.2 2180.11 2214.46
5715.24 1309.64 1372.24 2208.08 2242.7
5718.12 1446.03 1382.92 2339.92 2247.95
5720.99 1393.1 1405.41 2195.85 2250.25
5723.86 1377.09 1390.31 2214.97 2232.18
5726.73 1400.74 1392.66 2285.72 2264.54
5729.61 1400.16 1390.45 2292.94 2283.59
5732.48 1370.45 1415.49 2272.12 2325.19
5735.35 1475.87 1438.47 2410.52 2329.77
5738.22 1469.09 1469.62 2306.67 2385.33
5741.1 1463.89 1437.4 2438.79 2353.75
5743.97 1379.21 1398.77 2315.79 2353.65
5746.84 1353.22 1352.25 2306.36 2272.32
5749.71 1324.31 1375.11 2194.81 2274.91
5752.58 1447.8 1396.08 2323.57 2267.99
5755.46 1416.14 1425.23 2285.58 2291.59
5758.33 1411.75 1402.85 2265.61 2265.8
5761.2 1380.65 1407.4 2246.22 2266.3
5764.07 1429.81 1422.53 2287.07 2284.51
5766.94 1457.13 1422.85 2320.25 2255.25
5769.81 1381.62 1417.95 2158.41 2241.9
5772.68 1415.11 1399.3 2247.04 2216.17
5775.56 1401.18 1399.03 2243.06 2239.5
5778.43 1380.81 1368.45 2228.39 2193.47
5781.3 1323.36 1344.82 2108.96 2150.12
5784.17 1330.29 1339.63 2113.01 2138.09
5787.04 1365.23 1341.29 2192.3 2160.59
5789.91 1328.36 1374.39 2176.47 2221.62
5792.78 1429.57 1377.33 2296.08 2205.16
5795.65 1374.06 1379.11 2142.93 2209.49
5798.52 1333.71 1377.98 2189.46 2196.5
5801.39 1426.18 1380.66 2257.1 2260.25
5804.26 1382.09 1406.76 2334.2 2264.9
5807.13 1412.02 1427.32 2203.4 2279.15
5810 1487.87 1447.9 2299.84 2250.73
5812.87 1443.81 1482.09 2248.95 2333.49
5815.74 1514.6 1463.15 2451.67 2334.7
5818.61 1431.03 1450.92 2303.47 2358.32
5821.48 1407.14 1426.5 2319.82 2296.98
5824.35 1441.34 1446.33 2267.66 2297.68
5827.21 1490.52 1469.15 2305.56 2300.36
5830.08 1475.6 1448.14 2327.86 2298.06
5832.95 1378.32 1451.64 2260.76 2315.09
5835.82 1501 1450.56 2356.65 2307.32
5838.69 1472.37 1475.15 2304.55 2307.04
5841.56 1452.08 1471.61 2259.91 2287.24
5844.43 1490.38 1459.99 2297.25 2285.5
5847.29 1437.5 1444.29 2299.34 2271.72
5850.16 1404.98 1442.83 2218.57 2282.46
5853.03 1486 1447.68 2329.48 2282.57
5855.9 1452.07 1445.44 2299.67 2303.1
5858.77 1398.24 1425.65 2280.15 2295.58
5861.63 1426.64 1428.11 2306.93 2284.37
5864.5 1459.47 1470.08 2266.01 2303.98
5867.37 1524.14 1509.95 2339 2338.89
5870.24 1546.25 1494.24 2411.64 2340.12
5873.1 1412.34 1479.49 2269.72 2361.49
5875.97 1479.87 1413.29 2403.1 2291.46
5878.84 1347.66 1424.95 2201.56 2284.83
5881.7 1447.32 1348.03 2249.83 2182.82
5884.57 1249.1 1331.63 2097.08 2118.2
5887.44 1298.47 1273.47 2007.69 2015.17
5890.3 1272.84 1311.83 1940.74 2013.41
5893.17 1364.18 1359.19 2091.81 2083.01
5896.04 1440.55 1354.96 2216.49 2150.91
5898.9 1260.15 1387.41 2144.44 2195.96
5901.77 1461.52 1374.02 2226.96 2178.81
5904.63 1400.39 1446.08 2165.03 2228.32
5907.5 1476.32 1402.22 2292.98 2214.52
5910.37 1329.95 1428.14 2185.56 2246.65
5913.23 1478.14 1423.03 2261.41 2238.19
5916.1 1460.99 1451.19 2267.6 2239.89
5918.96 1414.43 1432.67 2190.65 2226.3
5921.83 1422.59 1444.4 2220.67 2245.59
5924.69 1496.18 1441.16 2325.46 2236.67
5927.56 1404.71 1482.07 2163.88 2292.05
5930.42 1545.32 1489.27 2386.81 2304.26
5933.29 1517.78 1537.61 2362.09 2381.27
5936.15 1549.73 1532.48 2394.92 2383.1
5939.02 1529.92 1514.87 2392.31 2364.64
5941.88 1464.96 1490.15 2306.68 2331.52
5944.75 1475.58 1461.01 2295.56 2297.19
5947.61 1442.48 1429.17 2289.31 2256.55
5950.47 1369.45 1418.41 2184.79 2223.5
5953.34 1443.29 1415.87 2196.4 2232.99
5956.2 1434.86 1445.04 2317.76 2235
5959.07 1456.98 1447.6 2190.84 2246.1
5961.93 1450.97 1480.35 2229.68 2244.66
5964.79 1533.12 1493.99 2313.45 2270.97
5967.66 1497.9 1497.98 2269.77 2269.62
5970.52 1462.92 1454.78 2225.65 2217.25
5973.38 1403.54 1475.71 2156.34 2252.07
5976.25 1560.69 1447.21 2374.22 2240.65
5979.11 1377.41 1449.52 2191.39 2256.6
5981.97 1410.45 1410.22 2204.2 2198.79
5984.83 1442.79 1439.53 2200.79 2253.04
5987.7 1465.35 1436.64 2354.13 2255.72
5990.56 1401.77 1451.26 2212.24 2281.92
5993.42 1486.67 1451.5 2279.38 2255.6
5996.28 1466.07 1482.54 2275.19 2274.53
5999.14 1494.89 1477.17 2269.04 2275.04
6002.01 1470.55 1480.67 2280.91 2267.5
6004.87 1476.56 1472.12 2252.57 2247.12
6007.73 1469.26 1449.63 2207.89 2217.5
6010.59 1403.07 1419.14 2192.03 2198.87
6013.45 1385.09 1386.22 2196.68 2196.31
6016.31 1370.49 1378.1 2200.23 2188.63
6019.18 1378.72 1403.89 2168.97 2195.11
6022.04 1462.46 1421.58 2216.13 2205.9
6024.9 1423.56 1436.76 2232.61 2229.71
6027.76 1424.25 1421.88 2240.39 2227.8
6030.62 1417.83 1452.36 2210.4 2256.67
6033.48 1515.02 1465.3 2319.22 2259.24
6036.34 1463.06 1487.31 2248.09 2265.6
6039.2 1483.87 1477.24 2229.48 2252.07
6042.06 1484.79 1482.34 2278.64 2261.71
6044.92 1478.38 1463.47 2276.99 2279.24
6047.78 1427.26 1457.43 2282.08 2269.34
6050.64 1466.66 1458.67 2248.95 2268.5
6053.5 1482.08 1504.98 2274.48 2302.3
6056.36 1566.21 1528.84 2383.47 2320.11
6059.22 1538.22 1540.03 2302.36 2310.76
6062.08 1515.66 1529.5 2246.44 2278.18
6064.94 1534.62 1525.58 2285.73 2265.6
6067.8 1526.45 1529.81 2264.61 2268.65
6070.66 1528.34 1506.16 2255.6 2244
6073.52 1463.67 1496.6 2211.77 2241.38
6076.37 1497.79 1464.59 2256.77 2230.08
6079.23 1432.3 1447.5 2221.69 2246.38
6082.09 1412.42 1421.59 2260.66 2222.82
6084.95 1420.05 1411.93 2186.1 2218.35
6087.81 1403.33 1396.33 2208.29 2143.49
6090.67 1365.62 1415.21 2036.07 2150.02
6093.52 1476.69 1449.39 2205.71 2159.31
6096.38 1505.85 1492.88 2236.15 2237.99
6099.24 1496.1 1457.89 2272.1 2184.69
6102.1 1371.73 1439.24 2045.83 2158.65
6104.96 1449.88 1434.5 2158.02 2163.93
6107.81 1481.87 1449.76 2287.94 2186.21
6110.67 1417.53 1456.17 2112.66 2184.46
6113.53 1469.11 1462.87 2152.77 2167.01
6116.38 1501.98 1465.45 2235.61 2185.18
6119.24 1425.26 1463.71 2167.15 2211.06
6122.1 1463.89 1452.57 2230.41 2194.72
6124.95 1468.55 1481.56 2186.6 2210.34
6127.81 1512.24 1460.55 2214.01 2177.65
6130.67 1400.86 1427.84 2132.34 2126.92
6133.52 1370.4 1379.66 2034.41 2067.88
6136.38 1367.72 1375.98 2036.88 2050.05
6139.24 1389.82 1417.02 2078.85 2105.99
6142.09 1493.54 1439.05 2202.25 2166.71
6144.95 1433.79 1456.12 2219.04 2181.05
6147.8 1441.04 1410.14 2121.85 2153.32
6150.66 1355.59 1407.34 2119.05 2118.01
6153.51 1425.38 1387.86 2113.11 2098.23
6156.37 1382.61 1401.31 2062.51 2072.04
6159.22 1395.93 1387.57 2040.48 2041.93
6162.08 1384.16 1400.2 2022.8 2056.35
6164.93 1420.51 1401.1 2105.76 2073.68
6167.79 1398.64 1410.54 2092.48 2105.93
6170.64 1412.48 1433.44 2119.54 2142.85
6173.5 1489.19 1466.1 2216.54 2184.86
6176.35 1496.64 1493.21 2218.51 2214.91
6179.21 1493.81 1460.98 2209.68 2192.93
6182.06 1392.48 1449.41 2150.6 2163.35
6184.91 1461.95 1419.45 2129.77 2118.38
6187.77 1403.93 1444.02 2074.77 2128.87
6190.62 1466.19 1458.35 2182.07 2169.97
6193.48 1504.93 1455.14 2253.07 2164.35
6196.33 1394.32 1455.54 2057.91 2149.97
6199.18 1467.37 1446.13 2138.93 2127.59
6202.04 1476.7 1476.8 2185.94 2177.96
6204.89 1486.33 1499.71 2209.01 2199.89
6207.74 1536.11 1494.68 2204.71 2194.38
6210.59 1461.6 1476.3 2169.42 2175.95
6213.45 1431.19 1447.24 2153.72 2189.33
6216.3 1448.93 1402.34 2244.85 2144.1
6219.15 1326.91 1434.15 2033.72 2181.95
6222 1526.62 1418.99 2267.28 2108.13
6224.86 1403.46 1466.13 2023.4 2143.57
6227.71 1468.32 1432.87 2140.04 2120.62
6230.56 1426.83 1448.36 2198.43 2156.18
6233.41 1449.91 1431.49 2130.08 2130.67
6236.26 1417.72 1406.9 2063.5 2059.87
6239.11 1353.07 1389.15 1986.05 2044.04
6241.97 1396.66 1380.79 2082.57 2021.32
6244.82 1392.64 1411.06 1995.34 2075.93
6247.67 1443.9 1399.99 2149.89 2059.34
6250.52 1363.44 1378.07 2032.8 2043.91
6253.37 1326.86 1368.2 1949.04 2010.48
6256.22 1414.31 1383.4 2049.59 2019.11
6259.07 1409.01 1424.14 2058.7 2058.85
6261.92 1449.1 1445.2 2068.26 2082.25
6264.77 1477.48 1470.96 2119.8 2107.96
6267.62 1486.3 1493.91 2135.82 2154.06
6270.47 1517.95 1457.61 2206.55 2122.39
6273.32 1368.56 1418.95 2024.81 2110.24
6276.17 1370.34 1369.83 2099.36 2051.8
6279.02 1370.59 1379.65 2031.23 2064.29
6281.87 1398.03 1364.7 2062.27 2035.68
6284.72 1325.47 1357.39 2013.55 2018.04
6287.57 1348.66 1366.89 1978.3 2016.79
6290.42 1426.54 1325.38 2058.51 2014.17
6293.27 1200.93 1331.61 2005.7 1984.12
6296.12 1367.37 1203.58 1888.14 1949.2
6298.97 1042.45 1255.79 1953.76 1908.02
6301.81 1357.54 1293.57 1882.16 1978.16
6304.66 1480.72 1332.62 2098.57 1981.48
6307.51 1159.59 1331.26 1963.72 2001.1
6310.36 1353.46 1288.89 1941.01 1969.97
6313.21 1353.61 1361.76 2005.19 1984.73
6316.05 1378.22 1361.24 2008 2013.78
6318.9 1351.89 1378.53 2028.17 2068.62
6321.75 1405.47 1399.4 2169.7 2095.47
6324.6 1440.85 1404.74 2088.54 2107.64
6327.44 1367.9 1411.15 2064.67 2050.78
6330.29 1424.71 1399.21 1999.14 2012.94
6333.14 1405.03 1422.34 1975 2005.46
6335.99 1437.3 1410.27 2042.24 2006.72
6338.83 1388.49 1409.97 2002.92 2038.46
6341.68 1404.12 1414.56 2070.23 2060.83
6344.53 1451.07 1420.84 2109.35 2095.15
6347.37 1407.34 1420.27 2105.86 2083.36
6350.22 1402.4 1402.58 2034.86 2055.8
6353.06 1398 1380.1 2026.68 1987.08
6355.91 1339.89 1398.8 1899.71 1989.9
6358.76 1458.51 1422.12 2043.3 2013.75
6361.6 1467.95 1455.71 2098.24 2046.48
6364.45 1440.69 1433.61 1997.9 2011.99
6367.29 1392.18 1415.89 1939.85 1976.79
6370.14 1414.78 1412.05 1992.62 1979.18
6372.98 1429.18 1428.6 2005.07 2010.8
6375.83 1441.84 1411.91 2034.71 2029.74
6378.67 1364.7 1416.58 2049.43 2087.63
6381.52 1443.18 1405.66 2178.74 2118.18
6384.36 1409.08 1416.61 2126.38 2118.37
6387.21 1397.56 1377.33 2050.01 2081.72
6390.05 1325.36 1359.19 2068.78 2026.26
6392.9 1354.65 1373.87 1959.99 2024.63
6395.74 1441.61 1410.8 2045.11 2011.58
6398.58 1436.15 1434.55 2029.64 2034.73
6401.43 1425.89 1397.8 2029.44 2004.99
6404.27 1331.36 1401.01 1955.89 2012.46
6407.11 1445.78 1387.57 2052.05 1993.6
6409.96 1385.56 1444.13 1972.86 2042.13
6412.8 1501.04 1415.63 2101.47 2024.53
6415.64 1360.3 1415.02 1999.26 2015.75
6418.49 1383.71 1398.98 1946.53 1992.92
6421.33 1452.93 1429.55 2032.96 2012.98
6424.17 1452 1431.99 2059.45 2042.3
6427.01 1391.02 1417.57 2034.48 2043.43
6429.86 1409.69 1395.61 2036.35 2022.01
6432.7 1386.13 1388.6 1995.2 2024.62
6435.54 1369.98 1399.67 2042.3 2040.73
6438.38 1442.9 1391.48 2084.69 2023.24
6441.22 1361.57 1420.68 1942.74 2010.92
6444.07 1457.57 1407.83 2005.34 1981.85
6446.91 1404.35 1400.14 1997.48 1992.61
6449.75 1338.49 1399.68 1975 1999.12
6452.59 1456.21 1406.26 2024.87 2017.1
6455.43 1424.07 1413.18 2051.43 2003.97
6458.27 1359.27 1409.85 1935.61 2001.18
6461.11 1446.21 1395.09 2016.5 1955.81
6463.95 1379.78 1380.69 1915.32 1959.48
6466.79 1316.08 1355 1946.61 1932.38
6469.63 1369.14 1357.03 1935.21 1947.24
6472.47 1385.87 1377.97 1959.89 1943.48
6475.31 1378.9 1395.23 1935.34 1944.59
6478.15 1420.92 1422.3 1938.53 1982.51
6480.99 1467.09 1448.92 2073.65 2008.06
6483.83 1458.74 1427.88 2012.01 1984.42
6486.67 1357.82 1378.2 1867.6 1897.58
6489.51 1318.04 1339.55 1813.14 1857.79
6492.35 1342.79 1335.24 1892.62 1850.84
6495.19 1344.9 1378.74 1846.76 1909.43
6498.03 1448.53 1373.49 1988.92 1914.38
6500.87 1327.04 1398.13 1907.47 1955.25
6503.71 1418.83 1361.39 1969.34 1939.39
6506.55 1338.32 1395.49 1941.36 1968.14
6509.38 1429.34 1413.32 1993.73 2009.33
6512.22 1472.31 1412.27 2092.9 2008.78
6515.06 1335.17 1416.71 1939.71 2027.49
6517.9 1442.65 1287.94 2049.85 1986.11
6520.74 1086 1217.71 1968.77 1980.45
6523.57 1124.47 1084.73 1922.73 1908.94
6526.41 1043.73 1054.27 1835.33 1849.94
6529.25 994.617 1070.56 1791.75 1855.94
6532.08 1173.33 1111.71 1940.74 1900.78
6534.92 1167.18 1147.81 1969.85 1941.59
6537.76 1102.93 1137.51 1914.17 1953.59
6540.6 1142.42 1106.3 1976.75 1941.34
6543.43 1073.56 1095.12 1933.1 1927.02
6546.27 1069.37 1072.83 1871.2 1894.02
6549.1 1075.57 1068.49 1877.75 1859.88
6551.94 1060.52 1030.98 1830.7 1818.67
6554.78 956.84 980.698 1747.56 1710.99
6557.61 924.738 971.409 1554.72 1649.78
6560.45 1032.65 987.201 1647.06 1641.33
6563.28 1004.22 1025.28 1722.22 1726.11
6566.12 1038.97 1039.18 1809.06 1778.7
6568.95 1074.36 1061.6 1804.82 1822.44
6571.79 1071.47 1104.54 1853.43 1867.13
6574.62 1167.78 1120.49 1943.14 1896.49
6577.46 1122.2 1149.3 1892.88 1916.25
6580.29 1157.91 1145.45 1912.73 1902.54
6583.13 1156.25 1127.24 1902.01 1867.14
6585.96 1067.55 1120.07 1786.68 1870.7
6588.8 1136.41 1110.23 1923.42 1868.25
6591.63 1126.73 1136.26 1894.64 1923.23
6594.46 1145.63 1112.98 1951.64 1909.77
6597.3 1066.58 1112.5 1883.05 1944.31
6600.13 1125.31 1127.48 1998.25 1940.13
6602.97 1190.55 1152.74 1939.08 1938.44
6605.8 1142.37 1158.21 1877.99 1923.86
6608.63 1141.7 1166.78 1954.5 1937.39
6611.46 1216.27 1164.88 1979.68 1955.09
6614.3 1136.65 1183.11 1931.09 1950.47
6617.13 1196.39 1149.29 1940.65 1935.79
6619.96 1114.82 1138.82 1935.64 1924.94
6622.8 1105.25 1134.2 1898.52 1929.38
6625.63 1182.54 1160.39 1953.97 1951.21
6628.46 1193.38 1191.44 2001.13 1958.47
6631.29 1198.41 1179.57 1920.31 1942.56
6634.12 1146.92 1171.19 1906.26 1896.63
6636.95 1168.24 1159.66 1863.33 1890.83
6639.79 1163.81 1156.22 1902.89 1870.98
6642.62 1136.6 1163.04 1846.72 1899.82
6645.45 1188.7 1161.64 1949.84 1905.47
6648.28 1159.62 1180.09 1919.86 1925.56
6651.11 1191.96 1155.21 1906.97 1883.96
6653.94 1114.05 1152.82 1825.03 1891.33
6656.77 1152.45 1128.51 1941.98 1871.97
6659.6 1119.04 1150.21 1848.9 1898.77
6662.43 1179.15 1141.66 1905.44 1870.64
6665.26 1126.8 1149.31 1857.59 1846.6
6668.09 1141.99 1140.17 1776.76 1851.3
6670.92 1151.72 1132.41 1919.55 1842.05
6673.75 1103.52 1129.22 1829.83 1876.86
6676.58 1132.41 1135.96 1881.18 1846.49
6679.41 1171.96 1154.71 1828.45 1860.06
6682.24 1159.76 1161.96 1870.54 1859.79
6685.07 1154.16 1180.79 1880.39 1889.17
6687.9 1228.45 1205.94 1916.59 1913.28
6690.73 1235.22 1230.97 1942.86 1922.01
6693.55 1229.24 1211.84 1906.59 1937.06
6696.38 1171.07 1198.56 1961.73 1934.85
6699.21 1195.36 1197.97 1936.23 1945.27
6702.04 1227.49 1205.37 1937.86 1900.11
6704.87 1193.27 1190.49 1826.24 1872.59
6707.7 1150.7 1159.34 1853.69 1829.7
6710.52 1134.06 1165.39 1809.18 1825.46
6713.35 1211.4 1183.52 1813.52 1827.64
6716.18 1205.1 1220.15 1860.22 1861.76
6719 1243.95 1214.82 1911.54 1891.74
6721.83 1195.42 1200.68 1903.46 1876.04
6724.66 1162.67 1171.97 1813.11 1866.27
6727.49 1157.82 1192.55 1882.23 1881.62
6730.31 1257.16 1209.84 1949.52 1912.89
6733.14 1214.54 1201.09 1906.92 1903.6
6735.96 1131.55 1171.64 1854.38 1849.85
6738.79 1168.83 1150.37 1788.25 1817.55
6741.62 1150.74 1151.98 1810.03 1801.34
6744.44 1136.37 1146.7 1805.74 1803.03
6747.27 1152.98 1184.07 1793.32 1852.61
6750.09 1262.86 1224.02 1958.76 1891.4
6752.92 1256.21 1250.39 1922.13 1925.35
6755.74 1232.09 1245.54 1895.15 1925.84
6758.57 1248.33 1229.64 1960.23 1905.06
6761.39 1208.49 1222.33 1859.79 1904.05
6764.22 1210.16 1212.68 1892.14 1875.34
6767.04 1219.39 1191.09 1874.09 1846.52
6769.87 1143.71 1193.77 1773.34 1827.99
6772.69 1218.22 1184.96 1836.54 1806.76
6775.51 1192.96 1215.07 1810.41 1860.98
6778.34 1234.02 1220.39 1935.98 1871.01
6781.16 1234.2 1206.21 1866.63 1862.93
6783.99 1150.43 1203.52 1786.18 1851.63
6786.81 1225.92 1193.99 1902.07 1847.99
6789.63 1205.64 1207.25 1855.73 1853.1
6792.45 1190.19 1191.12 1801.51 1833.05
6795.28 1177.52 1195.55 1841.91 1819
6798.1 1218.93 1182.02 1813.58 1815.69
6800.92 1149.59 1192.06 1791.59 1818.82
6803.75 1207.67 1177.62 1851.31 1824.43
6806.57 1175.59 1185.59 1830.4 1810.23
6809.39 1173.53 1200.68 1748.98 1823.33
6812.21 1252.93 1201.94 1890.61 1816.6
6815.03 1179.35 1205.72 1810.19 1851.95
6817.85 1184.87 1194.79 1855.04 1843.65
6820.68 1220.14 1188.25 1865.72 1817.73
6823.5 1159.73 1190.68 1732.45 1775.19
6826.32 1192.17 1193 1727.41 1765.84
6829.14 1227.1 1184.22 1837.66 1755.06
6831.96 1133.39 1173.25 1700.1 1797.44
6834.78 1159.26 1127.44 1854.56 1760
6837.6 1089.68 1138.04 1725.35 1773.46
6840.42 1165.18 1121.42 1740.45 1707.61
6843.24 1109.4 1167.17 1657.03 1739.49
6846.06 1226.93 1152.09 1820.98 1741.39
6848.88 1119.95 1179.86 1746.16 1782.78
6851.7 1192.71 1158.26 1781.19 1738.01
6854.52 1162.13 1186.43 1686.68 1735.12
6857.34 1204.44 1181.33 1737.5 1719.27
6860.16 1177.44 1126.11 1733.62 1695.62
6862.98 996.449 1013.24 1615.74 1583.08
6865.8 865.849 906.973 1399.89 1455
6868.62 858.621 891.344 1349.37 1390.14
6871.43 949.562 905.665 1421.17 1391.85
6874.25 908.813 941.341 1405 1445.58
6877.07 965.65 990.172 1510.57 1492.82
6879.89 1096.05 1039.49 1562.87 1536.87
6882.71 1056.78 1071.47 1537.17 1548.02
6885.52 1061.58 1051.75 1544.02 1525.91
6888.34 1036.89 1009.17 1496.53 1490.87
6891.16 929.034 980.403 1432.06 1472.23
6893.98 975.288 968.395 1488.09 1491.02
6896.79 1000.86 1008.21 1552.91 1517.97
6899.61 1048.47 1037.62 1512.9 1549.92
6902.43 1063.52 1070.53 1583.94 1569.5
6905.24 1099.6 1081.15 1611.66 1573.78
6908.06 1080.31 1086.41 1525.73 1570.07
6910.88 1079.32 1076.49 1572.82 1569.62
6913.69 1069.84 1096.57 1610.32 1598.14
6916.51 1140.55 1105.16 1611.27 1615.73
6919.32 1105.08 1128.61 1625.6 1637.96
6922.14 1140.22 1110.98 1677 1614.08
6924.95 1087.64 1122.4 1539.63 1620.41
6927.77 1139.35 1110.28 1644.6 1582.26
6930.58 1103.84 1134.1 1562.56 1627.4
6933.4 1159.1 1131.8 1675.03 1628.07
6936.21 1132.48 1137.58 1646.61 1652.47
6939.03 1121.18 1094.96 1635.77 1634.79
6941.84 1031.22 1095.71 1621.99 1618.16
6944.66 1134.72 1109.66 1596.72 1614.64
6947.47 1163.05 1145.08 1625.2 1624.76
6950.28 1137.46 1171.74 1652.36 1684.07
6953.1 1214.7 1165.69 1774.64 1702.35
6955.91 1144.91 1162.89 1680.05 1711.13
6958.72 1129.05 1159.06 1678.71 1694.01
6961.54 1203.22 1153.69 1723.28 1678.57
6964.35 1128.8 1146.49 1633.73 1644.35
6967.16 1107.47 1108.41 1576.04 1600.25
6969.98 1088.96 1074.32 1590.97 1564.17
6972.79 1026.52 1046.39 1525.51 1553.8
6975.6 1023.68 1060.21 1544.93 1555.59
6978.41 1130.44 1097.25 1596.33 1581.58
6981.22 1137.62 1120.64 1603.48 1569.62
6984.04 1093.87 1116.83 1509.06 1564.89
6986.85 1119.02 1105.04 1582.13 1554.72
6989.66 1102.23 1106.81 1572.98 1564.6
6992.47 1099.18 1099.84 1538.69 1566.76
6995.28 1098.12 1080.27 1588.61 1532.76
6998.09 1043.51 1091.05 1470.98 1546.47
7000.9 1131.51 1073.89 1579.81 1497.22
7003.71 1046.65 1090.19 1440.87 1517.4
7006.52 1092.42 1081.45 1531.51 1510.44
7009.34 1105.27 1102.22 1558.95 1558.22
7012.15 1108.97 1097.41 1584.18 1559.48
7014.96 1077.99 1090.53 1535.3 1549.58
7017.76 1084.62 1072.78 1529.26 1529.5
7020.57 1055.73 1076.48 1523.93 1538.52
7023.38 1089.07 1053.82 1562.38 1512.92
7026.19 1016.65 1050.94 1452.46 1504.08
7029 1047.11 1049.88 1497.4 1507.74
7031.81 1085.87 1058.72 1573.37 1518.24
7034.62 1043.17 1098.37 1483.96 1548.36
7037.43 1166.08 1080.6 1587.77 1536.07
7040.24 1032.55 1087.98 1536.49 1548.26
7043.04 1065.31 1065.87 1520.53 1556.18
7045.85 1099.76 1070.04 1611.51 1524.33
7048.66 1045.06 1095.96 1440.95 1530.92
7051.47 1143.07 1103.58 1540.29 1495.79
7054.28 1122.62 1128.19 1506.14 1516.08
7057.08 1118.88 1123.89 1501.83 1515.58
7059.89 1130.16 1122.35 1538.77 1513.57
7062.7 1118.03 1112.71 1500.12 1523.8
7065.5 1089.94 1092.46 1532.51 1503.05
7068.31 1069.42 1085.58 1476.51 1503.42
7071.12 1097.37 1081.81 1501.25 1492.75
7073.92 1078.65 1092.97 1500.5 1517.28
7076.73 1102.9 1058.62 1550.09 1491.81
7079.54 994.302 1056.59 1424.83 1484.4
7082.34 1072.57 1060.56 1478.28 1454.37
7085.15 1114.8 1089.52 1459.98 1468.01
7087.95 1081.19 1070.29 1465.75 1443.35
7090.76 1014.88 1063.56 1404.31 1460.09
7093.56 1094.6 1076.84 1510.21 1472.14
7096.37 1121.03 1084.92 1501.92 1495.44
7099.17 1039.13 1095.76 1474.18 1497.16
7101.98 1127.11 1079.46 1515.39 1468.83
7104.78 1072.12 1090.09 1416.91 1472.75
7107.58 1071.03 1091.3 1485.96 1476.06
7110.39 1130.75 1078.54 1525.32 1469
7113.19 1033.85 1064.82 1395.71 1437.53
7116 1029.86 1038.21 1391.55 1416.75
7118.8 1050.91 1055.88 1462.99 1446.6
7121.6 1086.85 1048 1485.25 1432.14
7124.41 1006.25 1070.62 1348.19 1448.6
7127.21 1118.77 1054.13 1512.36 1426.69
7130.01 1037.38 1069.11 1419.52 1450.88
7132.81 1051.17 1039.68 1420.75 1408.16
7135.62 1030.5 1025.07 1384.2 1401.52
7138.42 993.553 1029.6 1399.6 1393.97
7141.22 1064.75 1020.92 1398.1 1395.83
7144.02 1004.46 1036.42 1389.78 1396.63
7146.82 1040.05 1035.31 1402.02 1403.31
7149.63 1061.41 1046.77 1418.12 1387.44
7152.43 1038.85 1059.27 1342.19 1390.12
7155.23 1077.54 1048.98 1410.04 1359.88
7158.03 1030.55 1068.79 1327.41 1412.29
7160.83 1098.29 1047.17 1499.42 1385.59
7163.63 1012.67 1039.78 1329.94 1384.61
7166.43 1008.39 1019.56 1324.48 1346.33
7169.23 1037.62 1016.57 1384.56 1346.05
7172.03 1003.68 1004.43 1329.11 1325.85
7174.83 971.978 975.825 1263.89 1282.78
7177.63 951.813 951.906 1255.34 1233.7
7180.43 931.927 943.694 1181.87 1234.42
7183.23 947.341 955.573 1266.04 1244.88
7186.03 987.449 966.579 1286.74 1295.17
7188.83 964.946 972.963 1332.74 1293.11
7191.63 966.493 982.118 1259.83 1311.72
7194.43 1014.91 967.992 1342.58 1278.36
7197.22 922.571 959.279 1232.66 1279.98
7200.02 940.353 938.481 1264.7 1244.96
7202.82 952.519 955.789 1237.53 1257.11
7205.62 974.495 981.013 1269.1 1282.52
7208.42 1016.02 996.357 1340.94 1302.27
7211.21 998.553 990.585 1296.75 1297.32
7214.01 957.177 1001.65 1254.28 1296.18
7216.81 1049.21 1012.34 1337.51 1316.32
7219.6 1030.62 1035.13 1357.17 1348.4
7222.4 1025.55 1028.17 1350.52 1350.35
7225.2 1028.33 1013.92 1343.36 1329.1
7227.99 987.884 1004.05 1293.42 1308.42
7230.79 995.921 985.253 1288.49 1298.31
7233.59 971.955 982.869 1313.03 1293.22
7236.38 980.733 967.788 1278.13 1269.03
7239.18 950.676 915.089 1215.91 1239.98
7241.97 813.857 873.033 1225.89 1239.4
7244.77 854.567 868.281 1276.39 1236.9
7247.56 936.418 875.363 1208.41 1218.55
7250.36 835.103 906.745 1170.85 1191.56
7253.15 948.713 925.987 1195.43 1217.12
7255.95 994.145 952.411 1285.09 1246.12
7258.74 914.374 960.543 1257.85 1248.94
7261.54 973.109 960.235 1203.9 1241.98
7264.33 993.223 988.23 1264.19 1248.26
7267.12 998.357 983.062 1276.7 1249.41
7269.92 957.605 966.968 1207.35 1226.7
7272.71 944.942 964.626 1196.04 1218.38
7275.5 991.332 961.933 1251.75 1227.4
7278.3 949.524 952.95 1234.43 1221.5
7281.09 917.992 957.705 1178.31 1224.19
7283.88 1005.6 926.812 1259.84 1166.65
7286.68 856.843 920.408 1061.81 1161.56
7289.47 898.782 892.066 1163.04 1123.03
7292.26 920.574 922.115 1144.24 1177.68
7295.05 946.988 930.909 1225.77 1171.48
7297.84 925.164 943.025 1144.43 1192.93
7300.64 956.922 945.387 1208.58 1184.34
7303.43 954.075 949.518 1200 1195.82
7306.22 937.557 928.461 1178.88 1199.52
7309.01 893.752 922.988 1219.7 1190.46
7311.8 937.655 910.211 1172.8 1215.32
7314.59 899.225 948.419 1253.46 1229.44
7317.38 1008.38 972.157 1262.06 1277.97
7320.17 1008.87 1009.86 1318.39 1268.74
7322.96 1012.33 958.597 1225.77 1238.68
7325.75 854.592 956.902 1171.88 1216.06
7328.54 1003.78 948.775 1250.54 1207.56
7331.33 987.95 993.046 1200.26 1216.22
7334.12 987.405 998.512 1197.86 1203.37
7336.91 1020.18 948.572 1211.98 1188.34
7339.7 838.129 946.811 1155.18 1185
7342.49 982.123 922.383 1187.83 1197.52
7345.28 946.896 955.165 1249.54 1211.65
7348.06 936.475 950.45 1197.56 1218.41
7350.85 967.979 939.685 1208.13 1195.8
7353.64 914.601 923.626 1181.72 1185.48
7356.43 888.3 892.024 1166.58 1170.41
7359.22 873.172 883.536 1162.94 1133.67
7362 889.138 876.769 1071.47 1133.35
7364.79 867.996 838.948 1165.63 1120.8
7367.58 759.709 865.105 1125.29 1149.98
7370.36 967.611 899.052 1159.03 1157.63
7373.15 969.838 960.551 1188.59 1172.7
7375.94 944.206 961.613 1170.5 1173.54
7378.72 970.796 938.91 1161.55 1156.79
7381.51 901.727 938.741 1138.34 1145.37
7384.3 943.701 923.907 1136.22 1116.18
7387.08 926.295 940.993 1073.97 1120.56
7389.87 952.984 911.53 1151.47 1108.92
7392.65 855.31 924.894 1101.33 1128.83
7395.44 966.389 919.013 1133.7 1113.99
7398.22 935.341 948.051 1106.94 1128.18
7401.01 942.424 927.177 1143.91 1109
7403.79 903.768 936.751 1076.14 1137.82
7406.58 964.063 925.569 1193.41 1133.18
7409.36 908.877 935.543 1130 1145.27
7412.14 933.688 925.627 1112.39 1116.77
7414.93 934.317 925.81 1107.93 1088.11
7417.71 909.424 917.025 1044 1085.68
7420.5 907.333 924.999 1105.12 1101.3
7423.28 958.239 932.8 1154.78 1131.74
7426.06 932.828 931.847 1135.32 1116.32
7428.84 904.472 948.053 1058.87 1128.45
7431.63 1006.86 945.237 1191.17 1143.7
7434.41 924.38 871.553 1181.06 1143.01
7437.19 683.421 769.983 1056.8 1091.88
7439.97 702.149 706.624 1037.8 1058.06
7442.76 734.303 724.374 1079.6 1072.21
7445.54 736.669 722.119 1099.24 1067.76
7448.32 695.386 726.146 1024.46 1062.95
7451.1 746.381 743.92 1065.15 1068.87
7453.88 789.993 763.695 1117.01 1075.05
7456.66 754.712 750.714 1042.98 1072.26
7459.44 707.437 745.217 1056.78 1071.93
7462.22 773.501 759.292 1116.02 1102.15
7465 796.938 773.193 1133.65 1118.75
7467.78 749.14 758.432 1106.58 1086.84
7470.56 729.217 747.939 1020.28 1088.76
7473.34 765.459 748.992 1139.41 1074.29
7476.12 752.301 748.178 1063.18 1059.92
7478.9 726.774 753.574 977.167 1063.02
7481.68 781.648 764.226 1148.7 1072.75
7484.46 784.257 778.654 1092.39 1120.48
7487.24 770.057 773.282 1120.34 1097.51
7490.02 765.532 756.679 1079.81 1094.27
7492.8 734.448 744.193 1082.66 1067.78
7495.57 732.599 748.829 1040.86 1066.36
7498.35 779.441 739.915 1075.57 1057.97
7501.13 707.705 741.558 1057.49 1069.07
7503.91 737.528 727.336 1074.14 1041.13
7506.68 736.775 728.019 991.763 1015.36
7509.46 709.753 735.434 980.191 1001.32
7512.24 759.774 741.526 1032 1018.28
7515.01 755.05 747.238 1042.67 1015.26
7517.79 726.89 746.812 971.105 1024.01
7520.57 758.496 726.7 1058.26 1020.53
7523.34 694.713 734.741 1032.21 1047.44
7526.12 751.013 716.817 1051.84 1021.64
7528.9 704.724 733.553 980.858 1038.84
7531.67 744.92 725.66 1083.84 1032.58
7534.45 727.337 736.58 1033.05 1065.43
7537.22 737.482 729.537 1079.41 1042.2
7540 723.793 742.957 1014.14 1047.7
7542.77 767.596 752.297 1049.53 1028
7545.55 765.503 747.407 1020.33 1010.53
7548.32 709.122 737.763 961.712 994.931
7551.09 738.665 734.868 1002.75 976.474
7553.87 756.817 741.82 964.964 972.946
7556.64 729.979 742.937 951.127 967.065
7559.41 742.016 740.755 985.104 988.045
7562.19 750.271 732.335 1027.9 990.17
7564.96 704.719 713.117 957.503 978.364
7567.73 684.362 715.047 949.685 973.135
7570.51 756.061 715.6 1012.22 979.055
7573.28 706.377 725.228 975.264 1000.7
7576.05 713.245 710.424 1014.62 982.653
7578.82 711.649 694.418 958.08 958.703
7581.6 658.359 695.889 903.413 948.377
7584.37 717.658 682.893 983.638 940.459
7587.14 672.661 669.766 934.326 928.377
7589.91 618.98 584.879 867.165 817.944
7592.68 462.996 465.06 652.339 652.92
7595.45 313.204 341.987 439.257 485.586
7598.22 249.762 255.299 365.163 358.768
7600.99 202.931 220.751 271.884 308.81
7603.76 209.561 204.067 289.384 275.439
7606.53 199.711 230.415 265.049 298.58
7609.3 281.973 290.243 341.306 370.627
7612.07 389.045 372.321 505.525 464.988
7614.84 445.945 443.208 548.133 553.386
7617.61 494.635 448.888 606.5 581.346
7620.38 406.084 429.343 589.404 573.174
7623.15 387.311 387.063 523.618 527.606
7625.92 367.796 375.411 469.796 494.278
7628.69 371.127 376.375 489.421 480.66
7631.46 390.202 395.462 482.761 516.089
7634.22 425.057 401.916 576.084 530.666
7636.99 390.488 423.829 533.154 553.893
7639.76 455.942 433.13 552.439 559.98
7642.53 452.96 453.786 594.347 567.366
7645.29 452.457 478.395 555.312 602.163
7648.06 529.767 493.538 656.83 618.286
7650.83 498.39 514.276 642.717 648.902
7653.59 514.671 507.491 647.16 664.723
7656.36 509.413 519.506 704.293 669.125
7659.13 534.434 539.675 655.923 684.847
7661.89 575.177 558.692 694.325 697.12
7664.66 566.465 591.418 741.112 747.278
7667.42 632.611 616.308 806.398 800.557
7670.19 649.848 634.911 854.159 816.896
7672.95 622.273 628.25 790.131 804.135
7675.72 612.63 632.396 768.114 782.661
7678.48 662.286 659.907 789.737 816.119
7681.25 704.804 677.063 890.507 820.409
7684.01 664.099 686.302 780.984 828.956
7686.78 690.003 668.952 815.375 815.65
7689.54 652.754 665.433 850.591 818.019
7692.3 653.541 657.773 788.091 827.283
7695.07 667.023 658.928 843.166 808.402
7697.83 656.218 672.803 793.949 826.954
7700.59 695.167 669.269 843.748 820.9
7703.36 656.422 671.057 825.003 845.576
7706.12 661.581 657.958 867.976 813.88
7708.88 655.871 661.8 748.662 769.461
7711.64 667.948 642.384 691.745 735.728
7714.41 603.332 634.044 766.776 736.224
7717.17 630.853 617.803 750.151 782.199
7719.93 619.223 636.551 829.669 800.439
7722.69 659.578 648.333 821.496 837.323
7725.45 666.197 661.551 860.805 844.063
7728.21 658.879 651.17 849.887 839.05
7730.97 628.434 654.502 806.457 831.769
7733.73 676.191 654.738 838.963 823.679
7736.49 659.588 661.965 825.615 816.375
7739.25 650.117 643.383 784.546 787.31
7742.01 620.445 631.565 751.769 739.097
7744.77 624.134 626.945 680.976 716.913
7747.53 636.257 645.493 717.992 706.159
7750.29 676.088 656.082 719.508 738.026
7753.05 655.901 673.67 776.578 782.751
7755.81 689.02 667.585 852.168 809.599
7758.57 657.835 688.32 800.05 836.104
7761.33 718.106 673.448 856.094 802.509
7764.09 644.403 678.266 751.381 805.444
7766.84 672.29 644.551 808.856 757.058
7769.6 616.96 667.973 710.939 785.506
7772.36 714.669 664.607 836.725 771.029
7775.12 662.192 677.624 765.424 773.821
7777.87 656.01 661.928 719.314 742.377
7780.63 667.582 655.857 742.394 738.267
7783.39 643.979 652.807 753.093 753.29
7786.14 646.859 667.323 764.382 761.995
7788.9 711.132 677.678 768.511 767.7
7791.66 675.043 693.217 770.208 750.341
7794.41 693.477 658.127 712.305 728.281
7797.17 605.861 647.782 702.33 731.765
7799.92 644.007 623.844 780.661 714.881
7802.68 621.665 638.323 661.651 734.255
7805.43 649.297 635.629 760.451 713.34
7808.19 635.926 651.512 717.918 756.615
7810.94 669.313 648.854 791.476 742.581
7813.7 641.323 660.355 718.351 743.008
7816.45 670.428 657.143 719.198 730.088
7819.2 659.677 662.031 752.717 734.414
7821.96 655.987 656.339 731.329 738.163
7824.71 653.352 652.669 730.445 729.936
7827.46 648.669 619.102 728.034 703.472
7830.22 555.286 621.015 651.937 706.97
7832.97 659.09 623.971 740.939 697.728
7835.72 657.538 647.124 700.308 705.23
7838.48 624.743 638.051 674.444 699.838
7841.23 631.87 634.219 724.763 700.603
7843.98 646.044 616.532 702.601 676.397
7846.73 571.681 626.274 601.828 660.783
7849.48 661.098 626.65 677.919 661.996
7852.23 647.171 649.459 706.241 726.941
7854.99 640.107 630.356 796.664 745.041
7857.74 603.79 627.233 732.217 750.15
7860.49 637.802 608.575 721.569 706.216
7863.24 584.133 605.314 664.862 688.644
7865.99 594.006 606.523 679.502 687.08
7868.74 641.431 608.986 716.877 680.222
7871.49 591.521 602.951 644.288 661.584
7874.24 575.901 600.768 623.587 654.972
7876.99 634.882 602.547 697.04 649.06
7879.74 596.857 627.407 626.552 678.055
7882.48 650.483 622.395 710.574 659.64
7885.23 619.846 626.579 641.792 666.21
7887.98 609.408 595.2 646.262 630.631
7890.73 556.345 567.375 603.839 620.287
7893.48 536.373 559.517 610.759 623.047
7896.23 585.832 565.83 654.544 633.642
7898.97 575.286 563.994 635.624 631.548
7901.72 530.864 573.312 604.475 626.649
7904.47 613.786 579.508 639.847 597.967
7907.21 593.874 606.564 549.579 585.262
7909.96 612.031 618.353 566.359 562.892
7912.71 649.155 617.269 572.737 595.19
7915.45 590.621 614.708 646.472 625.897
7918.2 604.348 585.08 658.481 651.889
7920.95 560.271 585.61 650.714 638.018
7923.69 592.209 570.252 604.859 614.632
7926.44 558.276 563.113 588.322 600.041
7929.18 538.854 551.847 606.941 603.006
7931.93 558.41 547.49 613.755 603.896
7934.67 545.205 561.352 590.992 617.29
7937.42 580.44 552.319 647.123 606.228
7940.16 531.311 569.324 580.569 610.764
7942.9 596.219 557.763 604.599 578.662
7945.65 545.758 571.089 550.818 586.966
7948.39 571.291 558.035 605.481 582.781
7951.13 557.056 572.943 592.045 607.664
7953.88 590.482 574.605 625.464 606.37
7956.62 576.278 586.119 601.6 612.859
7959.36 591.597 580.23 611.512 590.625
7962.11 572.815 579.073 558.765 564.362
7964.85 572.807 596.076 522.81 584.65
7967.59 642.606 597.259 672.375 613.612
7970.33 576.366 589.149 645.65 622.453
7973.07 548.475 577.805 549.336 593.995
7975.81 608.575 588.41 586.998 580.317
7978.56 608.18 604.67 604.616 584.229
7981.3 597.254 591.516 561.072 570.201
7984.04 569.113 586.945 544.917 573.203
7986.78 594.468 576.083 613.619 557.792
7989.52 564.669 568.986 514.841 548.999
7992.26 547.819 569.248 518.536 542.061
7995 595.255 573.32 592.806 568.328
7997.74 576.886 584.754 593.644 585.29
8000.48 582.121 567.645 569.422 587.225
8003.22 543.929 569.076 598.608 589.693
8005.95 581.178 566.343 601.048 586.61
8008.69 573.922 578.263 560.173 588.109
8011.43 579.688 489.637 603.105 517.736
8014.17 315.301 413.604 389.929 457.481
8016.91 345.823 298.396 379.407 373.236
8019.64 234.065 291.946 350.371 346.291
8022.38 295.952 354.826 309.095 384.011
8025.12 534.46 452.965 492.569 422.77
8027.86 528.483 545.727 466.646 517.209
8030.59 574.238 543.079 592.411 531.478
8033.33 526.515 541.636 535.377 550.643
8036.07 524.154 537.58 524.142 534.465
8038.8 562.072 529.399 543.875 527.674
8041.54 501.972 527.553 515.006 520.772
8044.27 518.617 528.44 503.435 519.066
8047.01 564.731 539.434 538.757 517.777
8049.74 534.954 559.357 511.14 538.088
8052.48 578.386 568.132 564.367 544.263
8055.21 591.056 567.143 557.283 543.298
8057.95 531.987 567.81 508.245 533.546
8060.68 580.387 559.257 535.109 538.968
8063.42 565.397 569.306 573.549 544.91
8066.15 562.134 550.306 526.07 530.132
8068.88 523.386 534.341 490.777 512.788
8071.62 517.504 526.454 521.516 502.966
8074.35 538.473 542.116 496.604 507.171
8077.08 570.372 542.201 503.393 499.428
8079.82 517.758 536.572 498.287 500.012
8082.55 521.587 504.824 498.357 486.822
8085.28 475.126 505.831 463.824 482.118
8088.01 520.781 497.468 484.174 479.256
8090.75 496.496 507.355 489.77 484.717
8093.48 504.787 516.524 480.209 484.297
8096.21 548.287 511.702 482.912 489.458
8098.94 482.031 505.677 505.254 476.428
8101.67 486.713 493.814 441.118 473.151
8104.4 512.698 517.149 473.081 478.747
8107.13 552.036 527.478 522.042 486.575
8109.86 517.701 531.692 464.602 479.521
8112.59 525.339 517.409 451.919 467.794
8115.32 509.188 513.647 486.863 467.541
8118.05 506.416 519.271 463.842 487.6
8120.78 542.209 518.958 512.094 480.089
8123.51 508.251 522.769 464.331 485.426
8126.24 517.847 523.542 479.854 488.859
8128.96 544.527 524.118 522.394 487.007
8131.69 509.981 522.163 458.774 491.477
8134.42 511.98 494.851 493.264 459.509
8137.15 462.59 489.032 426.488 461.516
8139.88 492.525 479.039 464.795 452.472
8142.6 482.003 486.665 466.132 461.915
8145.33 485.468 489.483 454.817 460.365
8148.06 500.978 487.656 460.147 450.064
8150.78 476.523 489.679 435.228 437.459
8153.51 491.537 488.211 417.001 434.599
8156.24 496.572 479.877 451.569 434.231
8158.96 451.523 472.933 434.123 433.725
8161.69 470.702 465.774 415.483 423.899
8164.41 475.095 456.732 422.091 401.894
8167.14 424.399 458.708 368.106 400.783
8169.86 476.63 462.38 412.153 396.936
8172.59 486.111 495.853 410.549 426.063
8175.31 524.82 487.613 455.489 428.036
8178.04 451.909 478.599 418.07 431.438
8180.76 459.07 459.004 420.756 410.192
8183.49 466.034 469.053 391.75 414.66
8186.21 482.056 475.963 431.473 410.471
8188.93 479.799 477.482 408.189 411.918
8191.66 470.592 465.989 396.09 399.03
8194.38 447.574 474.858 392.811 410.899
8197.1 506.409 469.916 443.795 405.329
8199.82 455.764 488.37 379.382 425.557
8202.55 502.936 485.709 453.494 419.912
8205.27 498.426 504.346 426.862 437.298
8207.99 511.677 488.455 431.537 425.85
8210.71 455.262 479.893 419.152 420.177
8213.43 472.74 470.358 409.842 421.24
8216.15 483.071 470.458 434.726 423.455
8218.87 455.564 472.189 425.798 427.263
8221.59 477.931 461.826 421.264 409.164
8224.31 451.982 456.668 380.429 392.032
8227.03 440.09 449.058 374.402 386.278
8229.75 455.103 451.339 404.003 393.288
8232.47 458.823 465.475 401.458 403.942
8235.19 482.5 469.93 406.365 403.232
8237.91 468.469 472.611 401.872 404.228
8240.63 466.865 460.444 404.446 392.087
8243.35 445.998 455.315 369.943 387.566
8246.07 453.082 465.321 388.308 394.808
8248.78 496.884 483.782 426.173 409.03
8251.5 501.381 487.501 412.61 416.417
8254.22 464.237 463.137 410.467 392.55
8256.94 423.792 458.027 354.572 386.79
8259.65 486.052 459.178 395.33 381.306
8262.37 467.691 479.602 394.014 402.336
8265.09 485.063 474.508 417.665 398.558
8267.8 470.772 478.265 383.994 397.832
8270.52 478.962 467.682 391.836 380.152
8273.24 453.312 473.084 364.626 374.028
8275.95 486.978 465.638 365.623 366.021
8278.67 456.625 474.654 367.816 371.544
8281.38 480.36 457.956 381.193 358.741
8284.1 436.882 451.321 327.215 365.591
8286.81 436.72 442.462 388.364 363.151
8289.53 453.784 426.057 373.873 382.973
8292.24 387.667 399.005 386.681 371.142
8294.95 355.563 373.736 352.872 353.269
8297.67 377.979 377.214 320.255 341.192
8300.38 398.101 385.656 350.447 346.068
8303.09 380.888 369.872 367.5 367.669
8305.81 330.627 359.642 385.059 380.111
8308.52 367.411 346.803 387.774 379.262
8311.23 342.372 361.859 364.952 385.072
8313.94 375.794 362.915 402.489 376.772
8316.66 370.58 381.522 362.875 384.108
8319.37 398.193 387.765 386.96 378.247
8322.08 394.524 387.559 384.907 389.803
8324.79 369.961 366.847 397.543 371.696
8327.5 336.056 291.053 332.638 309.008
8330.21 167.142 226.315 196.842 254.081
8332.92 175.748 167.037 232.763 212.549
8335.63 158.223 250.451 208.041 272.526
8338.34 417.381 327.347 376.774 304.847
8341.05 406.437 402.654 329.726 356.617
8343.76 384.144 377.938 363.349 365.282
8346.47 343.233 363.663 402.769 377.521
8349.18 363.611 350.561 366.444 375.627
8351.89 344.84 361.689 357.666 358.585
8354.6 376.617 355.33 351.643 353.166
8357.31 344.532 362.07 350.189 332.233
8360.01 365.059 368.979 294.866 356.506
8362.72 397.345 378.439 424.464 354.203
8365.43 372.914 376.298 343.281 378.542
8368.14 358.636 371.579 367.88 358.646
8370.84 383.188 366.809 364.777 357.587
8373.55 358.604 373.515 340.103 360.521
8376.26 378.753 376.204 376.683 348.278
8378.96 391.254 368.925 328.047 357.041
8381.67 336.767 374.111 366.393 343.009
8384.38 394.311 368.024 334.585 339.834
8387.08 372.995 382.849 318.524 338.932
8389.79 381.243 372.029 363.685 350.306
8392.49 361.85 384.021 368.709 360.327
8395.2 408.968 384.299 348.587 340.858
8397.9 382.077 403.679 305.276 327.416
8400.61 419.993 388.642 328.386 324.985
8403.31 363.857 313.627 341.291 290.768
8406.01 157.031 236.056 202.627 251.405
8408.72 187.279 240.567 210.298 252.3
8411.42 377.392 311.29 343.976 294.322
8414.12 369.199 391.426 328.691 342.467
8416.83 427.688 388.878 354.734 356.597
8419.53 369.746 397.918 386.365 353.776
8422.23 396.321 382.417 320.229 345.979
8424.93 381.183 372.156 331.343 326.636
8427.63 338.966 381.893 328.335 328.468
8430.34 425.531 373.954 325.727 322.452
8433.04 357.364 372.359 313.295 321.804
8435.74 334.182 356.525 326.39 329.444
8438.44 378.028 364.317 348.649 333.64
8441.14 380.741 382.435 325.882 345.227
8443.84 388.536 395.185 361.152 330.607
8446.54 416.278 393.263 304.788 327.475
8449.24 374.975 392.884 316.486 309.406
8451.94 387.401 374.662 306.942 325.298
8454.64 361.611 380.017 352.466 323.94
8457.34 391.039 370.711 312.41 321.35
8460.04 359.483 379.894 299.172 293.072
8462.74 389.162 375.154 267.633 259.536
8465.43 376.819 387.885 211.802 265.697
8468.13 397.673 377.104 317.657 271.405
8470.83 356.82 373.791 284.755 307.502
8473.53 366.88 373.56 320.093 303.302
8476.22 396.982 387.571 305.058 321.695
8478.92 398.851 398.888 339.934 337.132
8481.62 400.831 403.331 366.405 347.05
8484.31 410.31 392.175 334.811 331.349
8487.01 365.382 386.611 292.831 308.99
8489.71 384.139 370.322 299.327 286.791
8492.4 361.444 361.623 268.214 280.691
8495.1 339.285 343.616 274.532 269.181
8497.79 330.118 341.121 264.796 274.386
8500.49 353.958 348.76 283.83 277.976
8503.18 362.203 362.244 285.303 281.856
8505.88 370.57 369.559 276.436 283.599
8508.57 375.905 369.347 289.058 301.864
8511.27 361.566 366.834 340.099 307.932
8513.96 363.031 373.332 294.639 314.734
8516.65 395.398 368.136 309.465 301.442
8519.35 345.978 373.144 300.221 307.264
8522.04 378.057 360.747 312.107 303.849
8524.73 358.207 372.418 299.219 311.988
8527.42 380.99 370.61 324.636 305.313
8530.12 372.633 364.687 292.083 300.134
8532.81 340.44 346.619 283.684 269.091
8535.5 326.785 316.738 231.507 237.22
8538.19 282.989 293.148 196.471 228.943
8540.88 269.671 295.457 258.851 236.857
8543.57 333.712 322.938 255.25 255.214
8546.26 365.432 359.108 251.542 270.674
8548.95 378.181 378.83 305.23 281.364
8551.64 392.875 384.133 287.321 294.398
8554.33 381.342 397.359 290.642 301.325
8557.02 417.859 394.676 326.013 304.287
8559.71 384.827 402.135 296.206 314.004
8562.4 403.718 394.168 319.793 306.711
8565.09 393.958 398.26 304.134 302.226
8567.78 397.103 395.449 282.75 286.294
8570.47 395.285 407.952 271.998 288.53
8573.15 431.467 410.057 310.84 288.395
8575.84 403.42 398.925 282.347 291.365
8578.53 361.887 388.722 280.909 289.213
8581.22 400.857 388.555 304.383 291.102
8583.9 402.922 406.078 288.015 298.159
8586.59 414.453 409.298 302.078 311.496
8589.28 410.519 407.368 344.397 324.797
8591.96 397.133 395.412 327.916 317.057
8594.65 378.586 402.297 278.859 306.82
8597.33 431.173 404.419 313.686 291.659
8600.02 403.497 412.141 282.432 295.426
8602.7 401.752 404.381 290.159 288.04
8605.39 407.896 414.639 291.527 294.758
8608.07 434.27 402.563 302.586 295.222
8610.76 365.524 394.334 291.552 280.821
8613.44 383.207 376.818 248.325 273.052
8616.13 381.723 389.914 279.279 272.113
8618.81 404.81 398.764 288.734 280.099
8621.49 409.759 411.723 272.284 283.908
8624.18 420.601 397.04 290.707 289.554
8626.86 360.76 397.546 305.671 292.651
8629.54 411.277 384.179 281.575 267.941
8632.22 380.501 389.316 216.576 245.833
8634.91 376.171 390.122 239.35 244.825
8637.59 413.694 406.036 278.55 268.825
8640.27 428.245 405.388 288.576 279.44
8642.95 374.226 396.579 271.193 256.694
8645.63 387.266 387.083 210.313 240.456
8648.31 399.756 402.44 239.861 249.727
8650.99 420.297 403.128 299.006 263.995
8653.67 389.33 392.075 253.117 257.317
8656.35 366.599 347.359 219.827 218.487
8659.03 286.149 315.805 182.515 200.026
8661.71 294.667 305.058 197.736 183.122
8664.39 334.358 334.948 169.114 193.524
8667.07 375.818 357.439 213.721 194.46
8669.75 362.14 376.31 200.544 220.237
8672.43 390.971 385.698 246.447 243.44
8675.1 403.983 398.201 283.329 242.078
8677.78 399.649 401.487 196.457 233.449
8680.46 400.829 408.274 220.56 226.71
8683.14 424.343 410.199 263.113 243.396
8685.81 405.426 411.292 246.515 258.287
8688.49 404.108 402.652 265.233 245.323
8691.17 398.423 412.884 224.22 245.613
8693.84 436.121 412.273 247.385 243.134
8696.52 402.275 420.58 257.797 248.868
8699.19 423.344 401.896 241.421 241.912
8701.87 380.067 401.424 226.519 232.425
8704.54 400.86 402.009 229.334 235.822
8707.22 425.1 427.099 251.612 243.224
8709.89 455.336 429.638 248.726 242.926
8712.57 408.477 428.491 228.44 237.599
8715.24 421.659 418.391 235.632 244.827
8717.91 425.038 429.382 270.409 247.485
8720.59 441.45 418.128 236.414 244.477
8723.26 387.896 409.587 226.608 235.147
8725.93 399.416 388.658 242.418 225.197
8728.61 378.662 402.009 206.565 228.868
8731.28 427.949 402.763 237.622 237.319
8733.95 401.679 404.872 267.771 236.32
8736.62 384.989 398.446 203.568 229.831
8739.29 408.669 398.809 218.153 215.235
8741.97 402.768 417.825 223.983 236.531
8744.64 442.039 416.116 267.458 247.314
8747.31 403.541 412.568 250.5 250.925
8749.98 392.125 397.79 234.817 234.443
8752.65 397.703 397.832 218.013 217.693
8755.32 403.669 400.089 200.25 202.358
8757.99 398.895 413.019 188.81 201.271
8760.66 436.493 425.43 214.752 212.768
8763.33 440.902 432.3 234.743 191.625
8766 419.506 427.018 125.379 186.202
8768.66 420.646 420.267 198.486 172.043
8771.33 420.65 399.73 192.264 184.213
8774 357.892 405.618 161.888 205.798
8776.67 438.312 405.215 263.241 213.568
8779.34 419.439 431.23 215.574 233.565
8782 435.94 401.788 221.881 203.183
8784.67 349.984 387.353 172.094 188.406
8787.34 376.136 378.928 171.244 178.476
8790 410.664 397.02 192.089 198.899
8792.67 404.261 402.638 233.363 198.688
8795.33 392.991 396.705 170.613 199.362
8798 392.865 411.981 194.108 205.068
8800.67 450.089 406.338 250.482 217.502
8803.33 376.061 391.597 207.915 215.922
8806 348.64 364.978 189.369 194.401
8808.66 370.232 371.974 185.92 202.007
8811.32 397.05 387.897 230.733 202.027
8813.99 396.408 403.249 189.428 205.651
8816.65 416.29 422.655 196.791 197.277
8819.31 455.267 420.624 205.614 197.202
8821.98 390.315 420.64 189.203 186.388
8824.64 416.338 405.39 164.348 174.299
8827.3 409.516 386.032 169.345 162.354
8829.97 332.243 366.553 153.368 202.902
8832.63 357.901 360.717 285.993 229.422
8835.29 392.007 370.827 248.903 216.396
8837.95 362.574 391.168 114.291 188.264
8840.61 418.923 391.204 201.597 177.346
8843.27 392.115 414.591 216.149 207.034
8845.93 432.736 412.115 203.355 213.11
8848.59 411.496 413.499 219.825 212.057
8851.25 396.266 400.517 212.992 184.624
8853.91 393.79 404.434 121.056 177.439
8856.57 423.246 396.777 198.268 169.394
8859.23 373.294 398.505 188.857 185.228
8861.89 398.975 385.816 168.558 191.087
8864.55 385.18 386.016 215.848 179.341
8867.21 373.894 379.174 153.618 180.15
8869.87 378.45 386.962 170.986 160.394
8872.52 408.543 388.597 156.578 165.136
8875.18 378.798 397.848 167.844 156.66
8877.84 406.202 390.422 145.557 148.849
8880.5 386.267 401.958 133.146 147.67
8883.15 413.404 418.511 164.307 181.157
8885.81 455.861 424.11 246.02 207.614
8888.47 403.065 428.555 212.516 250.554
8891.12 426.738 407.794 293.127 186.92
8893.78 393.578 407.304 55.1172 123.368
8896.43 401.596 403.743 21.8594 71.0556
8899.09 416.055 405.756 136.19 118.192
8901.74 399.618 414.677 196.525 185.676
8904.4 428.359 409.053 224.312 187.126
8907.05 399.182 401.162 140.541 157.854
8909.7 375.945 389.689 108.708 107.596
8912.36 393.941 378.931 73.538 69.4763
8915.01 366.907 377.82 26.1834 102.731
8917.66 372.612 375.019 208.472 145.671
8920.32 385.537 375.78 202.357 207.681
8922.97 369.192 372.433 212.214 133.983
8925.62 362.57 359.494 -12.6233 -19.7754
8928.27 346.719 362.065 -258.917 -137.6
8930.93 376.905 366.084 -141.259 -120.791
8933.58 374.627 383.363 37.804 13.6767
8936.23 398.558 388.079 144.485 98.9527
8938.88 391.051 403.249 114.57 147.469
8941.53 420.137 389.36 183.354 167.459
8944.18 356.892 385.438 204.453 187.745
8946.83 379.286 363.643 175.429 148.013
8949.48 354.751 377.832 64.1577 105.867
8952.13 399.458 362.285 78.0135 83.9786
8954.78 332.647 376.014 109.765 146.111
8957.43 395.938 357.085 250.555 194.882
8960.07 342.671 349.289 224.326 202.961
8962.72 309.257 335.831 134.002 105.876
8965.37 355.565 331.436 -40.6996 -21.9944
8968.02 329.486 354.819 -159.286 -47.6267
8970.67 379.406 355.161 57.1053 1.6806
8973.31 356.591 368.233 107.222 105.507
8975.96 368.703 365.619 152.192 131.333
8978.61 371.562 367.298 134.584 154.141
8981.25 361.63 355.001 175.645 147.798
8983.9 331.81 348.875 133.166 167.012
8986.54 353.184 343.953 192.226 190.996
8989.19 346.865 335.601 247.598 190.958
8991.84 306.753 331.396 133.049 173.854
8994.48 340.57 329.382 140.915 123.901
8997.12 340.821 335.933 97.7406 133.439
8999.77 326.408 355.267 161.661 171.109
9002.41 398.571 339.872 253.924 216.668
9005.06 294.637 339.637 234.418 183.674
9007.7 325.705 328.235 62.6793 95.9882
9010.34 364.365 344.882 -9.13289 37.0252
9012.99 344.577 352.965 57.5293 66.0194
9015.63 349.953 342.248 149.662 128.776
9018.27 332.213 342.922 179.137 157.691
9020.91 346.601 339.93 144.275 160.724
9023.55 340.975 338.517 158.759 144.315
9026.2 327.976 344.174 129.91 156.907
9028.84 363.572 352.315 182.051 158.981
9031.48 365.397 364.836 164.982 174.532
9034.12 365.54 369.159 176.564 172.866
9036.76 376.541 367.281 177.054 170.337
9039.4 359.761 361.362 157.393 170.797
9042.04 347.782 352.579 177.945 156.146
9044.68 350.194 368.759 133.1 159.513
9047.32 408.3 370.056 167.494 171.761
9049.96 351.675 372.751 214.688 171.311
9052.59 358.279 357.187 131.751 155.38
9055.23 361.606 360.363 119.703 101.588
9057.87 361.203 348.903 53.3111 81.2028
9060.51 323.901 339.643 70.5948 84.972
9063.15 333.824 333.665 131.01 118.112
9065.78 343.269 341.751 152.73 145.294
9068.42 348.158 348.675 152.142 158.287
9071.06 354.597 349.314 169.989 149.894
9073.69 345.186 319.166 127.551 133.34
9076.33 257.716 259.48 102.478 98.3887
9078.96 175.538 144.418 65.1367 55.8716
