wavelength spectrum_sum 3smoothed_sum spectrum_optimal 3smoothed_optimal
3508.82 30.5112 27.7916 16.7469 17.4517
3511.74 52.8637 54.6248 35.6082 41.1849
3514.65 80.4995 63.0536 71.1997 49.6628
3517.57 55.7977 67.3131 42.1805 53.6591
3520.48 65.6421 56.7093 47.5972 44.4495
3523.39 48.6882 53.2162 43.5707 38.0156
3526.31 45.3181 47.7249 22.879 35.4825
3529.22 49.1683 56.0291 39.9979 39.3657
3532.14 73.601 59.2047 55.2202 42.7732
3535.05 54.8447 65.7261 33.1016 49.0321
3537.96 68.7326 67.6669 58.7745 51.3559
3540.88 79.4235 69.6365 62.1917 59.7163
3543.79 60.7533 72.3932 58.1827 63.2787
3546.7 77.0028 78.0491 69.4617 69.7514
3549.62 96.3912 82.7937 81.6099 69.2518
3552.53 74.9871 81.5457 56.6839 69.1102
3555.45 73.2589 75.8069 69.0369 68.8778
3558.36 79.1747 81.7311 80.9126 68.7776
3561.27 92.7596 84.0307 56.3834 65.4449
3564.19 80.1578 75.9456 59.0387 56.8555
3567.1 54.9193 67.5382 55.1444 55.4136
3570.02 67.5374 62.3164 52.0578 56.0894
3572.93 64.4925 67.4738 61.0659 58.0373
3575.84 70.3914 70.3228 60.9883 60.2929
3578.76 76.0846 70.9806 58.8245 52.3717
3581.67 66.4658 67.4149 37.3023 50.6947
3584.58 59.6944 65.4663 55.9573 48.4739
3587.5 70.2388 65.3575 52.1622 59.5122
3590.41 66.1395 77.4976 70.4172 69.6087
3593.33 96.1145 85.3379 86.2466 82.9873
3596.24 93.7596 96.2663 92.2981 87.1145
3599.15 98.9248 92.2213 82.799 79.9609
3602.07 83.9793 85.7723 64.7857 73.7783
3604.98 74.4129 75.9889 73.7502 64.3268
3607.9 69.5747 79.915 54.4445 66.5734
3610.81 95.7575 87.1731 71.5254 71.9876
3613.72 96.1873 92.5928 89.9929 79.9953
3616.64 85.8337 93.0174 78.4675 80.3237
3619.55 97.0311 100.338 72.5107 87.6619
3622.46 118.148 108.396 112.008 96.1804
3625.38 110.01 123.427 104.023 117.801
3628.29 142.124 120.01 137.373 114.157
3631.2 107.897 121.154 101.074 112.953
3634.12 113.443 118.414 100.413 113.748
3637.03 133.902 118.431 139.756 110.806
3639.95 107.949 114.646 92.2486 104.623
3642.86 102.089 107.667 81.8647 90.7942
3645.77 112.963 111.036 98.2692 94.2018
3648.69 118.055 117.753 102.472 102.616
3651.6 122.241 120.577 107.106 105.239
3654.51 121.435 121.311 106.14 110.638
3657.43 120.256 123.735 118.668 117.275
3660.34 129.514 124.512 127.016 121.726
3663.25 123.765 127.464 119.493 119.221
3666.17 129.112 129.636 111.154 112.449
3669.08 136.032 125.012 106.699 108.378
3672 109.894 126.092 107.28 115.838
3674.91 132.35 128.814 133.537 122.148
3677.82 144.198 130.892 125.627 124.922
3680.74 116.128 125.725 115.602 111.319
3683.65 116.848 124.973 92.729 107.007
3686.56 141.943 126.71 112.691 108.547
3689.48 121.339 133.84 120.22 118.576
3692.39 138.239 133.435 122.818 125.917
3695.3 140.726 143.232 134.711 125.711
3698.22 150.731 137.632 119.603 121.732
3701.13 121.439 140.333 110.883 115.971
3704.04 148.828 143.038 117.427 123.733
3706.96 158.845 161.121 142.889 137.89
3709.87 175.688 167.777 153.353 151.027
3712.78 168.796 163.054 156.84 140.464
3715.7 144.676 156.201 111.2 134.219
3718.61 155.132 155.249 134.617 127.593
3721.52 165.939 150.853 136.961 136.441
3724.44 131.488 142.805 137.745 130.531
3727.35 130.987 146.91 116.888 135.158
3730.26 178.254 149.546 150.841 137.121
3733.18 139.398 164.585 143.633 146.814
3736.09 176.104 148.671 145.967 137.426
3739 130.511 156.28 122.679 140.687
3741.92 162.225 151.982 153.416 139.705
3744.83 163.209 162.042 143.021 146.603
3747.74 160.693 168.277 143.373 153.336
3750.66 180.929 172.401 173.615 160.502
3753.57 175.581 171.292 164.517 162.633
3756.48 157.368 172.065 149.766 159.026
3759.4 183.245 178.781 162.794 162.77
3762.31 195.729 181.345 175.75 160.179
3765.22 165.061 176.088 141.992 160.406
3768.14 167.474 183.148 163.477 167.246
3771.05 216.909 192.36 196.268 180.322
3773.96 192.697 205.805 181.221 192.836
3776.88 207.809 203.37 201.018 187.623
3779.79 209.604 213.725 180.629 198.413
3782.7 223.762 229.341 213.593 210.525
3785.61 254.655 223.816 237.352 211.629
3788.53 193.029 218.766 183.942 202.607
3791.44 208.614 199.615 186.526 189.283
3794.35 197.202 207.699 197.381 192.566
3797.27 217.281 211.724 193.791 205.087
3800.18 220.689 231.972 224.089 218.91
3803.09 257.946 233.267 238.85 220.139
3806.01 221.168 235.541 197.48 217.594
3808.92 227.509 239.39 216.452 221.507
3811.83 269.493 253.873 250.59 235.57
3814.74 264.616 260.213 239.668 244.839
3817.66 246.529 250.133 244.26 229.108
3820.57 239.253 235.967 203.395 215.968
3823.48 222.118 230.564 200.25 202.202
3826.4 230.319 217.237 202.961 195.546
3829.31 199.274 210.068 183.426 186.647
3832.22 200.611 204.317 173.552 184.47
3835.13 213.064 213.202 196.432 195.475
3838.05 225.932 225.144 216.44 210.91
3840.96 236.437 242.559 219.859 227.103
3843.87 265.308 259.119 245.009 238.601
3846.78 275.612 264.617 250.934 249.725
3849.7 252.932 263.639 253.233 249.822
3852.61 262.373 245.393 245.299 229.243
3855.52 220.873 250.589 189.199 226.64
3858.44 268.52 242.249 245.422 217.811
3861.35 237.354 258.736 218.811 238.382
3864.26 270.332 252.416 250.913 234.382
3867.17 249.561 260.907 233.423 244.119
3870.09 262.826 255.555 248.022 235.13
3873 254.277 251.645 223.945 233.676
3875.91 237.831 256.743 229.062 231.129
3878.82 278.119 254.462 240.381 231.355
3881.74 247.434 247.121 224.622 220.178
3884.65 215.81 249.227 195.532 225.273
3887.56 284.437 255.748 255.663 231.052
3890.47 266.997 277.379 241.959 250.485
3893.39 280.703 275.447 253.832 244.821
3896.3 278.641 283.453 238.672 254.843
3899.21 291.014 285.132 272.025 255.905
3902.12 285.741 299.881 257.02 281.534
3905.03 322.889 299.392 315.557 289.243
3907.95 289.547 312.309 295.153 304.758
3910.86 324.492 312.694 303.564 297.678
3913.77 324.042 312.237 294.317 288.288
3916.68 288.178 298.739 266.984 276.858
3919.6 283.997 277.511 269.274 262.778
3922.51 260.357 272.519 252.077 260.832
3925.42 273.204 263.629 261.145 247.847
3928.33 257.327 255.909 230.32 235.305
3931.24 237.195 240.299 214.449 212.069
3934.16 226.375 247.537 191.437 219.292
3937.07 279.042 254.035 251.991 220.599
3939.98 256.689 283.006 218.37 257.326
3942.89 313.286 287.449 301.617 258.792
3945.8 292.371 304.03 256.388 278.634
3948.72 306.433 306.93 277.897 275.498
3951.63 321.985 314.01 292.209 296.137
3954.54 313.612 306.099 318.305 287.64
3957.45 282.7 292.469 252.406 274.44
3960.36 281.094 265.746 252.607 238.48
3963.28 233.444 254.097 210.426 224.519
3966.19 247.753 248.905 210.523 224.403
3969.1 265.517 270.05 252.26 241.266
3972.01 296.878 302.811 261.017 278.087
3974.92 346.036 326.929 320.986 294.556
3977.84 337.872 342.077 301.666 309.99
3980.75 342.324 345.282 307.316 319.721
3983.66 355.65 369.243 350.181 354.893
3986.57 409.755 384.521 407.181 372.223
3989.48 388.158 412.693 359.308 393.307
3992.39 440.166 436.712 413.434 412.356
3995.31 481.812 451.896 464.326 416.931
3998.22 433.71 442.09 373.033 400.307
4001.13 410.748 417.569 363.563 376.261
4004.04 408.249 423.673 392.188 392.493
4006.95 452.023 440.733 421.729 403.365
4009.86 461.926 455.904 396.177 415.338
4012.77 453.763 458.271 428.109 421.868
4015.69 459.123 461.575 441.317 435.451
4018.6 471.838 469.871 436.925 440.121
4021.51 478.65 472.514 442.12 438.665
4024.42 467.053 477.116 436.95 440.087
4027.33 485.645 487.53 441.192 454.197
4030.24 509.893 493.687 484.45 471.263
4033.15 485.523 481.17 488.147 466.37
4036.07 448.095 490.302 426.514 469.668
4038.98 537.288 462.907 494.344 436.785
4041.89 403.336 471.409 389.496 443.561
4044.8 473.603 470.603 446.844 440.781
4047.71 534.869 492.134 486.002 470.126
4050.62 467.929 508.596 477.533 489.03
4053.53 522.99 487.442 503.555 473.542
4056.44 471.406 512.111 439.539 480.123
4059.35 541.937 488.64 497.275 462.629
4062.27 452.579 506.421 451.074 481.846
4065.18 524.748 493.333 497.188 479.141
4068.09 502.672 507.148 489.161 482.472
4071 494.023 497.846 461.066 475.073
4073.91 496.842 488.905 474.992 463.206
4076.82 475.85 483.901 453.561 459.129
4079.73 479.013 489.578 448.833 460.676
4082.64 513.872 486.031 479.633 463.771
4085.55 465.208 521.063 462.847 485.62
4088.46 584.111 544.818 514.38 513.97
4091.37 585.135 570.635 564.682 532.706
4094.29 542.658 564.958 519.056 531.975
4097.2 567.08 554.029 512.186 519.429
4100.11 552.349 558.58 527.045 521.822
4103.02 556.311 539.157 526.235 507.242
4105.93 508.811 546.221 468.444 508.619
4108.84 573.54 550.823 531.177 510.251
4111.75 570.117 551.614 531.133 508.366
4114.66 511.185 535.942 462.788 493.385
4117.57 526.524 547.245 486.236 513.465
4120.48 604.026 578.867 591.372 553.39
4123.39 606.052 604.917 582.561 582.281
4126.3 604.673 585.923 572.911 549.786
4129.21 547.045 583.533 493.886 550.991
4132.12 598.882 588.766 586.175 562.334
4135.03 620.371 614.409 606.942 597.217
4137.94 623.973 606.429 598.533 586.413
4140.85 574.944 613.659 553.763 583.559
4143.76 642.059 614.026 598.379 586.129
4146.67 625.073 616.989 606.244 579.216
4149.58 583.836 618.491 533.023 589.06
4152.49 646.564 617.054 627.912 581.076
4155.4 620.761 636.144 582.293 597.216
4158.31 641.108 637.09 581.445 592.021
4161.22 649.402 635.009 612.326 600.305
4164.13 614.517 614.587 607.144 592.369
4167.04 579.843 614.382 557.638 592.817
4169.95 648.785 626.422 613.669 590.938
4172.86 650.64 659.812 601.507 603.981
4175.77 680.011 644.772 596.765 585.375
4178.68 603.665 632.69 557.854 576.51
4181.59 614.394 601.878 574.911 563.364
4184.5 587.575 603.897 557.327 567.999
4187.41 609.723 634.761 571.758 591.823
4190.32 706.986 655.877 646.386 604.073
4193.23 650.923 664.163 594.076 602.875
4196.14 634.58 639.696 568.164 594.877
4199.05 633.584 636.782 622.391 599.694
4201.96 642.183 630.841 608.529 599.663
4204.87 616.756 651.695 568.069 613.12
4207.78 696.147 639.554 662.762 596.394
4210.69 605.758 661.813 558.352 625.136
4213.6 683.535 631.411 654.294 602.792
4216.51 604.94 662.666 595.731 646.735
4219.42 699.522 647.824 690.18 618.044
4222.33 639.009 647.439 568.221 614.344
4225.24 603.786 633.536 584.631 589.227
4228.15 657.814 639.316 614.829 601.959
4231.05 656.349 678.434 606.418 637.81
4233.96 721.141 672.696 692.184 633.195
4236.87 640.6 687.953 600.982 663.142
4239.78 702.12 652.306 696.261 619.542
4242.69 614.199 640.271 561.382 612.982
4245.6 604.494 652.174 581.304 607.676
4248.51 737.828 696.127 680.343 650.944
4251.42 746.06 708.879 691.184 668.287
4254.33 642.748 695.75 633.333 658.649
4257.24 698.441 678.646 651.431 652.247
4260.15 694.749 698.241 671.978 667.996
4263.05 701.532 693.365 680.58 664.183
4265.96 683.815 688.954 639.99 649.827
4268.87 681.514 685.108 628.911 639.668
4271.78 689.995 678.527 650.102 632.351
4274.69 664.072 699.289 618.04 655.791
4277.6 743.8 704.661 699.233 668.735
4280.51 706.111 705.632 688.932 675.745
4283.42 666.987 671.686 639.071 650.334
4286.32 641.959 664.184 622.997 627.764
4289.23 683.606 665.393 621.223 621.736
4292.14 670.615 659.477 620.988 610.8
4295.05 624.212 631.58 590.19 592.065
4297.96 599.914 617.052 565.018 587.358
4300.87 627.031 592.94 606.865 561.962
4303.77 551.876 593.721 514.002 565.192
4306.68 602.257 592.691 574.709 553.667
4309.59 623.939 635.385 572.289 606.373
4312.5 679.958 673.045 672.12 638.389
4315.41 715.238 702.691 670.757 671.726
4318.32 712.878 700.413 672.301 657.082
4321.22 673.124 700.191 628.188 659.403
4324.13 714.57 718.708 677.721 685.051
4327.04 768.429 746.074 749.243 707.125
4329.95 755.224 746.896 694.411 712.122
4332.86 717.037 730.303 692.712 694.221
4335.76 718.648 752.727 695.541 722.897
4338.67 822.496 778.655 780.437 756.532
4341.58 794.82 803.16 793.618 776.93
4344.49 792.164 796.028 756.733 779.48
4347.39 801.1 796.914 788.09 778.689
4350.3 797.479 800.142 791.244 792.283
4353.21 801.848 802.591 797.516 782.921
4356.12 808.445 787.468 760.003 758.29
4359.03 752.11 789.543 717.351 756.274
4361.93 808.074 776.129 791.469 755.644
4364.84 768.204 801.934 758.113 793.659
4367.75 829.524 798.412 831.396 796.087
4370.66 797.508 806.568 798.753 800.311
4373.56 792.671 786.502 770.783 767.062
4376.47 769.325 781.518 731.65 764.744
4379.38 782.557 762.143 791.799 725.827
4382.28 734.547 780.639 654.034 748.736
4385.19 824.814 797.909 800.377 756.404
4388.1 834.367 819.644 814.802 792.116
4391.01 799.75 826.124 761.169 805.094
4393.91 844.255 840.361 839.31 819.121
4396.82 877.079 854.028 856.883 823.588
4399.73 840.751 837.857 774.572 803.476
4402.63 795.74 826.679 778.973 800.232
4405.54 843.545 856.551 847.151 862.483
4408.45 930.368 895.499 961.326 896.005
4411.36 912.585 905.715 879.539 906.196
4414.26 874.193 897.72 877.722 872.657
4417.17 906.383 891.956 860.709 883.59
4420.08 895.291 888.014 912.338 864.298
4422.98 862.368 894.549 819.847 881.225
4425.89 925.988 907.508 911.491 890.362
4428.8 934.167 898.9 939.747 898.616
4431.7 836.544 906.33 844.611 903.67
4434.61 948.278 897.131 926.653 896.317
4437.51 906.571 922.088 917.686 921.267
4440.42 911.416 924.714 919.461 930.15
4443.33 956.155 942.632 953.304 941.523
4446.23 960.325 972.111 951.805 960.711
4449.14 999.854 973.309 977.023 957.95
4452.05 959.747 976.949 945.022 962.817
4454.95 971.244 950.46 966.407 942.163
4457.86 920.389 942.415 915.059 939.976
4460.76 935.611 925.976 938.463 918.606
4463.67 921.929 939.991 902.295 929.767
4466.58 962.432 943.393 948.545 924.95
4469.48 945.817 956.875 924.01 932.236
4472.39 962.377 961.595 924.153 931.545
4475.29 976.592 983.407 946.472 945.47
4478.2 1011.25 983.064 965.786 935.541
4481.11 961.347 968.234 894.366 925.697
4484.01 932.1 979.884 916.94 934.463
4486.92 1046.2 998.2 992.082 959.128
4489.82 1016.29 1015.93 968.362 959.365
4492.73 985.301 1002.31 917.649 932.763
4495.63 1005.34 1015.97 912.278 949.898
4498.54 1057.25 1054.26 1019.77 996.254
4501.45 1100.19 1085.27 1056.72 1042.55
4504.35 1098.35 1084.95 1051.15 1040.43
4507.26 1056.32 1055.19 1013.41 1000.1
4510.16 1010.91 1036.64 935.728 980.186
4513.07 1042.69 1036.52 991.424 969.23
4515.97 1055.95 1061.13 980.54 977.168
4518.88 1084.75 1029.94 959.539 920.204
4521.78 949.132 1021.39 820.534 914.329
4524.69 1030.29 989.389 962.913 887.316
4527.59 988.748 1008.7 878.502 929.445
4530.5 1007.06 998.19 946.919 915.447
4533.4 998.767 1005.38 920.921 946.936
4536.31 1010.31 1012.03 972.969 963.263
4539.21 1027.02 1011.93 995.901 949.359
4542.12 998.458 1028.52 879.207 952.51
4545.02 1060.09 1036.75 982.421 949.277
4547.93 1051.68 1062.42 986.203 1006.57
4550.83 1075.49 1076.6 1051.1 1034.41
4553.74 1102.62 1095.02 1065.95 1068.45
4556.64 1106.95 1093.29 1088.29 1062.59
4559.55 1070.32 1079.65 1033.54 1052.81
4562.45 1061.68 1085.29 1036.6 1042.75
4565.35 1123.89 1099.62 1058.1 1048.35
4568.26 1113.3 1134.3 1050.35 1096.59
4571.16 1165.7 1123.45 1181.32 1104.14
4574.07 1091.33 1107.35 1080.75 1102.32
4576.97 1065.01 1104.98 1044.9 1082.84
4579.88 1158.59 1109.74 1122.85 1080.94
4582.78 1105.61 1128.33 1075.05 1098.69
4585.68 1120.77 1107.09 1098.17 1070.4
4588.59 1094.88 1091.86 1037.99 1060.13
4591.49 1059.91 1101.65 1044.24 1082.74
4594.4 1150.16 1091.98 1166 1066.48
4597.3 1065.88 1108.48 989.205 1081.28
4600.2 1109.41 1127.78 1088.64 1106.41
4603.11 1208.05 1176.95 1241.4 1178.58
4606.01 1213.39 1203.53 1205.71 1195.81
4608.91 1189.15 1209.52 1140.33 1194.22
4611.82 1226.03 1211.82 1236.63 1205.16
4614.72 1220.29 1181.21 1238.52 1195.6
4617.62 1097.32 1158.39 1111.66 1159.66
4620.53 1157.56 1140.45 1128.79 1128.5
4623.43 1166.48 1201.95 1145.06 1176.11
4626.33 1281.81 1207.94 1254.49 1173.1
4629.24 1175.52 1206.89 1119.74 1165.9
4632.14 1163.33 1149.67 1123.46 1118.66
4635.04 1110.15 1133.84 1112.77 1122.12
4637.95 1128.05 1114.32 1130.11 1121.52
4640.85 1104.77 1138.09 1121.68 1136.22
4643.75 1181.45 1168.1 1156.87 1162.9
4646.66 1218.1 1186.59 1210.17 1172.73
4649.56 1160.21 1190.88 1151.16 1187.39
4652.46 1194.31 1180.13 1200.86 1190.91
4655.37 1185.86 1210.73 1220.71 1219.76
4658.27 1252.03 1228.72 1237.73 1231.38
4661.17 1248.27 1220.75 1235.7 1224.73
4664.07 1161.97 1197.78 1200.78 1209.74
4666.98 1183.1 1188.89 1192.76 1213.15
4669.88 1221.6 1188.88 1245.92 1183.82
4672.78 1161.94 1198.23 1112.77 1202.99
4675.68 1211.15 1128.98 1250.28 1176.94
4678.59 1013.84 1079.84 1167.78 1229.94
4681.49 1014.54 1057.34 1271.78 1242.16
4684.39 1143.63 1052.36 1286.93 1269.21
4687.29 998.916 1079.61 1248.91 1265.46
4690.2 1096.3 1053.85 1260.55 1241.01
4693.1 1066.32 1062.11 1213.56 1218.94
4696 1023.72 1029.58 1182.71 1189.07
4698.9 998.713 1032.1 1170.93 1193.62
4701.8 1073.87 1041.6 1227.21 1197.14
4704.7 1052.21 1081.32 1193.27 1239.67
4707.61 1117.88 1096.63 1298.54 1258.58
4710.51 1119.81 1106.09 1283.94 1263.5
4713.41 1080.59 1068.86 1208.03 1245.22
4716.31 1006.19 1081.99 1243.68 1268.64
4719.21 1159.18 1083.55 1354.2 1261.2
4722.12 1085.26 1126.07 1185.72 1286.4
4725.02 1133.75 1099.3 1319.27 1261.68
4727.92 1078.89 1096.07 1280.05 1279.35
4730.82 1075.56 1087.1 1238.73 1262.85
4733.72 1106.83 1096.43 1269.77 1269.64
4736.62 1106.9 1103.3 1300.41 1287.33
4739.52 1096.19 1114.76 1291.82 1296.55
4742.42 1141.19 1128.62 1297.42 1292.48
4745.33 1148.49 1119.77 1288.22 1319.67
4748.23 1069.62 1116.43 1373.37 1331.37
4751.13 1131.19 1101.15 1332.53 1338.3
4754.03 1102.64 1127.93 1309.01 1333.12
4756.93 1149.96 1087.5 1357.8 1328.33
4759.83 1009.89 1117.27 1318.18 1336.25
4762.73 1191.96 1115.46 1332.75 1336.44
4765.63 1144.53 1115.78 1358.38 1302.27
4768.53 1010.84 1098.57 1215.69 1306.12
4771.43 1140.34 1110.06 1344.3 1301.39
4774.33 1179.02 1172.84 1344.2 1346.2
4777.23 1199.17 1189.69 1350.09 1361.46
4780.13 1190.88 1178.49 1390.08 1359.69
4783.03 1145.4 1174.26 1338.89 1352.47
4785.93 1186.51 1145.25 1328.43 1323.4
4788.83 1103.84 1131.06 1302.87 1330.44
4791.73 1102.82 1123.89 1360.02 1321.35
4794.63 1165.02 1141.98 1301.15 1335.44
4797.53 1158.1 1145.26 1345.15 1293.79
4800.43 1112.67 1134.97 1235.08 1299.15
4803.33 1134.14 1138.01 1317.2 1304.4
4806.23 1167.21 1156.68 1360.92 1327.18
4809.13 1168.67 1158.02 1303.42 1333.25
4812.03 1138.17 1128.58 1335.41 1331.1
4814.93 1078.89 1102.41 1354.48 1345.25
4817.83 1090.18 1106.5 1345.86 1345.59
4820.73 1150.43 1160.6 1336.43 1374.02
4823.63 1241.18 1202.23 1439.76 1380.92
4826.53 1215.09 1194.64 1366.58 1376.74
4829.43 1127.65 1175.38 1323.89 1346.11
4832.33 1183.4 1120.91 1347.88 1335.77
4835.23 1051.67 1109.6 1335.54 1359.71
4838.13 1093.72 1105.56 1395.71 1373.14
4841.03 1171.29 1141.9 1388.16 1385.18
4843.93 1160.68 1182.23 1371.66 1393.65
4846.83 1214.73 1168.58 1421.13 1369.79
4849.72 1130.34 1153.81 1316.57 1380.72
4852.62 1116.35 1106.89 1404.44 1312.36
4855.52 1073.98 1090.24 1216.07 1291.72
4858.42 1080.4 1027.18 1254.64 1213.71
4861.32 927.146 1040.44 1170.42 1222.57
4864.22 1113.78 1068.31 1242.64 1240.4
4867.12 1164.01 1124.3 1308.15 1276.96
4870.02 1095.1 1105.38 1280.09 1267.39
4872.91 1057.04 1099.43 1213.93 1283.61
4875.81 1146.15 1128.13 1356.82 1315.91
4878.71 1181.21 1163.56 1376.97 1367.06
4881.61 1163.32 1160.23 1367.4 1356.54
4884.51 1136.17 1155.55 1325.26 1352.2
4887.4 1167.15 1143 1363.93 1357.94
4890.3 1125.69 1179.78 1384.63 1401.14
4893.2 1246.5 1179.06 1454.86 1396.64
4896.1 1164.99 1208.79 1350.43 1399.47
4899 1214.86 1161.55 1393.12 1343.86
4901.89 1104.81 1175.51 1288.04 1365.76
4904.79 1206.86 1166.61 1416.14 1347.84
4907.69 1188.15 1201.29 1339.36 1388.6
4910.59 1208.87 1207.49 1410.3 1397.65
4913.48 1225.46 1212.56 1443.29 1424.97
4916.38 1203.36 1209.59 1421.33 1424.17
4919.28 1199.94 1210.97 1407.9 1424.51
4922.18 1229.6 1198.87 1444.29 1402.36
4925.07 1167.06 1209.64 1354.91 1396.8
4927.97 1232.25 1193.32 1391.22 1381.11
4930.87 1180.63 1204.84 1397.21 1398.02
4933.77 1201.65 1211.68 1405.62 1423.6
4936.66 1252.76 1213.81 1467.98 1423.25
4939.56 1187.03 1235.48 1396.14 1451.32
4942.46 1266.65 1182.82 1489.84 1396.76
4945.35 1094.79 1217.57 1304.31 1441.13
4948.25 1291.27 1210.48 1529.24 1414.99
4951.15 1245.37 1197.24 1411.42 1411.86
4954.04 1055.09 1182.85 1294.93 1389.88
4956.94 1248.09 1213.06 1463.3 1452.12
4959.84 1336 1264.51 1598.14 1529.61
4962.73 1209.45 1272.48 1527.4 1546.74
4965.63 1272 1209.59 1514.68 1487.4
4968.52 1147.32 1226.58 1420.12 1449.06
4971.42 1260.43 1183.65 1412.38 1406.86
4974.32 1143.2 1219.51 1388.06 1401.82
4977.21 1254.9 1171.73 1405.01 1410.28
4980.11 1117.1 1222.51 1437.78 1459.7
4983 1295.53 1208.83 1536.3 1472.32
4985.9 1213.87 1207.08 1442.87 1481.21
4988.8 1111.83 1192.53 1464.45 1457.79
4991.69 1251.89 1192.26 1466.06 1450.94
4994.59 1213.05 1249.42 1422.32 1470.26
4997.48 1283.32 1222.11 1522.41 1482.72
5000.38 1169.97 1233.61 1503.44 1498.91
5003.27 1247.53 1207.51 1470.88 1470.52
5006.17 1205.04 1225.83 1437.24 1460.2
5009.06 1224.91 1221.9 1472.49 1461.94
5011.96 1235.75 1246.62 1476.09 1484.76
5014.86 1279.19 1251.74 1505.7 1485.1
5017.75 1240.28 1255.4 1473.52 1474.06
5020.65 1246.74 1233.41 1442.95 1464.38
5023.54 1213.22 1259.15 1476.66 1490.27
5026.43 1317.5 1268.84 1551.18 1511.95
5029.33 1275.79 1264.05 1508.01 1492.08
5032.22 1198.87 1219.92 1417.03 1463.63
5035.12 1185.12 1225.97 1465.85 1477.01
5038.01 1293.94 1259.05 1548.14 1517.68
5040.91 1298.1 1280.66 1539.04 1516.85
5043.8 1249.94 1288.47 1463.36 1511.96
5046.7 1317.37 1279.1 1533.48 1502.28
5049.59 1270 1303.76 1510 1535.35
5052.49 1323.9 1264.44 1562.56 1534.41
5055.38 1199.42 1292.39 1530.68 1545.89
5058.27 1353.87 1294.22 1544.45 1533.12
5061.17 1329.37 1355.46 1524.23 1570.99
5064.06 1383.13 1353.7 1644.28 1590.76
5066.96 1348.6 1353.19 1603.77 1610.04
5069.85 1327.85 1327.34 1582.06 1558.89
5072.74 1305.58 1325.68 1490.85 1558.82
5075.64 1343.61 1309.56 1603.55 1580.97
5078.53 1279.49 1316.56 1648.53 1591.49
5081.42 1326.59 1331.72 1522.41 1594.35
5084.32 1389.08 1304.16 1612.1 1544.74
5087.21 1196.83 1293.59 1499.72 1531.31
5090.1 1294.88 1283.13 1482.09 1508.23
5093 1357.69 1332.22 1542.87 1537.33
5095.89 1344.1 1338.88 1587.04 1549.63
5098.78 1314.84 1299.29 1519 1543.91
5101.68 1238.94 1302.51 1525.69 1545.86
5104.57 1353.75 1299.6 1592.9 1533.4
5107.46 1306.1 1348.49 1481.6 1573.3
5110.35 1385.63 1355.2 1645.39 1583.58
5113.25 1373.89 1364.79 1623.75 1617.43
5116.14 1334.85 1365.45 1583.15 1599.93
5119.03 1387.62 1360.63 1592.89 1599.85
5121.92 1359.43 1318.55 1623.51 1584.64
5124.82 1208.6 1299.39 1537.53 1572.5
5127.71 1330.14 1273.99 1556.47 1550.24
5130.6 1283.21 1312.83 1556.74 1561.35
5133.49 1325.12 1303.7 1570.85 1564.41
5136.39 1302.77 1273.95 1565.64 1523.55
5139.28 1193.96 1251.42 1434.16 1496.46
5142.17 1257.53 1256.67 1489.56 1497.07
5145.06 1318.5 1307.24 1567.49 1551.25
5147.95 1345.7 1349.7 1596.7 1609.97
5150.84 1384.91 1369.42 1665.72 1635.97
5153.74 1377.64 1376.82 1645.5 1680.44
5156.63 1367.92 1362.82 1730.11 1637.33
5159.52 1342.91 1288.91 1536.37 1573.03
5162.41 1155.89 1239.88 1452.6 1468.63
5165.3 1220.82 1206.71 1416.92 1447.67
5168.19 1243.42 1245.13 1473.49 1447.94
5171.08 1271.13 1265.83 1453.4 1472.63
5173.97 1282.95 1222.24 1491 1431.24
5176.87 1112.63 1222.9 1349.3 1445.07
5179.76 1273.13 1209.2 1494.9 1418.02
5182.65 1241.85 1232.2 1409.87 1445.15
5185.54 1181.6 1228.12 1430.68 1421.2
5188.43 1260.92 1242.94 1423.04 1459.69
5191.32 1286.29 1308.15 1525.35 1524.29
5194.21 1377.26 1328.52 1624.47 1568.81
5197.1 1322.03 1341.65 1556.6 1562.09
5199.99 1325.67 1314.27 1505.19 1506.24
5202.88 1295.09 1281.94 1456.92 1482.51
5205.77 1225.05 1241.6 1485.42 1496.02
5208.66 1204.65 1243.24 1545.72 1565.49
5211.55 1300.01 1271.6 1665.31 1585.64
5214.44 1310.15 1371.93 1545.89 1651.41
5217.33 1505.63 1398.42 1743.03 1623.88
5220.22 1379.47 1411.29 1582.73 1646.71
5223.11 1348.78 1369.41 1614.37 1598.43
5226 1379.97 1373.09 1598.18 1619.94
5228.89 1390.53 1355.57 1647.27 1636.21
5231.78 1296.21 1369.15 1663.19 1660.55
5234.67 1420.71 1373.04 1671.21 1636.92
5237.56 1402.21 1419.35 1576.37 1627.16
5240.45 1435.11 1399.62 1633.92 1608.11
5243.34 1361.52 1407.14 1614.06 1621.29
5246.22 1424.79 1390.06 1615.89 1646.27
5249.11 1383.87 1419.46 1708.87 1678.14
5252 1449.73 1426.71 1709.65 1687.31
5254.89 1446.53 1440.4 1643.43 1644.47
5257.78 1424.94 1417.69 1580.34 1583.66
5260.67 1381.6 1405.32 1527.22 1558.74
5263.56 1409.42 1352.34 1568.66 1538.37
5266.45 1265.99 1344.45 1519.21 1551.26
5269.33 1357.94 1328.17 1565.91 1536.74
5272.22 1360.59 1366.71 1525.1 1582.57
5275.11 1381.6 1375.95 1656.7 1598.43
5278 1385.67 1409.54 1613.48 1660.11
5280.89 1461.34 1396.37 1710.14 1634.72
5283.77 1342.11 1404.64 1580.53 1680.2
5286.66 1410.47 1394.68 1749.91 1663.41
5289.55 1431.45 1415.62 1659.78 1661.39
5292.44 1404.94 1422.25 1574.48 1608.41
5295.33 1430.35 1410.84 1590.97 1595.72
5298.21 1397.22 1423.71 1621.72 1639.8
5301.1 1443.57 1421.05 1706.71 1647.39
5303.99 1422.38 1459.43 1613.74 1694.78
5306.88 1512.36 1452.21 1763.89 1660.89
5309.76 1421.9 1454.9 1605.02 1655.27
5312.65 1430.44 1453.29 1596.89 1640.55
5315.54 1507.53 1471.85 1719.72 1665.82
5318.42 1477.59 1483.86 1680.85 1682.22
5321.31 1466.47 1454.19 1646.1 1660.02
5324.2 1418.52 1431.89 1653.1 1654.69
5327.08 1410.68 1427.5 1664.88 1657.72
5329.97 1453.28 1450.53 1655.18 1681.08
5332.86 1487.62 1458.23 1723.19 1680.07
5335.74 1433.78 1448.74 1661.85 1677.08
5338.63 1424.83 1433.64 1646.22 1654.53
5341.52 1442.32 1450.93 1655.53 1685.02
5344.4 1485.62 1469.9 1753.31 1706.61
5347.29 1481.76 1494.52 1710.98 1717.06
5350.17 1516.18 1511.06 1686.89 1702.04
5353.06 1535.23 1535.11 1708.26 1733.64
5355.95 1553.92 1533.89 1805.77 1757.94
5358.83 1512.52 1506.53 1759.79 1737.34
5361.72 1453.14 1440.77 1646.47 1705.68
5364.6 1356.66 1428.96 1710.8 1685.67
5367.49 1477.08 1442.91 1699.75 1702.9
5370.37 1495 1456.68 1698.15 1707.23
5373.26 1397.98 1475.63 1723.77 1751.22
5376.15 1533.93 1509.28 1831.72 1798
5379.03 1595.92 1548.36 1838.5 1794.87
5381.92 1515.23 1549.06 1714.38 1781.27
5384.8 1536.03 1490.87 1790.93 1754.25
5387.69 1421.34 1489.81 1757.43 1756.67
5390.57 1512.08 1482.3 1721.66 1746.4
5393.45 1513.5 1521 1760.11 1730.37
5396.34 1537.43 1509.92 1709.33 1732.88
5399.22 1478.82 1491.22 1729.21 1700.92
5402.11 1457.42 1472.63 1664.23 1713.8
5404.99 1481.66 1488.69 1747.98 1730.07
5407.88 1526.99 1473.63 1778 1751.11
5410.76 1412.24 1474.56 1727.36 1782.01
5413.65 1484.45 1475.86 1840.68 1781.03
5416.53 1530.9 1504.44 1775.06 1781.93
5419.41 1497.97 1518.27 1730.05 1770.02
5422.3 1525.94 1524.83 1804.95 1787.77
5425.18 1550.58 1520.15 1828.31 1789.04
5428.06 1483.92 1484.35 1733.84 1741.26
5430.95 1418.54 1489.82 1661.63 1730.4
5433.83 1567.02 1494.25 1795.74 1737.09
5436.71 1497.19 1540.55 1753.9 1775.37
5439.6 1557.44 1462.42 1776.47 1729.66
5442.48 1332.63 1483.14 1658.6 1754.81
5445.36 1559.34 1435.22 1829.35 1750.47
5448.25 1413.67 1496.87 1763.47 1785.3
5451.13 1517.6 1449.38 1763.06 1758.7
5454.01 1416.86 1485.74 1749.56 1755.78
5456.9 1522.76 1473.24 1754.73 1747.96
5459.78 1480.09 1484.87 1739.61 1777.19
5462.66 1451.76 1484.89 1837.24 1790.22
5465.54 1522.83 1507.77 1793.8 1822.74
5468.43 1548.71 1509.53 1837.18 1821.62
5471.31 1457.06 1514.86 1833.87 1835.81
5474.19 1538.8 1500.37 1836.39 1804.46
5477.07 1505.25 1509.51 1743.13 1763.08
5479.95 1484.48 1484.13 1709.71 1723.71
5482.84 1462.65 1497.7 1718.28 1750.7
5485.72 1545.96 1520.4 1824.12 1781.25
5488.6 1552.59 1520.03 1801.34 1810.91
5491.48 1461.55 1485.5 1807.26 1793.9
5494.36 1442.35 1482.56 1773.1 1840.49
5497.24 1543.77 1530.66 1941.11 1851.82
5500.12 1605.86 1570.33 1841.26 1866.53
5503.01 1561.36 1565.41 1817.22 1803.15
5505.89 1529 1552.16 1750.97 1811.13
5508.77 1566.12 1548.72 1865.2 1812.12
5511.65 1551.05 1551.98 1820.19 1818.83
5514.53 1538.76 1525.28 1771.11 1835.02
5517.41 1486.03 1531.73 1913.76 1847.15
5520.29 1570.41 1513.89 1856.58 1832.9
5523.17 1485.22 1520.06 1728.37 1782.99
5526.05 1504.55 1522.05 1764.02 1776.87
5528.93 1576.37 1541 1838.21 1799.54
5531.81 1542.07 1503.22 1796.39 1800.08
5534.69 1391.2 1516.81 1765.64 1810.96
5537.57 1617.16 1537.07 1870.84 1853.2
5540.45 1602.86 1597.15 1923.12 1878.44
5543.33 1571.44 1561.99 1841.36 1855.1
5546.21 1511.66 1543.78 1800.81 1822
5549.09 1548.23 1525.85 1823.84 1835.04
5551.97 1517.65 1561.2 1880.48 1864.24
5554.85 1617.7 1565.01 1888.4 1863.65
5557.73 1559.66 1557.64 1822.08 1880.24
5560.61 1495.56 1537.67 1930.25 1853.95
5563.49 1557.77 1547.79 1809.51 1869.02
5566.37 1590.03 1575.88 1867.28 1838.53
5569.25 1579.85 1498.2 1838.8 1868.73
5572.13 1324.74 1493.97 1900.12 1836.56
5575.01 1577.34 1515.18 1770.76 1848.09
5577.88 1643.46 1587.21 1873.39 1819.8
5580.76 1540.84 1564.26 1815.27 1830.29
5583.64 1508.48 1533.49 1802.22 1819.15
5586.52 1551.14 1529.53 1839.95 1809.72
5589.4 1528.96 1578.57 1786.99 1856.16
5592.28 1655.61 1602.64 1941.53 1857.38
5595.15 1623.34 1613.59 1843.62 1861.52
5598.03 1561.81 1608.56 1799.41 1849.73
5600.91 1640.52 1631.46 1906.15 1900.68
5603.79 1692.05 1654.77 1996.48 1932.75
5606.67 1631.73 1590.69 1895.61 1931.73
5609.54 1448.3 1549.55 1903.11 1896.94
5612.42 1568.62 1524.05 1892.09 1861.58
5615.3 1555.24 1555.81 1789.54 1824.15
5618.18 1543.57 1580.01 1790.81 1836.24
5621.05 1641.23 1585.31 1928.38 1855.16
5623.93 1571.12 1580.99 1846.3 1867.33
5626.81 1530.63 1582.52 1827.32 1861.26
5629.68 1645.81 1608.87 1910.16 1888.7
5632.56 1650.17 1636.83 1928.62 1908.38
5635.44 1614.5 1611.01 1886.35 1887.41
5638.31 1568.37 1575.93 1847.26 1852.61
5641.19 1544.92 1583.87 1824.22 1862.38
5644.07 1638.31 1587.45 1915.66 1870.06
5646.94 1579.11 1567.85 1870.3 1878.68
5649.82 1486.14 1552.69 1850.08 1859.67
5652.7 1592.83 1564.84 1858.62 1876.28
5655.57 1615.55 1545.6 1920.13 1867.21
5658.45 1428.4 1552.13 1822.87 1879.41
5661.32 1612.43 1543.25 1895.22 1866.07
5664.2 1588.9 1584.66 1880.12 1853.23
5667.08 1552.63 1546.58 1784.35 1828.2
5669.95 1498.2 1533.39 1820.11 1842.02
5672.83 1549.33 1566.45 1921.58 1894.62
5675.7 1651.81 1588.7 1942.16 1915.64
5678.58 1564.96 1593.2 1883.17 1902.23
5681.45 1562.82 1554.28 1881.36 1854.37
5684.33 1535.05 1548.99 1798.58 1836.38
5687.2 1549.11 1585.73 1829.21 1850.17
5690.08 1673.03 1607.53 1922.74 1862.27
5692.95 1600.47 1585.12 1834.87 1866.24
5695.83 1481.85 1560.23 1841.12 1896.99
5698.7 1598.38 1527.24 2014.97 1879.88
5701.57 1501.48 1598.77 1783.57 1932.16
5704.45 1696.44 1576.93 1997.93 1859.45
5707.32 1532.88 1602.61 1796.85 1885.32
5710.2 1578.51 1565.4 1861.18 1832.47
5713.07 1584.8 1584.76 1839.37 1870.03
5715.95 1590.97 1604.45 1909.55 1888.77
5718.82 1637.59 1576.99 1917.39 1875.48
5721.69 1502.42 1590.85 1799.49 1861.83
5724.57 1632.53 1584.87 1868.6 1907.43
5727.44 1619.66 1623.05 2054.21 1936.73
5730.31 1616.97 1588.12 1887.38 1957.53
5733.19 1527.72 1613.59 1931.02 1947.78
5736.06 1696.08 1576.85 2024.96 1955.51
5738.93 1506.76 1597.29 1910.54 1932.22
5741.81 1589.04 1581.79 1861.15 1898.74
5744.68 1649.57 1599.53 1924.53 1907.79
5747.55 1559.97 1609.01 1937.69 1923.31
5750.42 1617.5 1577.78 1907.72 1893.3
5753.3 1555.86 1581.2 1834.5 1901.74
5756.17 1570.24 1568.1 1963 1879.35
5759.04 1578.21 1598.35 1840.55 1915.96
5761.91 1646.59 1593.4 1944.35 1877.91
5764.78 1555.41 1603.25 1848.83 1894.15
5767.66 1607.74 1597.65 1889.28 1880.13
5770.53 1629.81 1604.28 1902.27 1932.11
5773.4 1575.28 1579.27 2004.78 1942.63
5776.27 1532.73 1542.27 1920.85 1926.19
5779.14 1518.81 1504.42 1852.96 1879.67
5782.01 1461.72 1496.02 1865.21 1871.25
5784.89 1507.54 1529.06 1895.58 1883.57
5787.76 1617.91 1579.85 1889.91 1896.95
5790.63 1614.08 1590.62 1905.37 1872.46
5793.5 1539.86 1603.74 1822.09 1890.47
5796.37 1657.26 1575.79 1943.94 1855.94
5799.24 1530.26 1570.24 1801.79 1889.71
5802.11 1523.2 1554.69 1923.39 1867.98
5804.98 1610.62 1578.06 1878.77 1889.77
5807.85 1600.37 1617.52 1867.14 1889.05
5810.72 1641.58 1629.92 1921.24 1901.11
5813.59 1647.81 1635.3 1914.95 1913.37
5816.46 1616.5 1606.35 1903.91 1916.65
5819.33 1554.75 1578.61 1931.08 1890.84
5822.2 1564.58 1613.26 1837.54 1929.36
5825.07 1720.44 1666.41 2019.47 1941.47
5827.94 1714.2 1677.6 1967.39 1963.21
5830.81 1598.15 1605.01 1902.78 1951.57
5833.68 1502.69 1458.07 1984.54 1931.81
5836.55 1273.37 1433.66 1908.12 1987.49
5839.42 1524.94 1431.65 2069.82 1982.61
5842.29 1496.64 1453.1 1969.88 1993.77
5845.16 1337.74 1434.23 1941.59 1943.49
5848.03 1468.3 1425.4 1918.99 1921.13
5850.9 1470.16 1480.33 1902.8 1936.12
5853.76 1502.52 1447.3 1986.58 1945.71
5856.63 1369.22 1442.44 1947.76 1955.91
5859.5 1455.58 1450.56 1933.39 1963.04
5862.37 1526.89 1489.96 2007.97 1977.26
5865.24 1487.41 1489.87 1990.4 1967.08
5868.11 1455.31 1466.34 1902.87 1962.37
5870.97 1456.31 1445.89 1993.84 1933.09
5873.84 1426.04 1457.59 1902.57 1943.46
5876.71 1490.43 1423.01 1933.96 1881.69
5879.58 1352.56 1403.11 1808.53 1864.68
5882.44 1366.34 1363.19 1851.54 1823.3
5885.31 1370.68 1336.79 1809.83 1773.34
5888.18 1273.36 1359.63 1658.67 1781.79
5891.05 1434.84 1289.16 1876.89 1797.08
5893.91 1159.3 1314.95 1855.69 1837.89
5896.78 1350.72 1309.28 1781.11 1835.76
5899.65 1417.82 1409.53 1870.47 1856.79
5902.51 1460.05 1442.69 1918.79 1889.34
5905.38 1450.2 1422.01 1878.74 1888.87
5908.25 1355.78 1406.63 1869.06 1869.63
5911.11 1413.92 1439.29 1861.08 1891.49
5913.98 1548.17 1477.09 1944.32 1916.22
5916.85 1469.19 1471.09 1943.26 1909.91
5919.71 1395.91 1447.32 1842.14 1889.42
5922.58 1476.85 1440.47 1882.84 1880.19
5925.44 1448.64 1460.37 1915.58 1879.31
5928.31 1455.62 1429.99 1839.51 1852.4
5931.17 1385.72 1414.83 1802.1 1865.9
5934.04 1403.15 1403.54 1956.09 1861.42
5936.91 1421.75 1427.16 1826.06 1887.21
5939.77 1456.57 1417.26 1879.48 1894.48
5942.64 1373.46 1427.23 1977.9 1904.05
5945.5 1451.67 1423.78 1854.77 1888.05
5948.37 1446.22 1463.22 1831.48 1870.82
5951.23 1491.78 1430.78 1926.21 1908.64
5954.1 1354.35 1405.28 1968.23 1931.22
5956.96 1369.71 1393.07 1899.23 1906.96
5959.82 1455.14 1415.15 1853.43 1873.16
5962.69 1420.59 1446.77 1866.83 1884.11
5965.55 1464.59 1473.29 1932.06 1921.63
5968.42 1534.69 1495.84 1966.01 1942.43
5971.28 1488.23 1511.69 1929.22 1936.41
5974.14 1512.16 1513.94 1913.99 1944.78
5977.01 1541.44 1472.73 1991.13 1948.39
5979.87 1364.59 1429.77 1940.05 1960.14
5982.74 1383.3 1405.91 1949.25 1931.43
5985.6 1469.85 1439.78 1904.99 1917.46
5988.46 1466.19 1456.39 1898.13 1899.43
5991.32 1433.12 1445.39 1895.15 1887.82
5994.19 1436.85 1443.38 1870.17 1876.27
5997.05 1460.16 1449.57 1863.48 1867.64
5999.91 1451.7 1441.73 1869.28 1862.65
6002.78 1413.33 1439.73 1855.18 1868.24
6005.64 1454.14 1456.78 1880.25 1877.45
6008.5 1502.87 1420.31 1896.93 1879.29
6011.36 1303.93 1413.59 1860.7 1876.24
6014.23 1433.98 1350.07 1871.08 1866
6017.09 1312.29 1373.56 1866.21 1838.41
6019.95 1374.41 1322.69 1777.94 1828.87
6022.81 1281.38 1356.96 1842.46 1823.25
6025.67 1415.09 1399.01 1849.35 1872.46
6028.53 1500.56 1433.24 1925.55 1893.43
6031.4 1384.09 1457.39 1905.39 1915.13
6034.26 1487.53 1457.18 1914.45 1914.77
6037.12 1499.94 1412.02 1924.46 1877.98
6039.98 1248.59 1423.94 1795.04 1894.98
6042.84 1523.3 1414.42 1965.44 1885.25
6045.7 1471.38 1476.2 1895.28 1896.59
6048.56 1433.93 1458.48 1829.05 1883.54
6051.42 1470.13 1459.87 1926.28 1887.89
6054.28 1475.57 1478.83 1908.32 1914.24
6057.14 1490.8 1445.94 1908.1 1899.37
6060 1371.45 1391.75 1881.68 1871.54
6062.86 1313.01 1354.17 1824.86 1867.53
6065.72 1378.04 1354.15 1896.04 1865.51
6068.58 1371.39 1372.09 1875.61 1842.52
6071.44 1366.82 1408.83 1755.92 1845.05
6074.3 1488.28 1455.63 1903.63 1858.85
6077.16 1511.79 1483.31 1917 1883.16
6080.02 1449.85 1469.85 1828.86 1865
6082.88 1447.91 1432.38 1849.14 1873.29
6085.74 1399.4 1441.82 1941.87 1885
6088.6 1478.15 1439.71 1863.98 1885.52
6091.46 1441.59 1463.61 1850.71 1878.49
6094.32 1471.08 1435.17 1920.76 1861.52
6097.17 1392.83 1431.62 1813.08 1861.44
6100.03 1430.96 1396.98 1850.48 1860.39
6102.89 1367.15 1421.78 1917.62 1873.25
6105.75 1467.24 1430.74 1851.65 1868.74
6108.61 1457.83 1462.25 1836.95 1844.81
6111.47 1461.66 1503.54 1845.83 1897.79
6114.32 1591.12 1494.53 2010.59 1896.61
6117.18 1430.82 1467.42 1833.4 1903.07
6120.04 1380.34 1429.68 1865.23 1861.05
6122.9 1477.89 1421.32 1884.53 1849.64
6125.75 1405.73 1403.65 1799.15 1829.65
6128.61 1327.34 1385.58 1805.26 1820.63
6131.47 1423.68 1408.77 1857.49 1845.65
6134.32 1475.3 1433.36 1874.22 1825.99
6137.18 1401.1 1402.35 1746.27 1820.14
6140.04 1330.65 1362.92 1839.92 1775.06
6142.9 1357.02 1367.53 1739 1804.02
6145.75 1414.93 1421.39 1833.15 1828.4
6148.61 1492.22 1456.12 1913.06 1863.3
6151.46 1461.2 1454.3 1843.7 1858.16
6154.32 1409.5 1435.19 1817.72 1836.42
6157.18 1434.88 1404.82 1847.85 1810.18
6160.03 1370.09 1392.97 1764.97 1796.14
6162.89 1373.96 1375.61 1775.59 1778.23
6165.74 1382.8 1376.11 1794.13 1773.68
6168.6 1371.59 1376.09 1751.31 1766.55
6171.45 1373.87 1411.9 1754.22 1795.79
6174.31 1490.22 1388.59 1881.85 1801.3
6177.16 1301.68 1394.52 1767.83 1810.83
6180.02 1391.66 1377.39 1782.83 1795.1
6182.87 1438.82 1403.77 1834.66 1788.08
6185.73 1380.83 1389.22 1746.75 1770.22
6188.58 1348.01 1404.61 1729.26 1775.53
6191.44 1485.01 1398.62 1850.57 1759.24
6194.29 1362.85 1451.75 1697.89 1814.68
6197.15 1507.4 1432.43 1895.56 1804.52
6200 1427.06 1461.98 1820.09 1849.1
6202.85 1451.49 1453.58 1831.64 1836.08
6205.71 1482.17 1459.89 1856.52 1836.25
6208.56 1446.01 1460.01 1820.6 1842.96
6211.41 1451.86 1450.28 1851.77 1831
6214.27 1452.98 1398.64 1820.61 1809.31
6217.12 1291.07 1391.31 1755.53 1798.23
6219.97 1429.88 1375.11 1818.54 1783.02
6222.83 1404.39 1387.68 1775 1815.16
6225.68 1328.76 1396.65 1851.96 1817.48
6228.53 1456.81 1403.68 1825.49 1828.31
6231.39 1425.47 1446.51 1807.47 1818.92
6234.24 1457.27 1418.02 1823.79 1791.6
6237.09 1371.32 1339.21 1743.54 1776.93
6239.94 1189.04 1319.83 1763.46 1752.67
6242.79 1399.14 1310.73 1751.01 1739.68
6245.65 1344 1364.32 1704.56 1715.8
6248.5 1349.8 1383.81 1691.82 1728.16
6251.35 1457.64 1416.78 1788.11 1765.41
6254.2 1442.9 1449.44 1816.3 1808.83
6257.05 1447.79 1431.83 1822.08 1803.85
6259.9 1404.79 1378.97 1773.17 1794.73
6262.75 1284.33 1288.92 1788.93 1748.51
6265.61 1177.65 1307.66 1683.42 1775.11
6268.46 1461 1349.27 1852.99 1774.43
6271.31 1409.14 1426.3 1786.9 1792.58
6274.16 1408.74 1339.85 1737.85 1735.06
6277.01 1201.67 1334.46 1680.42 1720.65
6279.86 1392.95 1304.83 1743.68 1701.79
6282.71 1319.86 1391.47 1681.27 1751.84
6285.56 1461.61 1382.23 1830.57 1739.69
6288.41 1365.23 1412.6 1707.22 1784.35
6291.26 1410.96 1328.85 1815.27 1766.89
6294.11 1210.37 1376.03 1778.16 1813.71
6296.96 1506.77 1273.68 1847.71 1797.43
6299.81 1103.91 1344.85 1766.41 1801.04
6302.66 1423.88 1264.99 1789 1798.45
6305.51 1267.17 1362.11 1839.95 1800.66
6308.35 1395.29 1359.91 1773.04 1795.25
6311.2 1417.27 1344.01 1772.75 1736.98
6314.05 1219.48 1350.34 1665.15 1736.39
6316.9 1414.26 1347.62 1771.27 1730.13
6319.75 1409.14 1383.94 1753.98 1775.4
6322.6 1328.41 1405.8 1800.95 1791.86
6325.44 1479.85 1408.75 1820.65 1813.12
6328.29 1417.98 1438.31 1817.75 1795.51
6331.14 1417.09 1401.7 1748.15 1759.13
6333.99 1370.02 1400.94 1711.51 1737.69
6336.84 1415.72 1395.68 1753.41 1738.38
6339.68 1401.31 1357.35 1750.22 1746.91
6342.53 1255.02 1351.61 1737.09 1772.98
6345.38 1398.49 1325.58 1831.63 1781.98
6348.23 1323.23 1394.55 1777.22 1801.26
6351.07 1461.94 1372.62 1794.93 1744.03
6353.92 1332.69 1407.43 1659.94 1731.51
6356.77 1427.67 1387.23 1739.66 1713.27
6359.61 1401.33 1410.66 1740.21 1728.19
6362.46 1402.99 1405.3 1704.72 1727.31
6365.3 1411.59 1365.02 1737.01 1732.75
6368.15 1280.49 1368.98 1756.51 1753.85
6371 1414.85 1375.31 1768.03 1763.67
6373.84 1430.58 1425.76 1766.46 1767.67
6376.69 1431.84 1415.78 1768.51 1748.59
6379.53 1384.92 1416.11 1710.81 1745.12
6382.38 1431.55 1376.94 1756.05 1736.24
6385.22 1314.35 1388.98 1741.85 1744.13
6388.07 1421.05 1341.54 1734.48 1713.35
6390.91 1289.23 1364.7 1663.72 1702.8
6393.76 1383.82 1361.25 1710.19 1701.2
6396.6 1410.72 1422.4 1729.69 1739.96
6399.45 1472.67 1401.39 1779.99 1754.17
6402.29 1320.78 1420.55 1752.82 1782.91
6405.14 1468.21 1408.49 1815.92 1772.9
6407.98 1436.47 1421.65 1749.97 1776.93
6410.82 1360.26 1402.86 1764.92 1753.97
6413.67 1411.85 1380.02 1747.03 1722.69
6416.51 1367.94 1398.42 1656.11 1706.65
6419.36 1415.46 1394 1716.82 1727.95
6422.2 1398.59 1397.66 1810.93 1742.01
6425.04 1378.94 1386.4 1698.29 1740.02
6427.89 1381.69 1406.25 1710.85 1716.84
6430.73 1458.13 1398.34 1741.37 1693.79
6433.57 1355.22 1409.67 1629.15 1699.32
6436.41 1415.68 1415.69 1727.44 1712.85
6439.26 1476.18 1429.74 1781.96 1735.11
6442.1 1397.35 1428.12 1695.92 1731.71
6444.94 1410.82 1408.35 1717.26 1693.3
6447.78 1416.88 1416.19 1666.71 1707.2
6450.63 1420.86 1432.07 1737.62 1719.7
6453.47 1458.46 1381.93 1754.78 1729.69
6456.31 1266.47 1386.21 1696.66 1732.37
6459.15 1433.7 1397.04 1745.66 1759.11
6461.99 1490.94 1455.05 1835.01 1766.29
6464.83 1440.5 1441.61 1718.2 1738.66
6467.67 1393.38 1416.15 1662.78 1699.76
6470.51 1414.56 1413.91 1718.3 1706.56
6473.36 1433.78 1395.96 1738.6 1732.24
6476.2 1339.54 1380.14 1739.81 1712.46
6479.04 1367.09 1379.35 1658.97 1706.55
6481.88 1431.43 1382.82 1720.88 1666.44
6484.72 1349.94 1394.26 1619.47 1675.66
6487.56 1401.43 1381.19 1686.62 1663.44
6490.4 1392.2 1388.48 1684.24 1672.22
6493.24 1371.81 1350.05 1645.79 1631.55
6496.08 1286.14 1318.27 1564.62 1654.54
6498.92 1296.85 1317.27 1753.2 1660.04
6501.76 1368.8 1359.96 1662.31 1709.77
6504.59 1414.22 1361.6 1713.81 1699.23
6507.43 1301.78 1384.3 1721.57 1729.27
6510.27 1436.9 1368.69 1752.43 1707.72
6513.11 1367.38 1408.15 1649.15 1716.3
6515.95 1420.15 1408.96 1747.33 1708.55
6518.79 1439.35 1382.54 1729.18 1723.74
6521.63 1288.11 1343.05 1694.72 1707.8
6524.47 1301.71 1370.38 1699.51 1755
6527.3 1521.34 1400.04 1870.77 1746.73
6530.14 1377.06 1460.89 1669.9 1767.43
6532.98 1484.26 1434.12 1761.61 1730.12
6535.82 1441.04 1441.59 1758.83 1737.77
6538.65 1399.47 1362.24 1692.88 1695.95
6541.49 1246.21 1300.79 1636.14 1661.71
6544.33 1256.68 1305.92 1656.11 1665.27
6547.17 1414.86 1348.67 1703.57 1666.09
6550 1374.48 1380.77 1638.59 1653.31
6552.84 1352.98 1386.16 1617.78 1650.2
6555.68 1431.03 1306.42 1694.22 1605.34
6558.51 1135.26 1274.86 1504.03 1575.97
6561.35 1258.28 1222.62 1529.66 1517.42
6564.18 1274.31 1259.9 1518.57 1562.68
6567.02 1247.11 1301.53 1639.82 1600.87
6569.86 1383.18 1364.67 1644.22 1660.5
6572.69 1463.74 1406.21 1697.45 1651.4
6575.53 1371.71 1439.67 1612.53 1691.6
6578.36 1483.57 1372.54 1764.82 1663.73
6581.2 1262.36 1382.23 1613.84 1670.54
6584.03 1400.77 1367.31 1632.95 1649.57
6586.87 1438.81 1409.11 1701.93 1667.28
6589.7 1387.75 1418.14 1666.95 1686.76
6592.54 1427.87 1348.9 1691.39 1655.19
6595.37 1231.08 1368.66 1607.23 1665.65
6598.21 1447.04 1351.77 1698.34 1654.17
6601.04 1377.19 1393.05 1656.94 1663.76
6603.87 1354.91 1361.17 1636.02 1661.25
6606.71 1351.41 1365.89 1690.79 1665.02
6609.54 1391.35 1384.68 1668.24 1687.37
6612.37 1411.28 1397.16 1703.09 1683.14
6615.21 1388.84 1379.15 1678.09 1663.05
6618.04 1337.33 1359.63 1607.96 1637.47
6620.87 1352.73 1375.58 1626.38 1643.08
6623.71 1436.68 1392.47 1694.91 1658.42
6626.54 1387.99 1413 1653.98 1665.87
6629.37 1414.33 1402.07 1648.74 1655.55
6632.2 1403.88 1378.56 1663.93 1613.88
6635.04 1317.48 1368.53 1528.96 1608.4
6637.87 1384.24 1358.01 1632.31 1594.51
6640.7 1372.31 1373.81 1622.27 1617.17
6643.53 1364.89 1384.11 1596.94 1623.06
6646.36 1415.13 1358.25 1649.98 1628.22
6649.2 1294.73 1380.64 1637.73 1649.24
6652.03 1432.08 1378.37 1660.01 1656.91
6654.86 1408.29 1387.12 1673.01 1661.18
6657.69 1321 1368.1 1650.54 1642.43
6660.52 1375 1366.93 1603.75 1638.83
6663.35 1404.8 1387.66 1662.21 1656.98
6666.18 1383.19 1403.98 1704.98 1677.01
6669.01 1423.96 1391.78 1663.85 1679.78
6671.84 1368.19 1379.62 1670.5 1639.5
6674.67 1346.72 1332.11 1584.15 1622.98
6677.5 1281.41 1335.67 1614.29 1611.68
6680.33 1378.87 1349.26 1636.59 1622.04
6683.16 1387.52 1385.37 1615.24 1622.99
6685.99 1389.73 1368.47 1617.14 1587.69
6688.82 1328.16 1343.92 1530.68 1589.31
6691.65 1313.88 1335.68 1620.11 1581.93
6694.48 1364.99 1345.49 1594.99 1608.24
6697.31 1357.59 1374.94 1609.62 1612.24
6700.14 1402.25 1381.01 1632.1 1646.97
6702.97 1383.17 1395.13 1699.19 1661.43
6705.79 1399.98 1415.77 1653.01 1695.2
6708.62 1464.16 1417.72 1733.41 1672.33
6711.45 1389.03 1423.34 1630.58 1663.22
6714.28 1416.84 1421.82 1625.68 1658.92
6717.11 1459.58 1413.39 1720.51 1641.87
6719.93 1363.76 1407.57 1579.42 1647.7
6722.76 1399.36 1392.38 1643.18 1624.85
6725.59 1414.01 1400.8 1651.94 1641.66
6728.42 1389.03 1428.03 1629.85 1664.41
6731.24 1481.04 1436.14 1711.43 1659.42
6734.07 1438.34 1425.26 1636.98 1683.61
6736.9 1356.38 1383.64 1702.42 1632.65
6739.72 1356.2 1375.26 1558.54 1624.14
6742.55 1413.21 1381.04 1611.46 1589.4
6745.38 1373.72 1355.08 1598.2 1599.95
6748.2 1278.3 1361.39 1590.19 1617.33
6751.03 1432.16 1389.21 1663.61 1632.9
6753.85 1457.17 1405.19 1644.92 1657.95
6756.68 1326.24 1376.78 1665.32 1623.55
6759.5 1346.93 1369.21 1560.4 1617.61
6762.33 1434.45 1399.87 1627.11 1608.36
6765.15 1418.22 1408.8 1637.55 1614.05
6767.98 1373.74 1372.3 1577.48 1576.25
6770.8 1324.93 1393.89 1513.73 1602.68
6773.63 1482.99 1399.24 1716.84 1609.47
6776.45 1389.79 1385.97 1597.85 1625.79
6779.28 1285.11 1344.97 1562.67 1579.28
6782.1 1360 1347.71 1577.33 1578.67
6784.92 1398.02 1375.01 1596 1577.67
6787.75 1367.02 1408.07 1559.67 1603.65
6790.57 1459.18 1393.01 1655.28 1599.72
6793.4 1352.83 1399.49 1584.2 1616.55
6796.22 1386.47 1388.94 1610.17 1600.54
6799.04 1427.51 1424.42 1607.27 1629.99
6801.87 1459.28 1413.59 1672.54 1632.63
6804.69 1353.98 1383.99 1618.08 1632.99
6807.51 1338.7 1341.76 1608.36 1580.44
6810.33 1332.6 1363.78 1514.89 1582.11
6813.16 1420.02 1388.29 1623.09 1587.48
6815.98 1412.26 1372.97 1624.46 1615.23
6818.8 1286.63 1337.64 1598.16 1607.81
6821.62 1314.02 1263.18 1600.82 1578.63
6824.44 1188.89 1293.6 1536.92 1570.28
6827.26 1377.88 1314.48 1573.1 1566.96
6830.09 1376.67 1345.15 1590.87 1552.28
6832.91 1280.89 1346.97 1492.88 1546.32
6835.73 1383.36 1309.65 1555.21 1553.95
6838.55 1264.7 1278.94 1613.75 1574.48
6841.37 1188.76 1204.79 1554.47 1544.78
6844.19 1160.91 1167.5 1466.13 1526.64
6847.01 1152.82 1171.52 1559.33 1514.74
6849.83 1200.83 1167.42 1518.76 1524.43
6852.65 1148.62 1176.06 1495.2 1497.62
6855.47 1178.74 1189.42 1478.89 1499.57
6858.29 1240.9 1195.56 1524.62 1493.69
6861.11 1167.05 1149.29 1477.56 1442.84
6863.93 1039.91 1063.25 1326.32 1355.2
6866.75 982.792 995.942 1261.72 1272.06
6869.57 965.129 962.524 1228.15 1227.48
6872.39 939.653 950.551 1192.57 1245.09
6875.2 946.873 989.71 1314.55 1286.35
6878.02 1082.6 1035.35 1351.93 1331.07
6880.84 1076.56 1080.69 1326.71 1354.12
6883.66 1082.9 1039.84 1383.72 1336.84
6886.48 960.067 1035.24 1300.09 1342.22
6889.29 1062.74 1013.41 1342.86 1315.75
6892.11 1017.42 1048.19 1304.3 1329.97
6894.93 1064.42 1056.53 1342.74 1333.87
6897.75 1087.76 1062.64 1354.57 1356.42
6900.56 1035.74 1080.03 1371.94 1376.03
6903.38 1116.59 1073.77 1401.59 1373.12
6906.2 1068.99 1104.67 1345.84 1389.05
6909.01 1128.41 1138.12 1419.73 1415.97
6911.83 1216.95 1152.58 1482.35 1440.7
6914.65 1112.38 1147.99 1420.01 1443.72
6917.46 1114.64 1126.62 1428.8 1421.16
6920.28 1152.83 1152.43 1414.67 1442.74
6923.1 1189.82 1134.25 1484.75 1447.16
6925.91 1060.09 1124.33 1442.05 1452.56
6928.73 1123.09 1115.27 1430.89 1449.7
6931.54 1162.64 1136.52 1476.15 1434.93
6934.36 1123.81 1126.42 1397.76 1441.32
6937.17 1092.79 1125.79 1450.06 1428.26
6939.99 1160.77 1125.04 1436.97 1414.62
6942.8 1121.55 1155.55 1356.82 1406.5
6945.62 1184.32 1143.2 1425.73 1377.62
6948.43 1123.72 1100.72 1350.33 1398.19
6951.24 994.127 1084.49 1418.52 1402.05
6954.06 1135.62 1070.27 1437.31 1442.65
6956.87 1081.07 1133.18 1472.11 1455.8
6959.68 1182.84 1147.4 1457.98 1450.31
6962.5 1178.29 1607.72 1420.84 1940.45
6965.31 2462.04 2308.18 2942.53 2776.31
6968.12 3284.2 2309.51 3965.55 2770.84
6970.94 1182.29 1873.97 1404.43 2265.81
6973.75 1155.42 1179.64 1427.45 1439.96
6976.56 1201.22 1143.29 1488.01 1415.44
6979.37 1073.23 1163.23 1330.86 1434.53
6982.19 1215.25 1150.16 1484.71 1447.86
6985 1161.99 1174.88 1528.01 1470.67
6987.81 1147.38 1165.41 1399.3 1465.27
6990.62 1186.86 1156.23 1468.49 1416.45
6993.43 1134.46 1173.41 1381.55 1430.8
6996.25 1198.91 1155.28 1442.36 1419.33
6999.06 1132.48 1123.41 1434.09 1392.18
7001.87 1038.84 1109.94 1300.08 1410.25
7004.68 1158.49 1101.4 1496.59 1387.78
7007.49 1106.87 1147.49 1366.67 1428.79
7010.3 1177.12 1115.53 1423.1 1388.09
7013.11 1062.59 1145.28 1374.49 1403.64
7015.92 1196.13 1143.73 1413.34 1405.45
7018.73 1172.48 1193.96 1428.53 1426.14
7021.54 1213.27 1185.46 1436.56 1440.85
7024.35 1170.62 1140.15 1457.47 1416.67
7027.16 1036.56 1104.31 1355.98 1391.55
7029.97 1105.73 1100.29 1361.21 1386.05
7032.78 1158.59 1112.83 1440.96 1392.91
7035.59 1074.18 1126.77 1376.54 1392.79
7038.39 1147.54 1095.06 1360.87 1357.22
7041.2 1063.46 1090.91 1334.25 1327.21
7044.01 1061.71 1061.26 1286.52 1328.44
7046.82 1058.59 1078.35 1364.54 1341.45
7049.63 1114.74 1080.42 1373.29 1359.79
7052.43 1067.94 1098.98 1341.54 1358.37
7055.24 1114.26 1109.84 1360.28 1360.19
7058.05 1147.31 1133.47 1378.77 1376.6
7060.86 1138.83 1133.58 1390.77 1372.81
7063.66 1114.59 1108.07 1348.89 1331.8
7066.47 1070.8 1088.62 1255.73 1319.87
7069.28 1080.47 1094.34 1354.98 1321.26
7072.08 1131.75 1125.24 1353.07 1358.94
7074.89 1163.48 1132.3 1368.76 1350.6
7077.7 1101.68 1123.47 1329.96 1337.29
7080.5 1105.25 1060.16 1313.14 1298.07
7083.31 973.554 1038.59 1251.1 1291.88
7086.11 1036.97 1017.19 1311.41 1291.9
7088.92 1041.05 1059.12 1313.19 1323.95
7091.73 1099.33 1047.78 1347.27 1329.98
7094.53 1002.97 1035.53 1329.47 1329.38
7097.34 1004.28 1026.34 1311.41 1335.35
7100.14 1071.77 1049.99 1365.16 1312.13
7102.94 1073.93 1095.11 1259.84 1321.64
7105.75 1139.62 1092.87 1339.92 1289.51
7108.55 1065.06 1093.46 1268.77 1295.6
7111.36 1075.72 1081.49 1278.09 1288.55
7114.16 1103.71 1090.15 1318.79 1288.13
7116.96 1091.03 1110.61 1267.51 1315.02
7119.77 1137.1 1125.35 1358.75 1316.37
7122.57 1147.91 1105.5 1322.85 1323.33
7125.37 1031.5 1082.67 1288.4 1285.46
7128.18 1068.61 1050.85 1245.14 1264.3
7130.98 1052.45 1064.31 1259.37 1251.93
7133.78 1071.87 1067.79 1251.28 1267.23
7136.59 1079.05 1078.04 1291.05 1262.97
7139.39 1083.19 1068.1 1246.57 1260.37
7142.19 1042.06 1056.53 1243.5 1243.36
7144.99 1044.35 1024.58 1240.03 1228.67
7147.79 987.325 1029.99 1202.47 1231.11
7150.59 1058.29 1027.5 1250.84 1224.85
7153.4 1036.89 1043.92 1221.23 1237.83
7156.2 1036.59 1039.85 1241.44 1232.99
7159 1046.07 1052.02 1236.31 1238.41
7161.8 1073.4 1035.96 1237.48 1219.78
7164.6 988.402 1027.36 1185.56 1209.44
7167.4 1020.28 1003.63 1205.3 1181.72
7170.2 1002.22 1001.31 1154.29 1182.97
7173 981.443 985.004 1189.31 1149.66
7175.8 971.346 987.12 1105.36 1159.63
7178.6 1008.57 968.685 1184.2 1121.64
7181.4 926.135 961.808 1075.35 1127.44
7184.2 950.717 938.348 1122.77 1086.15
7187 938.191 944.185 1060.33 1092.39
7189.8 943.647 968.675 1094.08 1108.42
7192.59 1024.19 972.788 1170.85 1112.38
7195.39 950.532 985.709 1072.21 1128.17
7198.19 982.41 944.975 1141.44 1088.09
7200.99 901.983 945.763 1050.62 1114.01
7203.79 952.896 972.859 1149.98 1130.46
7206.59 1063.7 1009.51 1190.79 1164.42
7209.38 1011.95 1023.75 1152.5 1164.46
7212.18 995.602 987.986 1150.1 1146.49
7214.98 956.407 990.912 1136.87 1169.5
7217.77 1020.73 1000.85 1221.52 1182.5
7220.57 1025.42 1034.27 1189.09 1207.11
7223.37 1056.67 1043.71 1210.72 1205.16
7226.16 1049.04 1040.36 1215.67 1202.73
7228.96 1015.36 1017.22 1181.81 1194.43
7231.76 987.258 998.471 1185.82 1183.41
7234.55 992.798 997.686 1182.58 1168.99
7237.35 1013 1013.3 1138.57 1140.27
7240.14 1034.1 886.076 1099.64 1102.09
7242.94 611.131 884.388 1068.04 1116.24
7245.73 1007.94 854.51 1181.04 1106.21
7248.53 944.462 918.656 1069.57 1106.04
7251.32 803.57 936.457 1067.5 1099.45
7254.12 1061.34 947.991 1161.29 1094.88
7256.91 979.064 1017.59 1055.86 1114.85
7259.71 1012.38 966.474 1127.42 1099.43
7262.5 907.981 938.13 1115 1122.89
7265.3 894.034 893.958 1126.25 1086.44
7268.09 879.858 927.556 1018.07 1082
7270.88 1008.78 933.8 1101.66 1045.51
7273.68 912.765 972.429 1016.79 1052.31
7276.47 995.746 977.077 1038.47 1053.74
7279.26 1022.72 1000.99 1105.95 1084.2
7282.05 984.51 978.577 1108.18 1089.56
7284.85 928.502 893.046 1054.55 1063.99
7287.64 766.126 848.779 1029.25 1068.3
7290.43 851.707 857.424 1121.09 1068.98
7293.22 954.438 934.857 1056.6 1075.81
7296.02 998.426 977.15 1049.74 1046.35
7298.81 978.588 1008.13 1032.72 1064.98
7301.6 1047.36 1010.51 1112.48 1090.02
7304.39 1005.59 1006.86 1124.85 1101.1
7307.18 967.62 983.749 1065.98 1096.48
7309.97 978.037 966.311 1098.59 1067.87
7312.76 953.275 992.1 1039.04 1096.81
7315.55 1044.99 904.018 1152.79 1074.41
7318.34 713.791 919.097 1031.4 1106.45
7321.13 998.511 843.325 1135.16 1086.7
7323.92 817.674 942.691 1093.54 1121.52
7326.71 1011.89 918.208 1135.87 1132.8
7329.5 925.06 983.432 1169 1161.06
7332.29 1013.35 983.816 1178.3 1138.88
7335.08 1013.04 926.401 1069.34 1129.76
7337.87 752.815 901.314 1141.65 1088.77
7340.66 938.087 864.684 1055.31 1088.8
7343.45 903.15 882.459 1069.44 1056.07
7346.23 806.139 906.471 1043.46 1071.61
7349.02 1010.13 944.287 1101.92 1090.31
7351.81 1016.6 1029.72 1125.54 1125.17
7354.6 1062.43 999.981 1148.03 1097.2
7357.38 920.915 968.024 1018.03 1053.46
7360.17 920.727 966.69 994.323 1057.18
7362.96 1058.43 923.41 1159.19 1060.46
7365.75 791.074 917.791 1027.86 1104.43
7368.53 903.871 811.672 1126.23 1062.64
7371.32 740.073 886.951 1033.84 1087.49
7374.11 1016.91 881.028 1102.42 1060.89
7376.89 886.104 975.626 1046.43 1096.73
7379.68 1023.87 961.334 1141.36 1078.72
7382.46 974.033 1005.4 1048.38 1091.05
7385.25 1018.31 1009.15 1083.41 1082.15
7388.03 1035.1 979.983 1114.64 1082.5
7390.82 886.538 992.774 1049.44 1088.44
7393.6 1056.69 976.413 1101.24 1063.78
7396.39 986.013 1012.05 1040.66 1058.82
7399.17 993.438 1013.29 1034.55 1060.6
7401.96 1060.42 988.935 1106.6 1035.18
7404.74 912.944 965.249 964.396 1052.37
7407.53 922.378 924.064 1086.12 1013.08
7410.31 936.869 923.289 988.724 1044.15
7413.09 910.618 916.796 1057.62 1002.81
7415.88 902.899 887.656 962.093 1013.09
7418.66 849.449 926.14 1019.55 1041.52
7421.44 1026.07 904.684 1142.9 1052.76
7424.22 838.529 944.264 995.821 1054.11
7427.01 968.191 902 1023.6 996.574
7429.79 899.28 885.967 970.301 981.353
7432.57 790.431 882.162 950.156 976.598
7435.35 956.777 904.105 1009.34 995.23
7438.14 965.109 975.875 1026.2 1027.1
7440.92 1005.74 953.164 1045.76 1030.96
7443.7 888.644 960.697 1020.93 1049.48
7446.48 987.706 942.695 1081.75 1046.99
7449.26 951.735 995.219 1038.3 1076.78
7452.04 1046.22 983.71 1110.29 1064.41
7454.82 953.178 964.011 1044.64 1047.91
7457.6 892.639 946.612 988.808 1017.59
7460.38 994.019 967.095 1019.32 1027.37
7463.16 1014.63 984.987 1073.99 1033.87
7465.94 946.316 964.469 1008.3 1031.96
7468.72 932.463 962.476 1013.58 1029.04
7471.5 1008.65 968.872 1065.25 1025.35
7474.28 965.502 944.97 997.221 1037.85
7477.06 860.757 913.013 1051.09 1014.12
7479.84 912.78 916.735 994.046 1029.19
7482.62 976.668 960.699 1042.43 1025.53
7485.39 992.648 935.089 1040.12 1024.34
7488.17 835.95 923.296 990.472 1009.97
7490.95 941.29 933.077 999.33 1018.38
7493.73 1021.99 968.399 1065.35 1030.69
7496.51 941.916 974.832 1027.4 1028.73
7499.28 960.588 951.574 993.443 1017.37
7502.06 952.22 934.537 1031.28 991.024
7504.84 890.802 947.323 948.349 1004.34
7507.61 998.947 926.785 1033.39 983.624
7510.39 890.607 963.937 969.131 1018.13
7513.17 1002.26 941.342 1051.88 992.974
7515.94 931.162 907.95 957.913 975.176
7518.72 790.431 875.704 915.738 948.847
7521.49 905.519 896.653 972.89 983.734
7524.27 994.008 933.169 1062.57 1034.23
7527.04 899.981 940.413 1067.23 1026.14
7529.82 927.249 921.848 948.603 999.169
7532.59 938.313 927.477 981.67 951.493
7535.37 916.871 929.773 924.205 950.618
7538.14 934.137 895.41 945.978 930.022
7540.92 835.223 873.164 919.882 940.723
7543.69 850.131 831.488 956.31 933.405
7546.47 809.11 864.762 924.024 950.55
7549.24 935.045 891.425 971.315 945.192
7552.01 930.12 934.568 940.237 962.979
7554.79 938.538 914.671 977.384 959.891
7557.56 875.356 885.432 962.051 966.091
7560.33 842.401 847.638 958.836 952.362
7563.1 825.157 866.547 936.198 947.862
7565.88 932.085 874.147 948.55 929.783
7568.65 865.2 911.505 904.6 961.276
7571.42 937.23 902.204 1030.68 947.283
7574.19 904.182 906.616 906.572 967.717
7576.96 878.436 898.35 965.902 947.667
7579.73 912.433 891.327 970.529 941.291
7582.51 883.111 877.288 887.441 914.966
7585.28 836.32 858.37 886.926 868.433
7588.05 855.679 792.323 830.932 820.558
7590.82 684.969 698.054 743.815 733.209
7593.59 553.513 567.625 624.878 615.896
7596.36 464.394 452.887 478.996 487.976
7599.13 340.753 377.134 360.054 389.194
7601.9 326.255 320.854 328.533 332.222
7604.67 295.552 320.124 308.078 321.682
7607.44 338.564 348.19 328.436 353.737
7610.21 410.455 403.741 424.698 422.428
7612.97 462.204 488.838 514.15 508.136
7615.74 593.855 539.334 585.559 540.993
7618.51 561.941 556.022 523.269 545.544
7621.28 512.271 526.378 527.804 541.419
7624.05 504.922 508.588 573.185 534.724
7626.81 508.571 524.646 503.183 533.708
7629.58 560.446 511.071 524.758 505.561
7632.35 464.196 516.43 488.743 520.854
7635.12 524.649 493.105 549.061 514.797
7637.88 490.47 527.166 506.586 539.885
7640.65 566.38 549.807 564.007 551.107
7643.42 592.571 583.663 582.728 580.433
7646.18 592.038 604.306 594.564 593.753
7648.95 628.308 632.43 603.966 624.297
7651.71 676.942 652.425 674.36 641.771
7654.48 652.025 662.333 646.985 665.981
7657.25 658.031 672.223 676.598 680.055
7660.01 706.614 660.808 716.581 687.522
7662.78 617.78 677.481 669.388 697.922
7665.54 708.049 698.045 707.797 703.483
7668.31 768.307 738.746 733.266 719.418
7671.07 739.88 750.704 717.193 742.495
7673.83 743.924 758.567 777.027 760.532
7676.6 791.898 792.72 787.376 795.112
7679.36 842.339 807.6 820.931 788.178
7682.12 788.562 818.528 756.226 804.756
7684.89 824.684 796.513 837.112 797.744
7687.65 776.294 785.732 799.895 789.636
7690.41 756.217 755.571 731.901 768.595
7693.18 734.203 771.121 773.991 776.199
7695.94 822.944 780.689 822.704 798.128
7698.7 784.92 805.89 797.69 794.032
7701.46 809.805 815.998 761.701 790.74
7704.22 853.269 830.044 812.828 773.631
7706.99 827.06 832.104 746.363 772.004
7709.75 815.984 831.686 756.822 770.585
7712.51 852.013 830.715 808.569 796.39
7715.27 824.146 830.597 823.78 803.676
7718.03 815.63 763.84 778.678 800.686
7720.79 651.742 763.833 799.599 778.322
7723.55 824.125 760.435 756.69 771.43
7726.31 805.438 794.699 758.001 758.497
7729.07 754.534 788.106 760.8 765.621
7731.83 804.345 785.583 778.063 767.494
7734.59 797.87 807.306 763.62 778.103
7737.35 819.704 754.307 792.627 756.165
7740.11 645.346 722.287 712.247 757.972
7742.87 701.811 678.021 769.041 739.411
7745.62 686.905 685.415 736.944 742.714
7748.38 667.53 632.807 722.156 730.378
7751.14 543.985 627.305 732.033 733.557
7753.9 670.399 648.025 746.483 749.414
7756.66 729.691 696.684 769.727 745.312
7759.41 689.962 698.491 719.725 725.894
7762.17 675.821 677.922 688.231 723.621
7764.93 667.984 661.048 762.906 727.52
7767.68 639.339 674.611 731.421 755.043
7770.44 716.508 671.533 770.801 728.425
7773.2 658.75 667.169 683.051 702.2
7775.95 626.247 630.697 652.748 670.63
7778.71 607.093 639.157 676.091 681.081
7781.47 684.132 655.741 714.403 711.658
7784.22 675.998 682.93 744.478 735.866
7786.98 688.658 679.481 748.715 735.199
7789.73 673.786 668.521 712.402 711.647
7792.49 643.118 662.719 673.822 692.479
7795.24 671.252 673.853 691.212 691.292
7797.99 707.188 698.558 708.842 713.338
7800.75 717.233 692.448 739.961 722.128
7803.5 652.923 696.495 717.581 721.829
7806.26 719.329 696.12 707.944 706.187
7809.01 716.109 700.633 693.037 720.287
7811.76 666.461 686.757 759.879 713.664
7814.52 677.701 689.003 688.074 709.229
7817.27 722.848 704.878 679.733 684.874
7820.02 714.086 711.132 686.815 684.929
7822.77 696.462 670.881 688.238 691.086
7825.52 602.095 654.164 698.205 709.832
7828.28 663.935 665.681 743.054 738.147
7831.03 731.014 729.53 773.183 789.066
7833.78 793.64 773.837 850.962 823.164
7836.53 796.858 797.722 845.347 845.243
7839.28 802.669 790.865 839.42 815.164
7842.03 773.069 747.563 760.727 770.607
7844.78 666.949 723.692 711.674 724.442
7847.53 731.058 672.148 700.926 668.468
7850.28 618.436 689.433 592.803 649.622
7853.03 718.806 653.263 655.136 620.513
7855.78 622.547 657.484 613.601 641.476
7858.53 631.098 634.993 655.692 661.079
7861.28 651.335 659.047 713.945 694.254
7864.03 694.708 653.099 713.126 680.93
7866.78 613.253 658.912 615.719 668.483
7869.53 668.776 628.576 676.604 632.958
7872.28 603.698 623.114 606.55 642.714
7875.02 596.868 613.622 644.988 611.64
7877.77 640.3 617.526 583.382 616.551
7880.52 615.41 613.477 621.284 583.844
7883.27 584.721 637.07 546.866 599.784
7886.01 711.078 651.094 631.201 605.835
7888.76 657.484 676.879 639.439 638.587
7891.51 662.077 653.938 645.122 648.206
7894.25 642.254 639.821 660.056 634.743
7897 615.131 613.941 599.052 624.1
7899.74 584.439 599.653 613.194 609.449
7902.49 599.389 618.109 616.101 619.328
7905.24 670.5 634.637 628.689 593.2
7907.98 634.022 639.411 534.811 594.105
7910.73 613.711 637.396 618.815 556.282
7913.47 664.454 609.128 515.22 576.375
7916.22 549.219 597.929 595.09 565.049
7918.96 580.115 569.118 584.837 579.379
7921.7 578.02 605.281 558.21 589.092
7924.45 657.708 629.834 624.23 596.743
7927.19 653.776 637.504 607.79 604.107
7929.93 601.028 623.285 580.302 609.326
7932.68 615.051 610.265 639.887 605.546
7935.42 614.716 591.898 596.45 579.735
7938.16 545.927 593.98 502.868 567.926
7940.91 621.296 589.632 604.46 547.982
7943.65 601.672 586.044 536.616 555.971
7946.39 535.162 595.112 526.835 561.129
7949.13 648.503 618.337 619.935 602.849
7951.87 671.345 637.303 661.778 613.911
7954.62 592.062 631.196 560.02 590.86
7957.36 630.181 619.723 550.781 554.75
7960.1 636.926 613.801 553.45 559.638
7962.84 574.294 586.3 574.684 549.742
7965.58 547.678 552.695 521.093 534.378
7968.32 536.111 567.85 507.356 527.868
7971.06 619.761 589.171 555.155 539.606
7973.8 611.64 621.741 556.306 555.402
7976.54 633.821 616.175 554.745 557.747
7979.28 603.063 614.101 562.189 551.245
7982.02 605.419 597.346 536.801 547.7
7984.75 583.555 609.601 544.11 549.444
7987.49 639.83 588.616 567.42 547.083
7990.23 542.464 596.493 529.721 546.912
7992.97 607.186 606.622 543.597 585.937
7995.71 670.216 610.13 684.493 579.927
7998.44 552.988 595.924 511.691 570.095
8001.18 564.567 570.369 514.102 529.365
8003.92 593.553 586.222 562.303 539.725
8006.66 600.546 595.161 542.77 552.772
8009.39 591.384 585.064 553.243 529.632
8012.13 563.263 594.045 492.883 535.38
8014.87 627.488 607.413 560.013 533.525
8017.6 631.488 629.314 547.68 563.917
8020.34 628.965 628.892 584.059 568.989
8023.07 626.222 628.462 575.228 562.038
8025.81 630.198 617.392 526.828 525.54
8028.54 595.757 605.202 474.565 517.985
8031.28 589.65 612.16 552.561 533.989
8034.01 651.073 600.95 574.841 543.962
8036.75 562.128 612.039 504.483 544.153
8039.48 622.915 596.835 553.136 534.945
8042.21 605.463 614.975 547.217 554.871
8044.95 616.548 608.383 564.26 540.476
8047.68 603.137 589.84 509.952 512.411
8050.41 549.835 587.495 463.021 503.201
8053.15 609.512 586.468 536.629 501.101
8055.88 600.057 597.815 503.654 523.73
8058.61 583.876 596.894 530.906 519.148
8061.34 606.749 592.775 522.883 524.568
8064.08 587.699 598.006 519.915 524.519
8066.81 599.57 598.19 530.76 537.411
8069.54 607.302 601.296 561.558 524.749
8072.27 597.015 590.254 481.928 515.229
8075 566.444 579.698 502.2 505.934
8077.73 575.634 571.582 533.674 517.794
8080.46 572.669 575.214 517.507 521.44
8083.19 577.341 557.74 513.14 502.12
8085.92 523.211 539.311 475.712 485.861
8088.65 517.38 530.958 468.732 477.851
8091.38 552.283 554.689 489.109 481.176
8094.11 594.405 568.671 485.687 479.779
8096.84 559.325 563.866 464.543 473.046
8099.57 537.869 555.398 468.908 473.454
8102.3 568.999 553.644 486.911 474.78
8105.03 554.064 560.966 468.522 461.386
8107.75 559.833 552.721 428.726 465.934
8110.48 544.266 548.29 500.556 468.402
8113.21 540.772 551.721 475.926 484.928
8115.94 570.127 552.433 478.303 473.838
8118.66 546.4 548.547 467.284 469.618
8121.39 529.113 547.172 463.267 473.098
8124.12 566.002 558.338 488.743 486.364
8126.84 579.9 568.041 507.083 490.349
8129.57 558.222 532.145 475.22 459.309
8132.3 458.312 516.824 395.624 429.102
8135.02 533.939 503.091 416.463 423.431
8137.75 517.023 523.083 458.206 426.619
8140.47 518.289 515.393 405.188 428.283
8143.2 510.867 511.213 421.455 435.661
8145.92 504.484 503.484 480.34 439.449
8148.65 495.1 502.543 416.553 439.496
8151.37 508.044 507.394 421.596 428.862
8154.09 519.037 508.196 448.438 436.047
8156.82 497.508 498.847 438.105 434.204
8159.54 479.995 492.937 416.07 420.278
8162.26 501.308 488.485 406.659 413.144
8164.99 484.154 504.398 416.703 419.821
8167.71 527.734 512.317 436.102 415.479
8170.43 525.063 513.308 393.63 417.665
8173.15 487.126 501.046 423.263 403.117
8175.88 490.947 495.632 392.458 418.182
8178.6 508.823 494.283 438.826 409.497
8181.32 483.079 490.717 397.206 411.008
8184.04 480.249 483.467 396.992 401.016
8186.76 487.074 500.802 408.849 412.281
8189.48 535.085 521.57 431.001 432.733
8192.2 542.552 517.998 458.349 421.138
8194.92 476.358 495.893 374.064 408.181
8197.64 468.768 472.953 392.13 386.992
8200.36 473.732 500.252 394.782 409.088
8203.08 558.257 514.087 440.351 412.144
8205.8 510.273 513.081 401.3 417.44
8208.52 470.714 494.294 410.669 407.282
8211.24 501.896 502.789 409.879 411.018
8213.96 535.756 512.44 412.507 417.552
8216.68 499.668 498.538 430.271 408.147
8219.39 460.19 491.232 381.664 407.083
8222.11 513.839 484.419 409.314 388.234
8224.83 479.227 461.973 373.723 363.932
8227.55 392.852 455.243 308.759 362.504
8230.26 493.649 441.456 405.03 353.35
8232.98 437.866 479.505 346.261 381.428
8235.7 507.001 488.93 392.992 376.839
8238.41 521.923 511.928 391.264 389.916
8241.13 506.859 514.772 385.491 387.967
8243.84 515.534 518.668 387.147 394.461
8246.56 533.612 530.339 410.745 413.584
8249.28 541.871 536.558 442.859 427.744
8251.99 534.191 515.029 429.629 398.678
8254.71 469.025 505.536 323.548 381.597
8257.42 513.393 489.881 391.614 366.104
8260.13 487.223 512.689 383.15 395.976
8262.85 537.45 500.895 413.164 393.307
8265.56 478.014 506.457 383.607 395.976
8268.28 503.908 498.08 391.157 392.779
8270.99 512.318 503.415 403.572 398.606
8273.7 494.018 499.805 401.089 401.961
8276.41 493.078 496.497 401.221 380.871
8279.13 502.394 473.368 340.304 364.606
8281.84 424.632 441.498 352.293 306.335
8284.55 397.468 429.93 226.408 300.188
8287.26 467.689 456.333 321.864 290.673
8289.97 503.841 485.494 323.749 314.381
8292.69 484.952 483.013 297.529 323.938
8295.4 460.247 473.799 350.537 355.653
8298.11 476.197 435.678 418.894 321.103
8300.82 370.59 451.564 193.876 322.324
8303.53 507.904 441.787 354.201 303.348
8306.24 446.867 485.497 361.968 366.506
8308.95 501.721 480.826 383.349 356.44
8311.66 493.89 510.142 324.003 371.895
8314.37 534.814 493.533 408.332 365
8317.07 451.896 494.753 362.665 377.704
8319.78 497.548 485.193 362.115 364.544
8322.49 506.136 488.673 368.853 360.405
8325.2 462.334 483.533 350.248 356.211
8327.91 482.129 485.139 349.532 365.211
8330.62 510.953 495.84 395.854 369.031
8333.32 494.438 501.74 361.708 365.167
8336.03 499.829 506.744 337.938 343.55
8338.74 525.966 528.334 331.005 331.051
8341.44 559.207 532.599 324.209 334.471
8344.15 512.623 500.804 348.2 320.024
8346.86 430.583 478.997 287.663 309.53
8349.56 493.784 458.361 292.728 321.286
8352.27 450.714 444.791 383.468 325.75
8354.97 389.875 446.988 301.054 354.432
8357.68 500.373 475.382 378.775 367.138
8360.38 535.897 501.467 421.585 368.165
8363.09 468.132 502.695 304.137 353.832
8365.79 504.057 500.245 335.774 330.166
8368.5 528.546 497.767 350.588 351.035
8371.2 460.696 490.512 366.744 354.396
8373.9 482.293 469.139 345.856 351.872
8376.61 464.429 480.553 343.015 368.849
8379.31 494.937 487.715 417.674 361.331
8382.01 503.78 494.012 323.302 360.752
8384.71 483.319 478.044 341.28 327.758
8387.42 447.032 495.545 318.693 353.475
8390.12 556.285 510.826 400.453 374.823
8392.82 529.159 555.63 405.323 392.965
8395.52 581.446 1723.97 373.12 1155.54
8398.22 4061.31 2596.89 2688.19 1731.26
8400.92 3147.92 2570.37 2132.48 1697.82
8403.62 501.882 1384.85 272.809 912.584
8406.32 504.742 506.938 332.468 324.538
8409.02 514.189 493.096 368.338 339.09
8411.72 460.356 486.627 316.463 332.29
8414.42 485.337 474.856 312.07 322.031
8417.12 478.874 490.61 337.561 328.977
8419.82 507.618 476.95 337.299 330.251
8422.52 444.358 478.308 315.894 322.229
8425.22 482.949 468.964 313.495 303.053
8427.92 479.584 493.148 279.769 296.483
8430.62 516.912 450.737 296.186 281.005
8433.31 355.714 429.577 267.061 276.207
8436.01 416.107 341.262 265.374 238.371
8438.71 251.964 334.315 182.677 228.568
8441.41 334.875 317.188 237.655 233.399
8444.1 364.725 382.491 279.865 270.27
8446.8 447.873 450.147 293.29 295.99
8449.49 537.843 487.275 314.816 315.581
8452.19 476.11 508.49 338.638 321.498
8454.89 511.516 484.936 311.039 317.863
8457.58 467.181 479.241 303.912 316.084
8460.28 459.026 466.382 333.301 319.207
8462.97 472.938 481.988 320.407 327.838
8465.67 514.001 461.151 329.804 302.898
8468.36 396.514 463.764 258.483 297.749
8471.05 480.777 461.7 304.96 298.423
8473.75 507.809 484.822 331.825 308.627
8476.44 465.881 483.797 289.097 311.655
8479.13 477.7 484.959 314.042 317.878
8481.83 511.296 473.326 350.494 307.116
8484.52 430.982 480.02 256.813 311.044
8487.21 497.783 468.748 325.826 299.003
8489.91 477.48 480.747 314.369 320.735
8492.6 466.977 455.863 322.011 303.138
8495.29 423.131 447.074 273.035 282.741
8497.98 451.113 443.95 253.176 253.143
8500.67 457.605 462.175 233.218 264.629
8503.36 477.807 477.982 307.493 254.11
8506.05 498.534 480.848 221.618 259.632
8508.74 466.204 469.494 249.785 258.54
8511.43 443.745 471.317 304.216 283.023
8514.12 504.003 476.178 295.068 295.12
8516.81 480.785 489.122 286.075 297.432
8519.5 482.578 485.225 311.153 298.607
8522.19 492.311 487.694 298.592 298.816
8524.88 488.192 477.466 286.703 297.889
8527.57 451.895 462.439 308.372 291.116
8530.26 447.228 454.733 278.274 300.373
8532.94 465.075 463.339 314.472 306.75
8535.63 477.713 460.933 327.505 307.413
8538.32 440.01 451.713 280.261 296.549
8541.01 437.416 414.145 281.88 262.84
8543.69 365.008 399.935 226.379 253.749
8546.38 397.381 383.166 252.989 256.902
8549.07 387.108 406.089 291.339 289.194
8551.75 433.778 423.036 323.252 318.397
8554.44 448.221 438.748 340.601 337.918
8557.12 434.245 445.172 349.9 348.704
8559.81 453.05 446.164 355.611 338.516
8562.49 451.197 440.018 310.035 316.902
8565.18 415.806 432.075 285.059 303.882
8567.86 429.221 415.705 316.552 284.628
8570.55 402.089 435.85 252.272 296.149
8573.23 476.239 438.498 319.625 294.47
8575.91 437.168 452.676 311.514 309.956
8578.6 444.623 444.511 298.731 307.384
8581.28 451.742 445.598 311.906 288.028
8583.96 440.43 447.164 253.447 285.842
8586.64 449.318 455.593 292.174 286.744
8589.33 477.03 457.7 314.611 303.888
8592.01 446.751 452.474 304.881 306.264
8594.69 433.64 438.55 299.302 297.964
8597.37 435.26 442.003 289.708 311.17
8600.05 457.108 442.183 344.499 305.085
8602.73 434.182 438.408 281.049 310.68
8605.41 423.935 437.055 306.492 288.852
8608.09 453.049 420.434 279.015 285.748
8610.77 384.318 439.736 271.738 290.604
8613.45 481.842 434.697 321.059 289
8616.13 437.932 441.33 274.204 275.592
8618.81 404.217 432.785 231.513 263.356
8621.49 456.206 436.66 284.351 254.14
8624.17 449.557 455.768 246.556 280.88
8626.85 461.541 458.152 311.732 285.741
8629.53 463.358 480.347 298.933 300.383
8632.2 516.14 451.12 290.484 299.755
8634.88 373.862 438.678 309.849 272.413
8637.56 426.033 417.954 216.905 265.87
8640.24 453.967 435.453 270.855 259.718
8642.91 426.36 438.702 291.394 281.865
8645.59 435.78 419.291 283.347 293.318
8648.26 395.732 426.175 305.213 299.34
8650.94 447.012 406.424 309.459 308.144
8653.62 376.527 431.67 309.758 284.228
8656.29 471.472 417.312 233.467 257.975
8658.97 403.937 420.845 230.7 255.591
8661.64 387.127 394.984 302.606 258.063
8664.32 393.888 397.629 240.882 259.253
8666.99 411.873 438.516 234.271 248.659
8669.66 509.787 444.939 270.824 264.654
8672.34 413.158 440.108 288.866 283.376
8675.01 397.379 407.086 290.436 284.557
8677.68 410.721 408.846 274.37 276.498
8680.36 418.437 435.235 264.687 270.379
8683.03 476.547 434.137 272.081 271.549
8685.7 407.428 446.355 277.88 275.432
8688.37 455.09 427.975 276.336 266.825
8691.04 421.408 431.818 246.26 262.523
8693.72 418.956 434.327 264.974 261.079
8696.39 462.616 453.642 272.004 269.023
8699.06 479.354 445.257 270.09 272.583
8701.73 393.801 437.58 275.656 263.861
8704.4 439.584 425.708 245.836 262.487
8707.07 443.74 439.64 265.97 264.091
8709.74 435.596 442.341 280.468 276.17
8712.41 447.687 434.855 282.073 273.873
8715.08 421.282 450.026 259.076 270.781
8717.75 481.109 448.145 271.193 263.007
8720.41 442.044 451.241 258.752 262.137
8723.08 430.568 458.127 256.467 268.097
8725.75 501.768 455.609 289.071 272.068
8728.42 434.491 460.272 270.667 270.809
8731.09 444.558 444.385 252.688 258.447
8733.75 454.106 459.897 251.985 270.649
8736.42 481.026 455.803 307.273 279.362
8739.09 432.276 454.544 278.827 278.98
8741.75 450.331 439.228 250.839 256.716
8744.42 435.077 465.225 240.48 262.528
8747.08 510.268 458.399 296.265 260.719
8749.75 429.852 456.984 245.411 267.723
8752.41 430.834 456.076 261.494 272.199
8755.08 507.542 477.182 309.693 297.933
8757.74 493.169 476.624 322.613 278.584
8760.41 429.161 449.73 203.447 265.51
8763.07 426.861 418.156 270.47 224.846
8765.74 398.448 417.189 200.622 199.309
8768.4 426.259 420.884 126.836 209.5
8771.06 437.943 410.546 301.042 218.48
8773.73 367.435 443.713 227.563 266.581
8776.39 525.76 441.332 271.138 243.543
8779.05 430.801 466.931 231.928 228.198
8781.71 444.232 431.232 181.528 214.907
8784.37 418.662 429.675 231.265 206.064
8787.04 426.131 418.969 205.398 236.57
8789.7 412.114 418.196 273.047 243.287
8792.36 416.342 411.588 251.415 246.78
8795.02 406.309 399.298 215.878 215.782
8797.68 375.242 401.472 180.053 212.268
8800.34 422.863 424.012 240.874 223.775
8803 473.931 444.305 250.398 227.64
8805.66 436.121 443.921 191.648 229.931
8808.32 421.712 416.836 247.748 217.962
8810.98 392.676 424.289 214.489 238.832
8813.63 458.478 431.868 254.26 241.271
8816.29 444.451 449.179 255.064 254.265
8818.95 444.606 444.575 253.47 286.147
8821.61 444.668 465.14 349.907 287.129
8824.27 506.146 518.526 258.01 318.704
8826.92 604.764 501.394 348.195 251.284
8829.58 393.27 453.807 147.646 228.983
8832.24 363.388 404.817 191.108 153.16
8834.89 457.793 397.18 120.726 137.779
8837.55 370.359 416.65 101.503 132.185
8840.2 421.796 397.319 174.327 150.923
8842.86 399.801 406.078 176.94 187.289
8845.51 396.635 422.071 210.601 209.237
8848.17 469.777 420.071 240.17 232.761
8850.82 393.801 422.678 247.511 231.174
8853.48 404.455 421.305 205.842 222.036
8856.13 465.66 439.206 212.754 204.273
8858.78 447.503 431.115 194.224 207.719
8861.44 380.181 419.829 216.179 221.424
8864.09 431.805 409.061 253.87 235.776
8866.74 415.196 432.546 237.278 241.853
8869.4 450.636 441.54 234.411 226.617
8872.05 458.787 432.404 208.161 184.883
8874.7 387.789 439.735 112.077 175.704
8877.35 472.629 435.985 206.874 179.07
8880 447.536 463.193 218.26 246.198
8882.65 469.414 444.675 313.461 241.746
8885.3 417.073 441.194 193.516 231.638
8887.96 437.093 426.076 187.938 194.01
8890.61 424.061 404.632 200.577 150.889
8893.25 352.74 389.632 64.1526 142.089
8895.9 392.095 384.072 161.538 130.347
8898.55 407.381 405.61 165.35 203.172
8901.2 417.354 423.535 282.628 218.451
8903.85 445.87 401.345 207.374 205.245
8906.5 340.81 399.607 125.732 187.405
8909.15 412.142 396.868 229.11 177.263
8911.8 437.653 431.468 176.948 204.147
8914.44 444.609 440.658 206.382 203.657
8917.09 439.711 439.839 227.641 229.831
8919.74 435.196 439.23 255.469 214.491
8922.38 442.783 403.881 160.362 155.078
8925.03 333.664 367.64 49.4034 92.1941
8927.68 326.473 344.91 66.8167 68.5402
8930.32 374.594 368.949 89.4003 97.6259
8932.97 405.78 398.738 136.661 140.485
8935.61 415.838 424.432 195.395 175.051
8938.26 451.677 425.236 193.098 205.222
8940.9 408.192 435.864 227.175 187.545
8943.54 447.722 421.805 142.363 188.862
8946.19 409.502 422.718 197.049 176.6
8948.83 410.93 386.33 190.387 180.548
8951.48 338.557 393.635 154.209 166.124
8954.12 431.416 420.663 153.777 167.713
8956.76 492.016 460.707 195.153 179.216
8959.4 458.69 435.636 188.719 168.467
8962.05 356.201 402.674 121.531 118.049
8964.69 393.132 372.795 43.8979 85.9993
8967.33 369.053 369.253 92.569 80.9925
8969.97 345.573 364.61 106.51 110.725
8972.61 379.204 366.493 133.097 134.576
8975.25 374.701 404.038 164.121 150.784
8977.89 458.211 409.016 155.134 166.713
8980.53 394.138 405.971 180.882 172.416
8983.17 365.563 386.958 181.232 193.423
8985.81 401.174 372.733 218.155 187.078
8988.45 351.463 365.343 161.847 198.351
8991.09 343.392 329.441 215.051 192.569
8993.73 293.468 333.025 200.81 171.109
8996.36 362.215 354.516 97.4662 158.629
8999 407.865 379.515 177.612 148.964
9001.64 368.465 387.482 171.813 142.946
9004.28 386.118 368.347 79.4124 127.813
9006.91 350.46 355.873 132.213 114.254
9009.55 331.042 366.97 131.136 134.133
9012.19 419.408 365.106 139.051 135.891
9014.82 344.867 379.111 137.487 151.712
9017.46 373.058 364.858 178.599 160.045
9020.09 376.649 379.447 164.05 164.837
9022.73 388.635 383.086 151.863 158.539
9025.36 383.973 383.543 159.704 155.818
9028 378.019 380.335 155.888 148.896
9030.63 379.014 388.233 131.096 154.156
9033.27 407.667 396.279 175.483 159.53
9035.9 402.155 407.296 172.01 176.485
9038.53 412.067 409.925 181.962 181.999
9041.17 415.554 399.78 192.027 178.847
9043.8 371.718 405.786 162.551 178.209
9046.43 430.087 401.138 180.048 168.948
9049.06 401.608 391.465 164.245 160.377
9051.7 342.699 368.5 136.836 160.998
9054.33 361.193 360.706 181.913 137.044
9056.96 378.226 358.039 92.3843 133.234
9059.59 334.697 366.969 125.404 126.253
9062.22 387.983 366.86 160.97 155.339
9064.85 377.9 376.973 179.644 163.297
9067.48 365.036 338.096 149.277 135.904
9070.11 271.353 280.079 78.7894 101.188
9072.74 203.848 158.4 75.4987 51.4294
