wavelength spectrum_sum 3smoothed_sum spectrum_optimal 3smoothed_optimal
3507.54 53.2732 44.2478 60.834 50.6525
3510.45 79.4703 73.3931 91.1235 81.5885
3513.36 87.436 90.7819 92.8081 97.0379
3516.26 105.44 97.7406 107.182 102.093
3519.17 100.346 96.3173 106.29 98.4115
3522.07 83.166 93.2043 81.7624 94.3465
3524.98 96.1006 94.7747 94.9869 90.8401
3527.89 105.058 98.0031 95.7711 90.2167
3530.79 92.851 100.421 79.8921 93.5698
3533.7 103.355 105.486 105.046 102.779
3536.6 120.253 117.438 123.4 116.062
3539.51 128.707 133.295 119.739 128.566
3542.42 150.926 134.927 142.558 126.962
3545.32 125.147 132.186 118.589 129.047
3548.23 120.484 115.845 125.993 119.609
3551.13 101.905 112.565 114.246 119.253
3554.04 115.305 119.241 117.52 123.794
3556.95 140.513 121.656 139.615 124.992
3559.85 109.15 118.076 117.842 119.882
3562.76 104.565 96.4739 102.19 98.8703
3565.67 75.7073 95.2262 76.5792 94.7711
3568.57 105.407 97.0941 105.544 96.6546
3571.48 110.168 101.24 107.841 95.8973
3574.39 88.1466 94.2449 74.3075 89.3299
3577.29 84.4199 89.4378 85.8414 88.5422
3580.2 95.7469 84.119 105.478 91.2815
3583.11 72.1901 90.9869 82.5255 98.5212
3586.01 105.024 103.97 107.56 105.439
3588.92 134.695 131.296 126.23 130.472
3591.83 154.169 147.176 157.626 143.845
3594.73 152.663 150.979 147.678 150.804
3597.64 146.105 149.097 147.107 142.863
3600.55 148.523 151.681 133.805 145.836
3603.45 160.414 144.456 156.596 135.342
3606.36 124.431 149.038 115.625 143.095
3609.27 162.27 139.6 157.063 135.007
3612.18 132.101 145.338 132.334 144.036
3615.08 141.642 139.123 142.71 133.139
3617.99 143.625 145.891 124.373 141.76
3620.9 152.406 164.845 158.196 159.557
3623.8 198.504 179.984 196.102 178.363
3626.71 189.042 179.375 180.792 178.147
3629.62 150.578 178.096 157.546 171.701
3632.53 194.669 179.506 176.766 178.74
3635.43 193.27 191.511 201.91 192.08
3638.34 186.593 189.825 197.565 190.647
3641.25 189.611 187.439 172.464 185.675
3644.15 186.112 188.955 186.997 181.535
3647.06 191.142 194.06 185.143 192.147
3649.97 204.925 208.118 204.301 203.965
3652.88 228.287 213.819 222.45 214.888
3655.78 208.246 225.225 217.912 232.019
3658.69 239.142 225.932 255.694 234.827
3661.6 230.407 236.818 230.874 245.624
3664.51 240.906 234.866 250.303 245.722
3667.41 233.285 238.538 255.99 248.549
3670.32 241.423 238.949 239.355 250.771
3673.23 242.139 240.844 256.967 247.864
3676.14 238.971 240.717 247.27 246.143
3679.04 241.04 227 234.192 228.659
3681.95 200.987 226.113 204.517 224.621
3684.86 236.312 228.004 235.154 228.755
3687.77 246.714 242.609 246.592 237.153
3690.68 244.801 249.142 229.713 245.816
3693.58 255.911 253.528 261.143 250.278
3696.49 259.873 256.025 259.977 254.203
3699.4 252.292 241.742 241.49 238.757
3702.31 213.061 231.161 214.804 232.418
3705.22 228.131 241.57 240.96 241.928
3708.12 283.519 268.857 270.021 262.235
3711.03 294.92 276.852 275.725 266.014
3713.94 252.116 256.075 252.298 246.253
3716.85 221.188 239.1 210.736 239.479
3719.75 243.997 238.227 255.404 236.272
3722.66 249.495 262.844 242.676 269.283
3725.57 295.041 255.272 309.77 255.654
3728.48 221.28 246.601 214.516 248.907
3731.39 223.482 223.632 222.436 223.092
3734.3 226.133 227.739 232.324 229.337
3737.2 233.601 229.811 233.252 236.682
3740.11 229.699 224.821 244.471 224.543
3743.02 211.165 211.123 195.906 211.708
3745.93 192.506 204.731 194.746 201.077
3748.84 210.521 217.952 212.579 224.816
3751.74 250.828 244.919 267.122 255.506
3754.65 273.409 271.781 286.815 278.28
3757.56 291.106 272.63 280.903 277.462
3760.47 253.374 289.753 264.669 291.134
3763.38 324.779 305.081 327.829 310.336
3766.29 337.09 341.724 338.509 347.146
3769.19 363.302 356.839 375.1 361.009
3772.1 370.126 370.975 369.418 378.228
3775.01 379.497 370.669 390.165 382.929
3777.92 362.384 378.516 389.205 404.58
3780.83 393.666 373.894 434.371 401.513
3783.74 365.633 373.292 380.962 395.604
3786.65 360.576 365.267 371.477 382.692
3789.55 369.592 367.72 395.637 383.192
3792.46 372.992 363.164 382.462 379.518
3795.37 346.907 357.103 360.455 367.218
3798.28 351.408 357.631 358.735 362.997
3801.19 374.578 362.3 369.799 367.492
3804.1 360.913 359.374 373.942 370.191
3807.01 342.632 363.691 366.833 375.275
3809.91 387.527 344.146 385.051 358.019
3812.82 302.28 330.387 322.172 341.997
3815.73 301.355 294.956 318.768 313.091
3818.64 281.232 270.652 298.332 293.004
3821.55 229.368 252.574 261.913 272.504
3824.46 247.122 238.435 257.268 259.269
3827.37 238.816 238.309 258.625 255.236
3830.27 228.989 233.256 249.816 251.82
3833.18 231.962 236.822 247.018 257.048
3836.09 249.513 247.576 274.31 256.325
3839 261.252 273.185 247.646 286.82
3841.91 308.789 312.757 338.505 318.905
3844.82 368.229 334.893 370.564 356.875
3847.73 327.662 355.992 361.556 375.566
3850.64 372.086 333.84 394.577 365.593
3853.55 301.772 337.758 340.645 357.964
3856.45 339.415 318.737 338.67 339.046
3859.36 315.023 333.306 337.824 349.404
3862.27 345.479 335.088 371.718 353.681
3865.18 344.763 345.45 351.502 357.925
3868.09 346.109 337.777 350.556 343.023
3871 322.459 338.596 327.012 343.936
3873.91 347.221 335.674 354.241 355.245
3876.82 337.342 342.519 384.483 367.575
3879.73 342.993 340.865 363.999 369.821
3882.63 342.26 356.989 360.98 375.818
3885.54 385.714 395.973 402.475 413.69
3888.45 459.944 434.488 477.614 454.551
3891.36 457.807 465.872 483.565 479.282
3894.27 479.866 466.244 476.665 474.234
3897.18 461.059 459.926 462.472 459.064
3900.09 438.855 453.269 438.056 449.012
3903 459.893 470.016 446.508 464.071
3905.91 511.3 498.252 507.649 498.986
3908.82 523.562 534.683 542.8 551.176
3911.72 569.186 549.469 603.078 568.873
3914.63 555.66 537.086 560.74 560.99
3917.54 486.413 505.67 519.153 528.376
3920.45 474.938 447.916 505.236 479.728
3923.36 382.397 402.225 414.796 425.673
3926.27 349.338 336.171 356.987 352.739
3929.18 276.776 291.185 286.433 302.065
3932.09 247.442 276.321 262.774 293.473
3935 304.744 300.573 331.213 315.177
3937.91 349.532 355.716 351.544 365.874
3940.82 412.871 371.404 414.867 403.813
3943.72 351.808 381.83 445.027 450.915
3946.63 380.811 381.482 492.852 491.728
3949.54 411.826 414.598 537.304 539.421
3952.45 451.158 423.361 588.107 556.261
3955.36 407.098 410.703 543.371 543.686
3958.27 373.851 376.062 499.58 499.035
3961.18 347.236 334.523 454.153 434.309
3964.09 282.48 295.539 349.195 384.294
3967 256.9 275.088 349.534 349.128
3969.91 285.883 307.701 348.653 393.92
3972.82 380.32 359.219 483.571 455.89
3975.73 411.456 404.061 535.447 525.226
3978.63 420.409 448.883 556.661 585.78
3981.54 514.785 486 665.233 638.906
3984.45 522.808 553.507 694.825 727.98
3987.36 622.929 596.903 823.881 785.286
3990.27 644.974 642.768 837.152 836.029
3993.18 660.402 637.6 847.055 827.914
3996.09 607.424 646.169 799.536 847.488
3999 670.682 655.727 895.873 863.987
4001.91 689.076 680.946 896.553 893.22
4004.82 683.081 695.291 887.233 909.068
4007.73 713.717 694.429 943.419 916.081
4010.64 686.488 718.264 917.591 950.819
4013.54 754.586 734.526 991.448 966.624
4016.45 762.503 756.126 990.834 987.114
4019.36 751.29 772.891 979.061 1000.87
4022.27 804.88 765.449 1032.7 991.015
4025.18 740.177 753.696 961.283 981.588
4028.09 716.031 709.952 950.779 940.675
4031 673.647 717.371 909.962 946.014
4033.91 762.434 721.735 977.3 943.408
4036.82 729.125 738.412 942.962 963.22
4039.73 723.676 722.014 969.397 943.129
4042.64 713.24 702.076 917.029 926.485
4045.55 669.311 704.51 893.03 922.912
4048.46 730.978 721.213 958.677 945.178
4051.36 763.35 746.047 983.827 967.584
4054.27 743.813 749.587 960.247 974.434
4057.18 741.599 734.095 979.227 963.166
4060.09 716.872 721.448 950.023 953.149
4063 705.874 722.002 930.198 949.563
4065.91 743.261 734.047 968.468 962.771
4068.82 753.007 744.109 989.648 962.885
4071.73 736.06 745.304 930.539 965.463
4074.64 746.845 748.693 976.202 967.531
4077.55 763.173 787.448 995.85 1020.85
4080.46 852.326 833.319 1090.48 1079.11
4083.37 884.457 879.206 1151 1133.68
4086.27 900.835 906.389 1159.56 1171.73
4089.18 933.876 922.299 1204.62 1184.93
4092.09 932.187 880.72 1190.6 1131.2
4095 776.096 834.908 998.376 1070.01
4097.91 796.441 802.237 1021.04 1030.55
4100.82 834.175 836.693 1072.22 1059.25
4103.73 879.462 867.796 1084.48 1097.09
4106.64 889.75 876.531 1134.56 1113.92
4109.55 860.381 884.632 1122.71 1136.14
4112.46 903.764 911.222 1151.15 1168.53
4115.37 969.521 938.545 1231.73 1205.51
4118.27 942.35 957.837 1233.64 1240.91
4121.18 961.64 965.921 1257.35 1256.77
4124.09 993.772 970.456 1279.34 1257.72
4127 955.954 942.49 1236.47 1223.94
4129.91 877.744 919.249 1156.01 1189.73
4132.82 924.049 927.522 1176.69 1196.39
4135.73 980.773 978.007 1256.46 1251.34
4138.64 1029.2 977.521 1320.87 1263.6
4141.55 922.592 961.984 1213.46 1245.52
4144.46 934.161 962.189 1202.22 1232.97
4147.36 1029.82 991.713 1283.21 1263.37
4150.27 1011.16 1010.02 1304.68 1284.64
4153.18 989.079 992.863 1266.05 1285.09
4156.09 978.345 999.58 1284.56 1296.95
4159 1031.32 1020.86 1340.25 1323.48
4161.91 1052.93 1044.94 1345.65 1346.81
4164.82 1050.59 1043.31 1354.54 1345.35
4167.73 1026.42 1027.59 1335.86 1328.03
4170.64 1005.76 994.097 1293.68 1284.45
4173.55 950.111 994.593 1223.8 1287.34
4176.45 1027.9 1001.65 1344.56 1295.37
4179.36 1026.93 1003.96 1317.75 1300.07
4182.27 957.045 1009.84 1237.9 1298.47
4185.18 1045.56 1003.93 1339.76 1301.62
4188.09 1009.19 1028.47 1327.2 1337.88
4191 1030.67 1003.01 1346.68 1314.06
4193.91 969.185 993.222 1268.31 1296.27
4196.82 979.81 989.005 1273.82 1282.54
4199.72 1018.02 999.173 1305.48 1287.84
4202.63 999.691 1028 1284.22 1317.42
4205.54 1066.29 1062.58 1362.56 1363.06
4208.45 1121.75 1107.64 1442.41 1415.8
4211.36 1134.88 1131.19 1442.44 1446.59
4214.27 1136.94 1109.73 1454.92 1422.14
4217.18 1057.36 1081.12 1369.05 1403.43
4220.09 1049.05 1031.98 1386.33 1346
4222.99 989.522 1013.06 1282.63 1314.57
4225.9 1000.62 1031.96 1274.77 1323.98
4228.81 1105.74 1050.53 1414.54 1364.63
4231.72 1045.22 1073.57 1404.59 1397.77
4234.63 1069.75 1084.72 1374.19 1403.14
4237.54 1139.2 1102.01 1430.64 1412.48
4240.45 1097.09 1111 1432.61 1433.68
4243.35 1096.73 1098.38 1437.78 1441.87
4246.26 1101.34 1095.57 1455.22 1438.1
4249.17 1088.63 1089.14 1421.3 1427.62
4252.08 1077.45 1101.43 1406.35 1436.04
4254.99 1138.2 1113.08 1480.47 1447.17
4257.9 1123.58 1132 1454.69 1462.26
4260.81 1134.24 1134.72 1451.62 1471.59
4263.71 1146.35 1119.27 1508.46 1459.35
4266.62 1077.21 1096.85 1417.95 1433.25
4269.53 1067 1086.68 1373.35 1407.41
4272.44 1115.84 1092.37 1430.92 1402.61
4275.35 1094.28 1129.05 1403.57 1441.77
4278.26 1177.04 1137.26 1490.82 1447.87
4281.16 1140.46 1160.16 1449.22 1471.67
4284.07 1162.97 1131.5 1474.95 1447.89
4286.98 1091.08 1114.28 1419.49 1427.85
4289.89 1088.78 1078.64 1389.11 1386.8
4292.8 1056.05 1044.67 1351.79 1346.48
4295.71 989.193 977.232 1298.52 1273.31
4298.61 886.454 928.559 1169.61 1227.53
4301.52 910.031 883.043 1214.45 1161.1
4304.43 852.644 875.79 1099.25 1152.74
4307.34 864.695 900.001 1144.51 1160.02
4310.25 982.664 1003.05 1236.31 1283.44
4313.15 1161.78 1115.99 1469.51 1415.31
4316.06 1203.54 1190.52 1540.12 1533.86
4318.97 1206.23 1193.21 1591.95 1543.29
4321.88 1169.87 1185.53 1497.79 1526.98
4324.79 1180.48 1212.95 1491.19 1551.77
4327.69 1288.51 1279.51 1666.33 1628.05
4330.6 1369.54 1317.78 1726.64 1685.21
4333.51 1295.29 1306.54 1662.66 1660.17
4336.42 1254.8 1268.11 1591.21 1624.67
4339.33 1254.24 1277.9 1620.16 1631.71
4342.23 1324.66 1327.34 1683.75 1702.78
4345.14 1403.13 1368.46 1804.45 1743.1
4348.05 1377.58 1389.57 1741.1 1774.06
4350.96 1387.98 1404.52 1776.62 1780.42
4353.87 1447.98 1408.69 1823.53 1783.92
4356.77 1390.11 1412.96 1751.61 1790.67
4359.68 1400.77 1431.93 1796.87 1830.01
4362.59 1504.89 1468.33 1941.53 1880.06
4365.5 1499.32 1494.19 1901.78 1904.84
4368.4 1478.36 1493.35 1871.2 1898.2
4371.31 1502.39 1473.61 1921.62 1875.34
4374.22 1440.07 1454.67 1833.21 1849.12
4377.13 1421.55 1406.58 1792.53 1789.92
4380.03 1358.11 1363.65 1744.02 1731.17
4382.94 1311.29 1353.98 1656.95 1726.58
4385.85 1392.53 1345.16 1778.76 1711.87
4388.76 1331.64 1380.62 1699.91 1759.33
4391.66 1417.68 1402.68 1799.31 1787.92
4394.57 1458.72 1437.73 1864.55 1830.29
4397.48 1436.78 1437.39 1827.01 1839.07
4400.39 1416.65 1422.31 1825.65 1821.36
4403.29 1413.51 1444.83 1811.44 1843.7
4406.2 1504.33 1483.62 1894.03 1876.96
4409.11 1533.01 1516.17 1925.41 1902.92
4412.02 1511.16 1540.45 1889.34 1941.88
4414.92 1577.17 1564.67 2010.88 1980.72
4417.83 1605.66 1590.97 2041.95 2036.58
4420.74 1590.07 1611.34 2056.91 2070.86
4423.64 1638.28 1619.36 2113.71 2090.25
4426.55 1629.74 1607.41 2100.13 2073.93
4429.46 1554.21 1605.44 2007.95 2077.28
4432.36 1632.37 1625.32 2123.77 2102.11
4435.27 1689.38 1656.27 2174.61 2137.33
4438.18 1647.07 1660.51 2113.61 2140.21
4441.09 1645.09 1651 2132.41 2137.98
4443.99 1660.85 1678.44 2167.92 2174.79
4446.9 1729.39 1703.59 2224.05 2203.66
4449.81 1720.52 1697.93 2219.02 2180.38
4452.71 1643.88 1650.17 2098.07 2120.23
4455.62 1586.11 1621.33 2043.59 2069.49
4458.53 1634 1622.73 2066.82 2091.02
4461.43 1648.08 1646.9 2162.65 2132.04
4464.34 1658.62 1675.68 2166.66 2170.47
4467.25 1720.33 1713.74 2182.12 2202.45
4470.15 1762.27 1749.11 2258.57 2239.09
4473.06 1764.75 1801.34 2276.59 2313.46
4475.97 1877.02 1800.04 2405.21 2321.24
4478.87 1758.34 1813.12 2281.91 2338.25
4481.78 1804 1798.73 2327.62 2323.45
4484.69 1833.84 1815.65 2360.82 2336.58
4487.59 1809.11 1824.61 2321.29 2341.26
4490.5 1830.89 1850.67 2341.67 2374.62
4493.41 1912 1882.6 2460.9 2404.38
4496.31 1904.9 1908.72 2410.57 2424.39
4499.22 1909.26 1948.12 2401.7 2465.81
4502.12 2030.2 1997.06 2585.14 2545
4505.03 2051.72 2055.18 2648.16 2641.21
4507.94 2083.61 2059.83 2690.34 2644.05
4510.84 2044.17 2037.18 2593.64 2610.81
4513.75 1983.75 1987.65 2548.46 2547.92
4516.65 1935.05 1985.71 2501.67 2555.74
4519.56 2038.35 1974.46 2617.1 2532.91
4522.47 1949.97 1930.81 2479.94 2468.26
4525.37 1804.1 1850.25 2307.72 2359.51
4528.28 1796.69 1824.17 2290.88 2324.62
4531.18 1871.71 1862.72 2375.28 2373.23
4534.09 1919.77 1912.42 2453.53 2427.05
4537 1945.78 1926.6 2452.33 2439.65
4539.9 1914.26 1943.83 2413.08 2454.42
4542.81 1971.45 1914.11 2497.87 2454.38
4545.71 1856.61 1929.18 2452.19 2490.08
4548.62 1959.48 1937.23 2520.18 2502.29
4551.52 1995.59 1993.86 2534.48 2542.98
4554.43 2026.51 2029.97 2574.28 2570.45
4557.34 2067.79 2056.43 2602.59 2622.31
4560.24 2074.99 2097.13 2690.07 2687.37
4563.15 2148.61 2119.01 2769.45 2728.5
4566.05 2133.43 2128.68 2725.98 2730.17
4568.96 2104.01 2116.91 2695.07 2713.54
4571.86 2113.29 2163 2719.56 2769.27
4574.77 2271.71 2178.29 2893.18 2783.79
4577.67 2149.88 2147.3 2738.64 2731.59
4580.58 2020.31 2047.33 2562.94 2620.9
4583.48 1971.8 2057.79 2561.11 2631.3
4586.39 2181.27 2098.56 2769.84 2688.78
4589.29 2142.62 2125.58 2735.38 2705.4
4592.2 2052.86 2111.74 2610.98 2704.31
4595.1 2139.74 2104.51 2766.57 2696.04
4598.01 2120.93 2154.75 2710.56 2770.16
4600.91 2203.6 2171.63 2833.34 2768.59
4603.82 2190.38 2225.92 2761.85 2829.61
4606.72 2283.78 2239.34 2893.63 2851.84
4609.63 2243.85 2280.07 2900.04 2917.09
4612.53 2312.57 2279.27 2957.6 2919.59
4615.44 2281.38 2262.5 2901.14 2899.39
4618.34 2193.55 2243.26 2839.44 2886.22
4621.25 2254.85 2266.28 2918.08 2912.52
4624.15 2350.44 2331.53 2980.05 2975.98
4627.06 2389.31 2342.56 3029.81 2978.87
4629.96 2287.94 2307.97 2926.76 2938
4632.87 2246.65 2279.22 2857.44 2905.62
4635.77 2303.09 2276.09 2932.66 2900.8
4638.67 2278.54 2270.87 2912.32 2907.22
4641.58 2230.98 2256.84 2876.69 2896.27
4644.48 2261 2216.13 2899.8 2854.19
4647.39 2156.41 2220.63 2786.08 2857.49
4650.29 2244.48 2223.12 2886.6 2856.46
4653.2 2268.47 2286.09 2896.7 2921.03
4656.1 2345.32 2303.95 2979.78 2941.06
4659 2298.07 2310.42 2946.71 2952.2
4661.91 2287.86 2248.86 2930.12 2895.71
4664.81 2160.65 2240.4 2810.31 2892.48
4667.72 2272.67 2226.79 2937 2864.72
4670.62 2247.04 2262.24 2846.85 2884.39
4673.52 2267.01 2277.74 2869.31 2894.01
4676.43 2319.18 2294.19 2965.87 2924.08
4679.33 2296.39 2323.75 2937.05 2971.51
4682.23 2355.69 2279.97 3011.62 2949.78
4685.14 2187.83 2261.43 2900.67 2933.75
4688.04 2240.78 2277.02 2888.97 2944.41
4690.94 2402.47 2334.82 3043.6 2975.06
4693.85 2361.21 2385.56 2992.61 3030.59
4696.75 2393.02 2327.48 3055.57 2977.58
4699.66 2228.22 2281.83 2884.55 2961.91
4702.56 2224.25 2238.24 2945.62 2908.13
4705.46 2262.25 2267.58 2894.22 2930.44
4708.36 2316.23 2328.18 2951.49 2980.57
4711.27 2406.06 2400.4 3096.01 3077.36
4714.17 2478.92 2441.35 3184.58 3134.17
4717.07 2439.09 2464.62 3121.91 3166.53
4719.98 2475.86 2482.97 3193.09 3185.84
4722.88 2533.98 2493.39 3242.51 3202.83
4725.78 2470.34 2444.31 3172.88 3132.62
4728.69 2328.63 2387.03 2982.46 3063.32
4731.59 2362.12 2338.53 3034.62 3007.83
4734.49 2324.84 2372.61 3006.39 3055.55
4737.39 2430.86 2410.34 3125.63 3107.16
4740.3 2475.32 2452.38 3189.46 3162.28
4743.2 2450.95 2514.79 3171.75 3237.52
4746.1 2618.08 2525.67 3351.34 3264.76
4749 2507.96 2519.63 3271.19 3262.88
4751.91 2432.84 2466.97 3166.1 3219.89
4754.81 2460.09 2462.84 3222.37 3190.8
4757.71 2495.58 2467.57 3183.93 3194.48
4760.61 2447.02 2456.11 3177.15 3175.28
4763.52 2425.72 2437.01 3164.77 3157.98
4766.42 2438.28 2470.89 3132.01 3188.11
4769.32 2548.67 2520.59 3267.54 3217.84
4772.22 2574.82 2595.22 3253.96 3298.19
4775.13 2662.18 2620.24 3373.06 3316.83
4778.03 2623.71 2594.12 3323.46 3310.92
4780.93 2496.48 2583.11 3236.23 3308.98
4783.83 2629.15 2579.66 3367.24 3307.45
4786.73 2613.35 2607.43 3318.88 3323.22
4789.63 2579.81 2601.52 3283.53 3296.75
4792.54 2611.4 2603.88 3287.83 3301.7
4795.44 2620.43 2617.41 3333.76 3319.74
4798.34 2620.39 2610.46 3337.65 3330.66
4801.24 2590.56 2603.69 3320.57 3312.75
4804.14 2600.11 2623.76 3280.02 3344.24
4807.04 2680.61 2618.36 3432.14 3356.33
4809.95 2574.35 2639.25 3356.82 3400.49
4812.85 2662.78 2633.42 3412.52 3387
4815.75 2663.15 2649.87 3391.67 3411.98
4818.65 2623.68 2663.77 3431.75 3421.57
4821.55 2704.48 2651.27 3441.3 3429.45
4824.45 2625.64 2627.42 3415.3 3387.32
4827.35 2552.15 2608 3305.37 3366.3
4830.25 2646.2 2618.39 3378.24 3360.16
4833.15 2656.83 2660.33 3396.86 3398.14
4836.06 2677.96 2655.42 3419.32 3389.04
4838.96 2631.47 2622.98 3350.93 3364.62
4841.86 2559.53 2595.65 3323.62 3332.07
4844.76 2595.95 2584.87 3321.66 3333.06
4847.66 2599.14 2589.66 3353.91 3322.08
4850.56 2573.91 2524.89 3290.67 3257
4853.46 2401.63 2435.03 3126.41 3144.6
4856.36 2329.53 2303.14 3016.71 2978.69
4859.26 2178.24 2280.47 2792.96 2916.08
4862.16 2333.63 2296.14 2938.56 2916.29
4865.06 2376.54 2322.18 3017.35 2940.03
4867.96 2256.37 2365.43 2864.19 2996.34
4870.86 2463.37 2375.27 3107.49 3034.44
4873.76 2406.07 2450.7 3131.65 3134.77
4876.66 2482.64 2466.68 3165.17 3161.98
4879.56 2511.32 2508.44 3189.13 3185.48
4882.46 2531.36 2518.64 3202.13 3192.62
4885.36 2513.22 2491 3186.59 3185.35
4888.26 2428.42 2484.94 3167.33 3183.89
4891.16 2513.17 2530.84 3197.75 3269.12
4894.06 2650.92 2624.62 3442.29 3361.65
4896.96 2709.76 2733.38 3444.91 3489.46
4899.86 2839.45 2752.32 3581.17 3486.54
4902.76 2707.74 2734.8 3433.52 3465.97
4905.66 2657.2 2670.3 3383.2 3409.3
4908.56 2645.97 2668.36 3411.17 3409.33
4911.46 2701.91 2679.64 3433.61 3433.78
4914.36 2691.04 2635.98 3456.56 3386.23
4917.26 2514.98 2559.67 3268.53 3304.69
4920.15 2472.98 2534.3 3188.97 3265.38
4923.05 2614.95 2595.29 3338.65 3322.08
4925.95 2697.95 2710.83 3438.62 3457.63
4928.85 2819.58 2784.85 3595.63 3536.25
4931.75 2837.03 2788.19 3574.51 3552.34
4934.65 2707.95 2730.73 3486.88 3484.73
4937.55 2647.21 2704.32 3392.79 3490.13
4940.45 2757.81 2763.47 3590.74 3560.09
4943.35 2885.4 2842.65 3696.74 3674.17
4946.24 2884.74 2878.24 3735.03 3691.72
4949.14 2864.57 2832.61 3643.38 3637.22
4952.04 2748.51 2774.56 3533.24 3554.7
4954.94 2710.59 2740.63 3487.48 3543.29
4957.84 2762.78 2754.85 3609.15 3561.73
4960.74 2791.17 2816.46 3588.56 3632.05
4963.63 2895.44 2851.46 3698.44 3661
4966.53 2867.77 2886.21 3695.98 3705.37
4969.43 2895.41 2854.87 3721.68 3686.67
4972.33 2801.44 2908.19 3642.35 3744.13
4975.23 3027.72 2900.8 3868.35 3727.87
4978.12 2873.24 2865.66 3672.9 3675.59
4981.02 2696.02 2757.61 3485.51 3548.57
4983.92 2703.59 2742.13 3487.31 3537.05
4986.82 2826.77 2801.07 3638.33 3607.28
4989.71 2872.85 2888.6 3696.2 3713.39
4992.61 2966.18 2899.76 3805.63 3743.32
4995.51 2860.25 2918.61 3728.11 3763.22
4998.41 2929.41 2884.83 3755.92 3722.53
5001.3 2864.83 2830.61 3683.55 3635.41
5004.2 2697.59 2793.27 3466.76 3587.71
5007.1 2817.37 2758.62 3612.83 3547.17
5009.99 2760.9 2766.48 3561.91 3557.95
5012.89 2721.17 2755.56 3499.09 3553.46
5015.79 2784.61 2770.74 3599.39 3564.6
5018.69 2806.42 2809.8 3595.31 3629.64
5021.58 2838.37 2796.98 3694.22 3627.78
5024.48 2746.14 2829.52 3593.8 3686.72
5027.38 2904.06 2894.24 3772.14 3747.84
5030.27 3032.53 2943.86 3877.59 3790.27
5033.17 2894.99 2937.96 3721.09 3764.1
5036.07 2886.38 2862.78 3693.62 3667.28
5038.96 2806.96 2853.96 3587.14 3661.75
5041.86 2868.53 2831.39 3704.49 3662.27
5044.75 2818.68 2865.46 3695.18 3711.84
5047.65 2909.18 2915.76 3735.86 3768.61
5050.55 3019.42 2994.1 3874.8 3841.35
5053.44 3053.69 3038.7 3913.4 3899.28
5056.34 3042.97 3093.18 3909.64 3968.88
5059.23 3182.89 3100.6 4083.61 4009.22
5062.13 3075.92 3072.67 4034.4 3986.31
5065.03 2959.2 3072.73 3840.93 3984.12
5067.92 3183.08 3081.31 4077.02 3962.75
5070.82 3101.66 3107.65 3970.31 3999.35
5073.71 3038.2 3038.17 3950.72 3918.41
5076.61 2974.64 3018.77 3834.2 3895.53
5079.5 3043.47 2979.02 3901.66 3827.39
5082.4 2918.94 2982.06 3746.32 3827.93
5085.29 2983.76 3000.72 3835.81 3853.56
5088.19 3099.47 3054.58 3978.54 3931.15
5091.08 3080.51 3080.11 3979.11 3974.38
5093.98 3060.36 3049.94 3965.48 3939.97
5096.87 3008.95 3056.63 3875.33 3950.58
5099.77 3100.58 3062.9 4010.94 3947.58
5102.66 3079.17 3119.11 3956.48 4018.48
5105.56 3177.59 3120.39 4088.01 4016.34
5108.45 3104.42 3133.29 4004.52 4032.28
5111.35 3117.87 3160.39 4004.31 4063.56
5114.24 3258.88 3131.48 4181.83 4042.44
5117.14 3017.7 3145.15 3941.17 4066.18
5120.03 3158.88 3087.68 4075.53 3992.52
5122.92 3086.47 3078.96 3960.86 3969.74
5125.82 2991.52 3043.91 3872.84 3931.65
5128.71 3053.73 3035.45 3961.26 3910.52
5131.61 3061.09 3064.61 3897.45 3970.99
5134.5 3079.01 3028.15 4054.26 3947.15
5137.39 2944.36 3001.29 3889.74 3932.35
5140.29 2980.49 2943.93 3853.04 3836.04
5143.18 2906.93 3007.13 3765.33 3898.38
5146.07 3133.97 3053.63 4076.76 3957.43
5148.97 3120.01 3124.13 4030.19 4043.14
5151.86 3118.41 3102.87 4022.46 4038.39
5154.75 3070.18 3133.15 4062.53 4061.38
5157.65 3210.85 3142.28 4099.14 4068.84
5160.54 3145.8 3083.37 4044.85 3953.43
5163.43 2893.46 2884.81 3716.31 3723.04
5166.33 2615.16 2673.91 3407.95 3492.35
5169.22 2513.11 2567.3 3352.79 3384.48
5172.11 2573.62 2637.21 3392.69 3474.76
5175.01 2824.9 2761.6 3678.8 3589.91
5177.9 2886.29 2783.98 3698.23 3603.17
5180.79 2640.76 2736.24 3432.47 3535.17
5183.68 2681.68 2701.74 3474.8 3529.53
5186.58 2782.78 2769.61 3681.3 3628.29
5189.47 2844.36 2870.8 3728.76 3757.35
5192.36 2985.26 2942.9 3861.97 3861.05
5195.25 2999.09 3013.01 3992.42 3933.64
5198.15 3054.67 3079.11 3946.52 4019.77
5201.04 3183.59 3114.37 4120.37 4008.84
5203.93 3104.84 3069.21 3959.63 3984.4
5206.82 2919.21 3067 3873.2 3980.31
5209.71 3176.96 3072.37 4108.08 4021.09
5212.61 3120.94 3120.96 4081.99 4055.56
5215.5 3064.99 3111.59 3976.62 4076.98
5218.39 3148.86 3147.9 4172.33 4117.08
5221.28 3229.85 3138.58 4202.29 4128.08
5224.17 3037.02 3091.4 4009.61 4075.57
5227.06 3007.32 3036.57 4014.82 4006.39
5229.95 3065.37 3057.32 3994.74 4040.76
5232.85 3099.28 3134.6 4112.71 4120.61
5235.74 3239.14 3193.82 4254.39 4202.45
5238.63 3243.04 3276.11 4240.23 4287.17
5241.52 3346.15 3278.48 4366.88 4290.2
5244.41 3246.24 3302.07 4263.49 4324.16
5247.3 3313.81 3286.47 4342.1 4316.67
5250.19 3299.35 3297.45 4344.41 4325.89
5253.08 3279.2 3323.83 4291.16 4342.36
5255.97 3392.93 3338.78 4391.51 4362.47
5258.86 3344.21 3303.23 4404.74 4314.55
5261.75 3172.55 3157.57 4147.41 4138.01
5264.64 2955.95 2983.46 3861.88 3903.87
5267.53 2821.88 2887.94 3702.33 3801.81
5270.42 2885.98 2903.02 3841.24 3840.85
5273.31 3001.2 2978.91 3978.97 3958.17
5276.2 3049.56 3099.09 4054.29 4090.05
5279.09 3246.52 3179.47 4236.9 4154.76
5281.98 3242.34 3270 4173.08 4239.6
5284.87 3321.14 3317.8 4308.83 4290.69
5287.76 3389.92 3386.28 4390.17 4394.87
5290.65 3447.78 3426.74 4485.61 4449.82
5293.54 3442.53 3413.08 4473.68 4441.9
5296.43 3348.94 3378.5 4366.4 4419.47
5299.32 3344.04 3391.41 4418.35 4441.24
5302.21 3481.25 3430.26 4538.96 4495.11
5305.1 3465.48 3490.5 4528.02 4571.38
5307.99 3524.77 3538.06 4647.15 4644.77
5310.87 3623.93 3556.85 4759.13 4667.72
5313.76 3521.84 3575.69 4596.88 4668.78
5316.65 3581.3 3466.85 4650.33 4545.11
5319.54 3297.41 3424.88 4388.14 4480.58
5322.43 3395.93 3322.12 4403.26 4364.23
5325.32 3273.01 3281.37 4301.3 4284.84
5328.21 3175.17 3286.58 4149.95 4284.72
5331.09 3411.57 3322.86 4402.9 4345.59
5333.98 3381.83 3393.7 4483.92 4409.16
5336.87 3387.7 3401.86 4340.67 4417.49
5339.76 3436.04 3413.94 4427.89 4394.59
5342.65 3418.07 3441.97 4415.21 4459.58
5345.53 3471.81 3474.14 4535.64 4519.4
5348.42 3532.52 3507.87 4607.34 4587.27
5351.31 3519.28 3558.52 4618.81 4660.46
5354.2 3623.76 3570.55 4755.21 4690.66
5357.08 3568.61 3590.23 4697.96 4689.15
5359.97 3578.32 3533.98 4614.27 4627.04
5362.86 3455 3484 4568.89 4551.94
5365.75 3418.67 3445.55 4472.66 4515.9
5368.63 3462.99 3431.85 4506.16 4511.34
5371.52 3413.88 3459.94 4555.19 4544.59
5374.41 3502.95 3469.78 4572.42 4571.28
5377.29 3492.52 3527.83 4586.24 4600.07
5380.18 3588.03 3535.37 4641.55 4584.35
5383.07 3525.55 3596.12 4525.24 4655.41
5385.95 3674.77 3574.05 4799.44 4635.79
5388.84 3521.81 3559.98 4582.67 4619.25
5391.73 3483.36 3480.24 4475.65 4516.97
5394.61 3435.54 3431.36 4492.59 4441.45
5397.5 3375.17 3403.88 4356.12 4412.02
5400.38 3400.93 3357.47 4387.37 4328.55
5403.27 3296.3 3330.11 4242.16 4313.01
5406.16 3293.1 3326.55 4309.52 4313.43
5409.04 3390.23 3362.98 4388.62 4369.62
5411.93 3405.61 3437.53 4410.71 4450.36
5414.81 3516.75 3472.07 4551.74 4502.62
5417.7 3493.85 3506.5 4545.41 4534.72
5420.58 3508.89 3483.12 4507.01 4528.27
5423.47 3446.63 3511.32 4532.39 4551.2
5426.35 3578.43 3472.58 4614.2 4510.02
5429.24 3392.68 3481.25 4383.47 4498.92
5432.12 3472.64 3471.32 4499.1 4505.62
5435.01 3548.66 3567.19 4634.3 4647.07
5437.89 3680.27 3616.35 4807.81 4707.3
5440.78 3620.11 3610.08 4679.78 4685.45
5443.66 3529.85 3542.18 4568.77 4604.35
5446.55 3476.57 3241.34 4564.5 4571.6
5449.43 2717.6 2983.86 4581.52 4613.6
5452.32 2757.41 2747.47 4694.78 4653.42
5455.2 2767.39 2789.79 4683.97 4750
5458.08 2844.57 2831.98 4871.26 4816.67
5460.97 2883.99 2888.11 4894.79 4891.61
5463.85 2935.78 2920.48 4908.77 4916.93
5466.74 2941.67 2952.34 4947.21 4922.43
5469.62 2979.57 2918.38 4911.31 4868.09
5472.5 2833.91 2855.69 4745.74 4765.41
5475.39 2753.59 2821.84 4639.18 4715.82
5478.27 2878.02 2816.55 4762.54 4693.59
5481.15 2818.02 2863.37 4679.06 4763.79
5484.04 2894.06 2882.98 4849.77 4770.25
5486.92 2936.84 2942.28 4781.92 4857.03
5489.8 2995.94 2939.46 4939.39 4862.22
5492.69 2885.6 2934.36 4865.36 4898.01
5495.57 2921.53 2883.15 4889.27 4836.93
5498.45 2842.31 2902.69 4756.18 4838.96
5501.33 2944.22 2932.52 4871.44 4865.51
5504.22 3011.03 2976.43 4968.9 4900.51
5507.1 2974.03 2926.13 4861.18 4834.23
5509.98 2793.32 2909.66 4672.61 4782.36
5512.86 2961.62 2914.64 4813.29 4773.11
5515.75 2988.97 2964.34 4833.44 4840.25
5518.63 2942.43 2981.66 4874.03 4877.96
5521.51 3013.59 2958.2 4926.4 4874.39
5524.39 2918.57 2971.19 4822.76 4870.27
5527.27 2981.41 2945.16 4861.64 4816.38
5530.16 2935.51 2976.66 4764.74 4855.77
5533.04 3013.07 3006.52 4940.92 4892.77
5535.92 3070.97 3017.54 4972.65 4939.51
5538.8 2968.57 3045.42 4904.97 4965.11
5541.68 3096.71 3032.83 5017.72 4954.25
5544.56 3033.21 3061.68 4940.05 4971.09
5547.44 3055.13 3052.57 4955.49 4954.48
5550.32 3069.38 3057.63 4967.89 4970.8
5553.2 3048.4 3074.06 4989.03 4984.37
5556.09 3104.41 3110.94 4996.2 5022.34
5558.97 3179.99 3108.66 5081.78 4990.45
5561.85 3041.57 3081.38 4893.38 4953.71
5564.73 3022.59 3044.47 4885.96 4893.34
5567.61 3069.25 3024.45 4900.69 4868
5570.49 2981.52 3041.24 4817.35 4898.25
5573.37 3072.96 3038.67 4976.7 4874.94
5576.25 3061.55 3035.62 4830.77 4886.06
5579.13 2972.34 3035.86 4850.71 4883.67
5582.01 3073.69 2954.85 4969.53 4795.51
5584.89 2818.51 2963.54 4566.3 4784.87
5587.77 2998.43 2957.93 4818.78 4765.36
5590.65 3056.84 3016.62 4911 4825.72
5593.52 2994.58 3047.35 4747.38 4841.19
5596.4 3090.63 2981.66 4865.18 4783.03
5599.28 2859.78 3051.74 4736.52 4902.11
5602.16 3204.81 3079.43 5104.64 4987.93
5605.04 3173.72 3174.18 5122.62 5087.18
5607.92 3144 3161.95 5034.27 5062.34
5610.8 3168.13 3121.42 5030.12 4982.97
5613.68 3052.13 3051.58 4884.53 4871.26
5616.56 2934.49 3013.22 4699.14 4836.8
5619.43 3053.04 3042.56 4926.74 4861.07
5622.31 3140.17 3126.48 4957.33 4964.73
5625.19 3186.24 3103.84 5010.12 4932.34
5628.07 2985.11 3099.2 4829.56 4939.36
5630.95 3126.26 3100.22 4978.41 4938.34
5633.82 3189.3 3161.33 5007.05 5003.35
5636.7 3168.42 3141.71 5024.59 4976.44
5639.58 3067.42 3120.84 4897.68 4965.82
5642.46 3126.67 3111.68 4975.2 4968.43
5645.34 3140.97 3140.87 5032.4 5018.57
5648.21 3154.97 3148.95 5048.1 5026.47
5651.09 3150.9 3153.02 4998.91 5019.29
5653.97 3153.21 3143.35 5010.86 4999.36
5656.84 3125.96 3131.69 4988.3 4983
5659.72 3115.9 3130.56 4949.83 4957.16
5662.6 3149.81 3135.51 4933.36 4967.86
5665.47 3140.81 3186.72 5020.38 5016.37
5668.35 3269.55 3183.29 5095.37 5053.24
5671.23 3139.5 3209.08 5043.96 5051.8
5674.1 3218.18 3240.01 5016.08 5105.03
5676.98 3362.34 3266.55 5255.04 5127.07
5679.86 3219.13 3271 5110.1 5135.04
5682.73 3231.54 3188.08 5039.99 5023.44
5685.61 3113.56 3183.71 4920.22 4996.73
5688.48 3206.02 3136.91 5029.96 4981.32
5691.36 3091.14 3161.53 4993.78 5045.29
5694.23 3187.42 3157.93 5112.12 5053.61
5697.11 3195.24 3198.39 5054.92 5063.69
5699.99 3212.51 3149.48 5024.04 4996.88
5702.86 3040.68 3137.56 4911.68 4965.17
5705.74 3159.49 3105.18 4959.78 4903.22
5708.61 3115.35 3099.9 4838.21 4871.98
5711.49 3024.86 3126.7 4817.94 4908.83
5714.36 3239.88 3149.33 5070.33 4972.65
5717.24 3183.25 3212.05 5029.68 5052.32
5720.11 3213.03 3245.67 5056.94 5073.3
5722.98 3340.72 3296.66 5133.28 5129.41
5725.86 3336.22 3347.26 5198 5201.66
5728.73 3364.84 3322.66 5273.69 5196.42
5731.61 3266.92 3286.78 5117.57 5176.43
5734.48 3228.57 3287.41 5138.04 5164.78
5737.36 3366.73 3288.86 5238.73 5162.42
5740.23 3271.28 3319.79 5110.51 5171.71
5743.1 3321.35 3284.08 5165.89 5102.2
5745.98 3259.6 3280.08 5030.2 5080.38
5748.85 3259.28 3270.08 5045.04 5038.95
5751.72 3291.36 3271.29 5041.63 5048.15
5754.6 3263.22 3263.69 5057.8 5036.64
5757.47 3236.49 3301.02 5010.48 5091.52
5760.34 3403.36 3295.9 5206.27 5111.37
5763.21 3247.86 3302.5 5117.36 5140.83
5766.09 3256.28 3307.28 5098.87 5156.33
5768.96 3417.71 3357.45 5252.76 5203.7
5771.83 3398.35 3367.22 5259.47 5199.67
5774.71 3285.59 3294.4 5086.77 5098.76
5777.58 3199.26 3222.17 4950.04 4973.91
5780.45 3181.66 3166.64 4884.93 4896.64
5783.32 3118.99 3157.53 4854.94 4881.97
5786.19 3171.93 3164.13 4906.03 4927.03
5789.07 3201.48 3207.66 5020.13 4991.33
5791.94 3249.57 3257.37 5047.83 5044.85
5794.81 3321.06 3283.04 5066.59 5055.39
5797.68 3278.48 3332.42 5051.76 5107.6
5800.55 3397.72 3340.11 5204.46 5126.82
5803.42 3344.14 3389.51 5124.24 5185.24
5806.29 3426.67 3405.95 5227.02 5185.61
5809.16 3447.05 3427.2 5205.55 5234.44
5812.04 3407.88 3411.13 5270.74 5211.05
5814.91 3378.45 3402.97 5156.86 5232.81
5817.78 3422.59 3430.78 5270.84 5249.27
5820.65 3491.32 3492.95 5320.13 5341.3
5823.52 3564.96 3506.13 5432.94 5358.97
5826.39 3462.11 3527.96 5323.86 5375.61
5829.26 3556.82 3505.43 5370.04 5339.78
5832.13 3497.35 3478.87 5325.43 5290.84
5835 3382.44 3485.03 5177.04 5296.63
5837.87 3575.3 3496.27 5387.42 5317.24
5840.74 3531.05 3514.01 5387.27 5353.67
5843.61 3435.69 3472.07 5286.32 5309.13
5846.48 3449.46 3428.94 5253.81 5282.01
5849.35 3401.67 3392.63 5305.9 5208.31
5852.22 3326.76 3370.7 5065.2 5184.75
5855.08 3383.69 3352.45 5183.13 5110.03
5857.95 3346.9 3312.32 5081.75 5086.88
5860.82 3206.37 3350.92 4995.76 5106.5
5863.69 3499.49 3344.73 5241.98 5125.46
5866.56 3328.32 3480.48 5138.64 5276.41
5869.43 3613.63 3512.99 5448.61 5329.88
5872.3 3597.03 3550.95 5402.37 5340.6
5875.17 3442.19 3496.85 5170.8 5255.14
5878.03 3451.32 3455.62 5192.23 5200.11
5880.9 3473.37 3457.03 5237.28 5223.09
5883.77 3446.41 3360.14 5239.74 5092.77
5886.64 3160.63 3142.4 4801.29 4764.85
5889.5 2820.18 2883.45 4253.51 4450.77
5892.37 2669.56 2814.7 4297.5 4334.76
5895.24 2954.36 2865.25 4453.28 4486.63
5898.11 2971.82 3083.29 4709.1 4702.21
5900.97 3323.7 3239.13 4944.25 4914.72
5903.84 3421.85 3374.12 5090.82 5042.46
5906.71 3376.81 3378.22 5092.31 5112.86
5909.57 3335.98 3375.69 5155.45 5130.3
5912.44 3414.26 3411.3 5143.16 5199.96
5915.31 3483.65 3453.02 5301.29 5202.46
5918.17 3461.15 3455.85 5162.93 5209.55
5921.04 3422.73 3442.61 5164.44 5170.35
5923.91 3443.94 3471.17 5183.67 5245.69
5926.77 3546.83 3491.93 5388.98 5270.92
5929.64 3485.02 3455.44 5240.12 5254.39
5932.5 3334.47 3442.48 5134.07 5204.91
5935.37 3507.94 3451.73 5240.55 5226.65
5938.24 3512.78 3509.22 5305.32 5261.75
5941.1 3506.93 3479.48 5239.37 5267.04
5943.97 3418.71 3482.38 5256.43 5262.52
5946.83 3521.51 3444.11 5291.77 5193.77
5949.7 3392.12 3442.47 5033.12 5141.84
5952.56 3413.8 3439.63 5100.62 5132.83
5955.43 3512.98 3494.23 5264.75 5219.13
5958.29 3555.9 3491.7 5292.03 5257.06
5961.16 3406.22 3501.42 5214.4 5273.99
5964.02 3542.15 3518.52 5315.54 5296.83
5966.88 3607.18 3569.23 5360.54 5337.75
5969.75 3558.36 3533.31 5337.16 5257.71
5972.61 3434.38 3488.22 5075.44 5227.87
5975.48 3471.91 3479.89 5271.01 5168.68
5978.34 3533.37 3476.04 5159.59 5175.21
5981.2 3422.83 3450.34 5095.03 5107.68
5984.07 3394.82 3415.01 5068.41 5068.77
5986.93 3427.38 3422.89 5042.86 5090.76
5989.79 3446.48 3492.17 5161.02 5192.4
5992.66 3602.64 3510.95 5373.31 5228.81
5995.52 3483.73 3544.4 5152.09 5265.85
5998.38 3546.83 3512.94 5272.14 5207.45
6001.25 3508.26 3540.95 5198.12 5271.78
6004.11 3567.76 3530.89 5345.09 5245.2
6006.97 3516.66 3502.65 5192.39 5213.66
6009.83 3423.53 3476.84 5103.51 5154.2
6012.7 3490.32 3449.74 5166.7 5112.08
6015.56 3435.36 3454.79 5066.02 5109.76
6018.42 3438.68 3427.71 5096.56 5084.14
6021.28 3409.08 3398.25 5089.85 5074.77
6024.14 3346.98 3440.61 5037.88 5127.15
6027.01 3565.77 3470.22 5253.73 5164.44
6029.87 3497.9 3506.79 5201.7 5220.34
6032.73 3456.71 3453.73 5205.58 5178.29
6035.59 3406.57 3472.58 5127.59 5178.34
6038.45 3554.45 3503.55 5201.86 5228.43
6041.31 3549.63 3588.03 5355.83 5292.25
6044.17 3660 3621.09 5319.07 5329.16
6047.03 3653.65 3623.63 5312.59 5298.57
6049.89 3557.26 3623.23 5264.03 5307.11
6052.75 3658.79 3594.65 5344.7 5294.47
6055.61 3567.89 3574.48 5274.66 5241.14
6058.47 3496.75 3550.78 5104.06 5205.53
6061.33 3587.7 3571.41 5237.88 5214.27
6064.19 3629.77 3567.94 5300.88 5260.06
6067.05 3486.36 3576.95 5241.42 5276.1
6069.91 3614.73 3569 5286.02 5277.29
6072.77 3605.92 3602.16 5304.44 5287.82
6075.63 3585.84 3601.63 5273.01 5294.58
6078.49 3613.13 3573.26 5306.28 5241.75
6081.35 3520.8 3548.37 5145.95 5197.71
6084.21 3511.19 3541.16 5140.89 5167.96
6087.07 3591.5 3523.15 5217.03 5147.64
6089.93 3466.75 3532.3 5085 5156.51
6092.79 3538.64 3526.63 5167.5 5146.55
6095.64 3574.51 3556 5187.16 5189.46
6098.5 3554.85 3561.04 5213.72 5203.71
6101.36 3553.76 3527.97 5210.24 5174.58
6104.22 3475.29 3509.36 5099.79 5141.33
6107.08 3499.04 3530.03 5113.96 5153.88
6109.94 3615.77 3564.16 5247.89 5186.98
6112.79 3577.68 3577.87 5199.1 5195.6
6115.65 3540.17 3526.67 5139.82 5140.46
6118.51 3462.14 3492.02 5082.47 5099.65
6121.36 3473.74 3443.1 5076.65 5065.25
6124.22 3393.4 3435.39 5036.62 5059.34
6127.08 3439.03 3473.78 5064.76 5123.03
6129.94 3588.91 3517 5267.71 5158.6
6132.79 3523.06 3529.77 5143.35 5156.15
6135.65 3477.33 3493.24 5057.41 5077.86
6138.51 3479.33 3506.27 5032.83 5082.54
6141.36 3562.16 3545.83 5157.38 5130.7
6144.22 3595.99 3572.02 5201.89 5161.45
6147.07 3557.9 3569.5 5125.08 5158.31
6149.93 3554.61 3518.78 5147.95 5092.62
6152.79 3443.84 3496.62 5004.83 5059.94
6155.64 3491.41 3413.35 5027.03 4954.23
6158.5 3304.79 3349.66 4830.82 4869.23
6161.35 3252.79 3327.22 4749.83 4833.55
6164.21 3424.08 3329.11 4919.99 4814.7
6167.06 3310.47 3383.08 4774.28 4868.02
6169.92 3414.68 3379.17 4909.8 4872.97
6172.77 3412.35 3431.8 4934.83 4951.61
6175.63 3468.38 3500.99 5010.21 5040.75
6178.48 3622.25 3561.47 5177.21 5132.87
6181.34 3593.78 3586.71 5211.2 5161.78
6184.19 3544.11 3562.05 5096.93 5149.84
6187.04 3548.26 3530.18 5141.37 5089.41
6189.9 3498.17 3504.76 5029.93 5073.31
6192.75 3467.83 3495.81 5048.61 5042.93
6195.61 3521.43 3520.48 5050.24 5090.06
6198.46 3572.18 3561.77 5171.34 5128.08
6201.31 3591.7 3580.67 5162.67 5158.33
6204.17 3578.13 3570.55 5140.97 5137.32
6207.02 3541.82 3523.99 5108.31 5092.49
6209.87 3452.04 3510.77 5028.2 5056.53
6212.73 3538.45 3525.47 5033.09 5062.18
6215.58 3585.93 3527.44 5125.24 5040.98
6218.43 3457.94 3531.51 4964.63 5065.78
6221.28 3550.67 3531.51 5107.47 5071.37
6224.14 3585.91 3522 5142.02 5083.31
6226.99 3429.41 3506.32 5000.43 5053.07
6229.84 3503.65 3512.23 5016.74 5054.54
6232.69 3603.65 3562.47 5146.45 5088.33
6235.54 3580.12 3544.16 5101.79 5105.7
6238.39 3448.71 3425.66 5068.86 4973.26
6241.25 3248.16 3402.14 4749.12 4939.37
6244.1 3509.56 3413.05 5000.12 4905.13
6246.95 3481.44 3484.55 4966.13 4975.96
6249.8 3462.64 3470.54 4961.63 4951.56
6252.65 3467.55 3465.65 4926.91 4925.38
6255.5 3466.75 3449.63 4887.59 4885.73
6258.35 3414.6 3423.45 4842.69 4860.71
6261.2 3389 3411.17 4851.86 4873.57
6264.05 3429.91 3476.93 4926.17 4975.4
6266.9 3611.87 3497.62 5148.18 5028.01
6269.75 3451.09 3510.93 5009.68 5043.53
6272.6 3469.82 3455.65 4972.74 4959.52
6275.45 3446.05 3405.19 4896.14 4853.45
6278.3 3299.71 3347.24 4691.47 4778.38
6281.15 3295.96 3333.27 4747.52 4753.27
6284 3404.15 3380.91 4820.82 4815.92
6286.85 3442.61 3457.41 4879.43 4893.6
6289.7 3525.48 3466.86 4980.54 4917.12
6292.55 3432.49 3459.42 4891.38 4905.86
6295.4 3420.29 3417.85 4845.67 4844.72
6298.25 3400.76 3400.72 4797.11 4813.56
6301.09 3381.1 3378.32 4797.92 4790.88
6303.94 3353.09 3396.05 4777.62 4815.71
6306.79 3453.95 3371.37 4871.6 4850.28
6309.64 3307.06 3361.92 4901.62 4828.24
6312.49 3324.74 3320.49 4711.49 4787.93
6315.33 3329.69 3372.7 4750.69 4784.86
6318.18 3463.68 3408.15 4892.4 4850.14
6321.03 3431.09 3446.53 4907.31 4892.95
6323.88 3444.81 3426.06 4879.15 4901.47
6326.72 3402.29 3433.98 4917.95 4931.19
6329.57 3454.85 3447.13 4996.47 4924.51
6332.42 3484.26 3460.53 4859.12 4886.74
6335.27 3442.5 3458.98 4804.63 4821.57
6338.11 3450.19 3438.72 4800.95 4808.3
6340.96 3423.48 3449.54 4819.31 4842.94
6343.8 3474.97 3464.47 4908.55 4881.99
6346.65 3494.95 3488.99 4918.11 4896.88
6349.5 3497.05 3487.75 4863.99 4877.75
6352.34 3471.25 3489.35 4851.14 4878.64
6355.19 3499.75 3428.52 4920.8 4842.72
6358.03 3314.55 3425.18 4756.23 4840.68
6360.88 3461.24 3453.73 4845 4876.64
6363.72 3585.39 3531.41 5028.69 4941.31
6366.57 3547.6 3516.45 4950.24 4952.99
6369.41 3416.35 3476.69 4880.04 4908.15
6372.26 3466.13 3459.33 4894.17 4924.49
6375.1 3495.52 3472.03 4999.26 4934.23
6377.95 3454.45 3479.1 4909.26 4941.72
6380.79 3487.33 3483.15 4916.63 4892.4
6383.64 3507.66 3497.72 4851.31 4884
6386.48 3498.18 3496.67 4884.05 4876.17
6389.33 3484.16 3460.95 4893.16 4834.53
6392.17 3400.5 3476.32 4726.39 4855.31
6395.01 3544.3 3434.89 4946.38 4791.59
6397.86 3359.86 3446.88 4702.01 4809.93
6400.7 3436.47 3420.28 4781.41 4783.53
6403.54 3464.5 3438.48 4867.18 4802.11
6406.39 3414.47 3429.51 4757.74 4793.15
6409.23 3409.55 3442.1 4754.52 4784.46
6412.07 3502.27 3462.34 4841.11 4799.21
6414.91 3475.19 3472.8 4801.99 4814.8
6417.76 3440.96 3431.5 4801.31 4764.21
6420.6 3378.35 3421.01 4689.32 4777.54
6423.44 3443.73 3448.34 4841.98 4811.07
6426.28 3522.95 3490.07 4901.92 4887.14
6429.13 3503.53 3464.58 4917.5 4868.85
6431.97 3367.25 3464 4787.13 4856.71
6434.81 3521.23 3415.3 4865.5 4791.27
6437.65 3357.42 3411.67 4721.17 4738.04
6440.49 3356.37 3404.2 4627.45 4730.43
6443.33 3498.82 3404.3 4842.69 4725.47
6446.17 3357.7 3439.05 4706.26 4789.2
6449.01 3460.62 3409.05 4818.66 4736.56
6451.86 3408.82 3436.18 4684.74 4748.99
6454.7 3439.1 3431.94 4743.57 4719.65
6457.54 3447.9 3439.71 4730.64 4746.33
6460.38 3432.12 3414.45 4764.77 4711.98
6463.22 3363.33 3407.26 4640.55 4747.88
6466.06 3426.33 3383.32 4838.33 4718.99
6468.9 3360.31 3413.42 4678.08 4739.19
6471.74 3453.63 3397.39 4701.17 4715.51
6474.58 3378.24 3416.81 4767.28 4724.46
6477.41 3418.58 3417.64 4704.94 4736.15
6480.25 3456.1 3424.41 4736.22 4732.41
6483.09 3398.56 3456.12 4756.07 4793.58
6485.93 3513.71 3412.96 4888.44 4730.44
6488.77 3326.61 3364.64 4546.82 4644.49
6491.61 3253.6 3269.28 4498.22 4492.75
6494.45 3227.64 3245.89 4433.22 4462.15
6497.29 3256.43 3283.76 4455 4550.53
6500.12 3367.21 3359.43 4763.37 4665.28
6502.96 3454.65 3415.86 4777.46 4757.41
6505.8 3425.7 3458.64 4731.4 4758.01
6508.64 3495.56 3432.75 4765.18 4732.65
6511.47 3376.98 3420.48 4701.37 4714.72
6514.31 3388.88 3421.75 4677.6 4722.43
6517.15 3499.39 3423.46 4788.33 4720.64
6519.99 3382.11 3444.86 4696 4731.69
6522.82 3453.09 3422.24 4710.75 4698.04
6525.66 3431.5 3445.15 4687.36 4713.94
6528.5 3450.84 3449.39 4743.71 4712.33
6531.33 3465.81 3405.56 4705.92 4678.59
6534.17 3300.03 3435.16 4586.14 4700.06
6537 3539.63 3434.86 4808.13 4700.99
6539.84 3464.91 3228.34 4708.71 4720.79
6542.68 2680.49 2944.32 4645.55 4655.15
6545.51 2687.57 2692.86 4611.2 4640.3
6548.35 2710.54 2678.68 4664.17 4589.31
6551.18 2637.93 2648.62 4492.57 4546.86
6554.02 2597.4 2567.06 4483.83 4436.68
6556.85 2465.86 2442.21 4333.63 4258.17
6559.69 2263.38 2307.47 3957.05 4009.73
6562.52 2193.18 2277.27 3738.5 3912.41
6565.36 2375.26 2363.55 4041.67 4007.07
6568.19 2522.2 2521.68 4241.03 4245.39
6571.03 2667.57 2631.57 4453.46 4424.46
6573.86 2704.93 2697.79 4578.89 4534.55
6576.69 2720.87 2713.45 4571.29 4595.16
6579.53 2714.54 2724.66 4635.31 4610.07
6582.36 2738.57 2724.04 4623.61 4612.83
6585.19 2719.01 2717.31 4579.57 4572.2
6588.03 2694.37 2723.58 4513.44 4565.11
6590.86 2757.38 2747.98 4602.32 4586.08
6593.69 2792.2 2780.06 4642.49 4629.63
6596.53 2790.6 2794.67 4644.1 4645.34
6599.36 2801.23 2798.53 4649.44 4652.24
6602.19 2803.76 2821.94 4663.17 4698.75
6605.02 2860.83 2818.12 4783.65 4688.27
6607.86 2789.77 2828.51 4618 4674.98
6610.69 2834.92 2816.1 4623.3 4647.64
6613.52 2823.61 2827.05 4701.63 4669.41
6616.35 2822.63 2812.1 4683.31 4651.49
6619.18 2790.05 2822.29 4569.52 4671.04
6622.01 2854.17 2836.99 4760.28 4674.22
6624.84 2866.74 2811.96 4692.88 4652.97
6627.68 2714.96 2787.85 4505.76 4582.4
6630.51 2781.86 2769.97 4548.55 4550.79
6633.34 2813.09 2805.55 4598.07 4588.64
6636.17 2821.7 2806.05 4619.3 4595.77
6639 2783.36 2813.96 4569.92 4624.13
6641.83 2836.82 2842.88 4683.17 4661.71
6644.66 2908.47 2867.05 4732.04 4687.69
6647.49 2855.85 2862.56 4647.86 4679.14
6650.32 2823.35 2840.36 4657.53 4671.86
6653.15 2841.86 2831.19 4710.19 4652.94
6655.98 2828.34 2871.12 4591.11 4715.5
6658.81 2943.15 2870.94 4845.22 4690.71
6661.64 2841.32 2886.08 4635.79 4691.3
6664.46 2873.77 2885.43 4592.89 4676.36
6667.29 2941.19 2885.59 4800.4 4673.59
6670.12 2841.8 2880.81 4627.49 4685.1
6672.95 2859.45 2842.03 4627.4 4614.14
6675.78 2824.83 2853.29 4587.52 4595.24
6678.61 2875.58 2870.42 4570.78 4604.02
6681.44 2910.87 2886.78 4653.74 4602.21
6684.26 2873.91 2884.78 4582.11 4632.58
6687.09 2869.58 2873.93 4661.89 4636.24
6689.92 2878.31 2879.5 4664.74 4644.66
6692.75 2890.61 2878.12 4607.36 4606.02
6695.57 2865.43 2880.37 4545.95 4585.06
6698.4 2885.06 2873.55 4601.87 4572.34
6701.23 2870.16 2856.51 4569.19 4560.92
6704.05 2814.31 2845.94 4511.71 4529.98
6706.88 2853.36 2852.91 4509.03 4531.34
6709.71 2891.07 2856.24 4573.27 4538.48
6712.53 2824.3 2872.02 4533.13 4535.48
6715.36 2900.68 2884.51 4500.04 4542.12
6718.18 2928.55 2942.27 4593.19 4569.77
6721.01 2997.57 2929.03 4616.09 4559.53
6723.84 2860.98 2929.61 4469.32 4550.99
6726.66 2930.28 2901.06 4567.56 4545.18
6729.49 2911.92 2886.08 4598.65 4547.36
6732.31 2816.05 2898.68 4475.88 4569.63
6735.14 2968.06 2889.72 4634.36 4551.24
6737.96 2885.03 2937.63 4543.49 4598.07
6740.78 2959.8 2904.04 4616.36 4549.87
6743.61 2867.31 2901.17 4489.76 4535.71
6746.43 2876.42 2887.1 4500.99 4511.31
6749.26 2917.58 2857.67 4543.17 4480.94
6752.08 2779 2907.93 4398.65 4540.98
6754.9 3027.21 2887.9 4681.13 4513.65
6757.73 2857.48 2921.51 4461.17 4559.94
6760.55 2879.83 2887.37 4537.53 4512.37
6763.38 2924.78 2890.4 4538.4 4492.54
6766.2 2866.58 2906.12 4401.71 4472.61
6769.02 2927.01 2917.64 4477.72 4493.3
6771.84 2959.34 2954.42 4600.48 4545.47
6774.67 2976.9 2977.94 4558.21 4557.54
6777.49 2997.59 2934.22 4513.94 4491.1
6780.31 2828.17 2900.53 4401.15 4440.51
6783.13 2875.83 2884.13 4406.44 4434.63
6785.95 2948.41 2915.67 4496.28 4482.34
6788.78 2922.79 2939.61 4544.3 4521.82
6791.6 2947.64 2925.76 4524.89 4491.5
6794.42 2906.85 2947.56 4405.32 4465.66
6797.24 2988.2 2956.36 4466.78 4461.05
6800.06 2974.05 2959.58 4511.03 4446.65
6802.88 2916.49 2954.61 4362.12 4443.57
6805.7 2973.28 2947.85 4457.56 4421.8
6808.52 2953.78 2955.09 4445.72 4446.12
6811.34 2938.2 2918.32 4435.07 4399.86
6814.16 2862.98 2901 4318.78 4376.44
6816.98 2901.81 2906.11 4375.48 4380.23
6819.8 2953.53 2945.7 4446.43 4428.96
6822.62 2981.76 2920.7 4464.97 4424.2
6825.44 2826.8 2898.36 4361.2 4406.18
6828.26 2886.52 2905.28 4392.36 4405.96
6831.08 3002.51 2909.95 4464.31 4367.81
6833.9 2840.84 2953.15 4246.74 4372.47
6836.72 3016.1 2903.24 4406.35 4318.97
6839.54 2852.79 2877.43 4303.81 4293.16
6842.36 2763.39 2821.51 4169.31 4255.58
6845.18 2848.35 2811.7 4293.64 4236.76
6847.99 2823.37 2877.43 4247.34 4301.4
6850.81 2960.56 2853.06 4363.24 4238.45
6853.63 2775.24 2893.01 4104.78 4259.09
6856.45 2943.23 2886.23 4309.26 4267.01
6859.26 2940.22 2887.02 4387 4270.12
6862.08 2777.6 2739.69 4114.1 4090.75
6864.9 2501.25 2503.79 3771.17 3766.97
6867.72 2232.52 2307.36 3415.63 3503.56
6870.53 2188.32 2199.18 3323.88 3349.47
6873.35 2176.72 2299.12 3308.89 3430.58
6876.17 2532.32 2397.05 3658.97 3542.14
6878.98 2482.11 2530.31 3658.55 3690.39
6881.8 2576.51 2546.5 3753.67 3712.11
6884.61 2580.88 2589.55 3724.13 3760.65
6887.43 2611.26 2567.63 3804.14 3743.29
6890.25 2510.74 2588.11 3701.59 3793.52
6893.06 2642.32 2598.28 3874.83 3791.66
6895.88 2641.79 2684.48 3798.55 3900.14
6898.69 2769.32 2689.93 4027.03 3912.96
6901.51 2658.69 2698.18 3913.3 3908.64
6904.32 2666.54 2702.42 3785.6 3892.1
6907.14 2782.04 2703.4 3977.41 3882.93
6909.95 2661.64 2714.29 3885.78 3921.15
6912.76 2699.21 2705.94 3900.26 3917.88
6915.58 2756.99 2729.23 3967.61 3917.39
6918.39 2731.49 2736.79 3884.29 3915.84
6921.21 2721.9 2737.86 3895.63 3925.6
6924.02 2760.21 2757.64 3996.88 3964.55
6926.83 2790.81 2791.48 4001.13 4011.04
6929.65 2823.42 2789.08 4035.12 3980.9
6932.46 2753.01 2769.29 3906.45 3950.27
6935.27 2731.42 2727.1 3909.24 3900.2
6938.08 2696.86 2738.66 3884.9 3957.21
6940.9 2787.71 2716.22 4077.48 3921.25
6943.71 2664.1 2754.17 3801.37 3946.88
6946.52 2810.71 2753.72 3961.79 3908.21
6949.33 2786.34 2795.55 3961.49 3966.75
6952.15 2789.58 2765.5 3976.97 3959.97
6954.96 2720.56 2790.24 3941.45 3991.96
6957.77 2860.57 2809.57 4057.47 4001.49
6960.58 2847.58 2846.5 4005.56 4044.72
6963.39 2831.34 2865.08 4071.12 4064.68
6966.2 2916.31 2842.16 4117.35 4050.81
6969.01 2778.83 2828.88 3963.97 4016.78
6971.82 2791.49 2781.2 3969.03 3960.98
6974.63 2773.28 2776.17 3949.92 3947.08
6977.44 2763.75 2756.91 3922.27 3913.17
6980.25 2733.7 2735.9 3867.32 3892.75
6983.06 2710.25 2767.71 3888.65 3918.28
6985.87 2859.19 2768.85 3998.89 3925.96
6988.68 2737.12 2775.31 3890.36 3912.74
6991.49 2729.62 2706.35 3848.98 3824.29
6994.3 2652.3 2717.18 3733.52 3823.27
6997.11 2769.63 2702.77 3887.32 3789.6
6999.92 2686.38 2723.91 3747.95 3812.48
7002.73 2715.71 2712.95 3802.18 3780.51
7005.54 2736.76 2720.13 3791.41 3788.34
7008.34 2707.93 2713.71 3771.44 3772.99
7011.15 2696.45 2680.67 3756.13 3754.05
7013.96 2637.63 2671.65 3734.6 3744.85
7016.77 2680.87 2666.41 3743.82 3743.69
7019.58 2680.74 2674.01 3752.66 3736.08
7022.38 2660.43 2656.48 3711.75 3705.97
7025.19 2628.28 2651.03 3653.49 3678.42
7028 2664.37 2680.3 3670 3720.3
7030.8 2748.25 2691.08 3837.39 3736.65
7033.61 2660.63 2718.8 3702.55 3778.95
7036.42 2747.53 2718.29 3796.89 3779.37
7039.22 2746.72 2765.48 3838.67 3844.05
7042.03 2802.19 2784.07 3896.59 3867.95
7044.84 2803.3 2796.38 3868.6 3861.04
7047.64 2783.64 2753.25 3817.92 3805.05
7050.45 2672.8 2725.8 3728.64 3774.56
7053.25 2720.97 2729.91 3777.11 3777.87
7056.06 2795.97 2735.27 3827.85 3772.82
7058.86 2688.87 2739.51 3713.51 3754.01
7061.67 2733.68 2694.9 3720.68 3692.84
7064.47 2662.15 2706.02 3644.33 3684.45
7067.28 2722.23 2694.07 3688.34 3675.2
7070.08 2697.84 2732.73 3692.94 3720.27
7072.89 2778.12 2745.62 3779.53 3745.73
7075.69 2760.9 2772.84 3764.71 3788.21
7078.49 2779.51 2740.73 3820.4 3750.92
7081.3 2681.77 2739.02 3667.66 3764.59
7084.1 2755.77 2705.47 3805.71 3700.05
7086.9 2678.87 2734.9 3626.78 3738.65
7089.71 2770.07 2748.19 3783.44 3741.69
7092.51 2795.63 2757.15 3814.86 3767.42
7095.31 2705.76 2733.17 3703.96 3722.82
7098.12 2698.13 2704.49 3649.63 3684.58
7100.92 2709.59 2719.7 3700.15 3678.85
7103.72 2751.37 2725.99 3686.76 3679.2
7106.52 2717.02 2709.55 3650.7 3665.3
7109.32 2660.25 2701.93 3658.45 3669.42
7112.13 2728.52 2671.58 3699.11 3623.99
7114.93 2625.97 2679.89 3514.41 3601.44
7117.73 2685.17 2649.4 3590.81 3552.57
7120.53 2637.06 2669.64 3552.5 3578.19
7123.33 2686.68 2670.42 3591.27 3556.55
7126.13 2687.51 2660.8 3525.89 3523.04
7128.93 2608.21 2671.58 3451.95 3539.67
7131.73 2719.03 2676.15 3641.17 3555.94
7134.53 2701.2 2706.74 3574.69 3607.72
7137.33 2699.99 2675.41 3607.29 3538.93
7140.13 2625.05 2667.89 3434.82 3529.34
7142.93 2678.63 2622.75 3545.91 3475.36
7145.73 2564.58 2618.83 3445.33 3472.29
7148.53 2613.27 2566.4 3425.63 3418.15
7151.33 2521.35 2592.86 3383.5 3437.64
7154.13 2643.97 2573.81 3503.8 3439.7
7156.93 2556.11 2576.04 3431.79 3429.43
7159.73 2528.05 2512.04 3352.7 3342.61
7162.53 2451.95 2487.07 3243.34 3301.39
7165.32 2481.19 2481.19 3308.11 3284.94
7168.12 2510.42 2471.66 3303.38 3250.07
7170.92 2423.39 2446.73 3138.72 3190.75
7173.72 2406.4 2408.89 3130.16 3144.9
7176.51 2396.9 2377.46 3165.83 3123.82
7179.31 2329.09 2322.02 3075.46 3060.1
7182.11 2240.07 2240.96 2938.99 2969.28
7184.91 2153.73 2200.44 2893.39 2911.84
7187.7 2207.52 2171.39 2903.12 2851.66
7190.5 2152.93 2182.72 2758.47 2841.73
7193.3 2187.71 2160.94 2863.59 2811.56
7196.09 2142.19 2170.46 2812.61 2848.69
7198.89 2181.49 2186.8 2869.86 2871.42
7201.68 2236.71 2235.58 2931.78 2916.46
7204.48 2288.54 2300.97 2947.74 2987.37
7207.27 2377.67 2350.62 3082.58 3040.99
7210.07 2385.64 2360.83 3092.64 3083.19
7212.86 2319.17 2412.79 3074.33 3143.42
7215.66 2533.56 2419.77 3263.28 3131.83
7218.45 2406.58 2450.16 3057.87 3156.5
7221.25 2410.35 2419.31 3148.35 3115.63
7224.04 2441 2409.74 3140.66 3124.55
7226.84 2377.88 2420.89 3084.65 3123.7
7229.63 2443.78 2355.65 3145.8 3054.59
7232.42 2245.29 2362.9 2933.33 3044.96
7235.22 2399.63 2324.82 3055.74 2957.67
7238.01 2329.53 2379.96 2883.94 3002.71
7240.8 2410.71 2377.1 3068.46 3020.18
7243.6 2391.05 2419.7 3108.13 3119.84
7246.39 2457.33 2459.97 3182.93 3188.41
7249.18 2531.54 2500.08 3274.16 3219.08
7251.98 2511.36 2485.35 3200.14 3186.85
7254.77 2413.14 2425.59 3086.24 3100.68
7257.56 2352.27 2328.1 3015.67 2994.74
7260.35 2218.89 2299.39 2882.31 2954.86
7263.14 2327.01 2312.61 2966.59 2975.89
7265.94 2391.94 2359.81 3078.75 3012.17
7268.73 2360.49 2356.75 2991.18 3013.56
7271.52 2317.81 2322.56 2970.76 2964.17
7274.31 2289.37 2325 2930.57 2948.82
7277.1 2367.82 2358.72 2945.14 2974.55
7279.89 2418.96 2358.44 3047.94 2961.25
7282.68 2288.53 2358.57 2890.67 2962.16
7285.47 2368.23 2259.36 2947.88 2840.89
7288.26 2121.32 2235.7 2684.11 2800.73
7291.05 2217.54 2200.15 2770.19 2769.97
7293.84 2261.59 2285.12 2855.61 2858.63
7296.63 2376.23 2333.7 2950.1 2938.7
7299.42 2363.29 2347.64 3010.39 2946.52
7302.21 2303.42 2283.48 2879.07 2858.28
7305 2183.74 2248.7 2685.38 2793.87
7307.79 2258.93 2265.41 2817.17 2794.42
7310.57 2353.56 2293.96 2880.7 2838.44
7313.36 2269.39 2364.13 2817.44 2900.26
7316.15 2469.43 2367.18 3002.64 2923.99
7318.94 2362.71 2394.58 2951.91 2977.89
7321.73 2351.61 2382.54 2979.12 2958.1
7324.51 2433.32 2395.23 2943.28 2980.83
7327.3 2400.77 2413.76 3020.08 2993.55
7330.09 2407.17 2432.15 3017.3 3037.01
7332.88 2488.5 2480.01 3073.64 3069.73
7335.66 2544.37 2499.67 3118.24 3072.24
7338.45 2466.14 2503.46 3024.84 3058.69
7341.24 2499.89 2467.23 3032.99 3013.38
7344.02 2435.67 2449.42 2982.3 2997.31
7346.81 2412.71 2380.06 2976.64 2935.68
7349.59 2291.81 2356.13 2848.11 2916.81
7352.38 2363.88 2341.64 2925.7 2898.32
7355.16 2369.24 2405.51 2921.17 2947.72
7357.95 2483.43 2422.52 2996.29 2949.58
7360.73 2414.88 2419.81 2931.27 2920.67
7363.52 2361.12 2384.49 2834.46 2889.62
7366.3 2377.47 2378.01 2903.14 2874.52
7369.09 2395.45 2369.29 2885.98 2884.52
7371.87 2334.95 2382.21 2864.45 2895.88
7374.66 2416.24 2386.67 2937.2 2907.57
7377.44 2408.82 2398.28 2921.06 2913.37
7380.23 2369.78 2354.84 2881.84 2866.08
7383.01 2285.92 2341.53 2795.35 2860.93
7385.79 2368.88 2306.62 2905.58 2829.05
7388.58 2265.07 2304.75 2786.21 2825.88
7391.36 2280.3 2309.38 2785.84 2809.59
7394.14 2382.76 2343.85 2856.72 2815.54
7396.92 2368.5 2384.82 2804.06 2847.82
7399.71 2403.21 2384.44 2882.67 2838.32
7402.49 2381.61 2349.46 2828.23 2795.52
7405.27 2263.55 2314.04 2675.65 2777.99
7408.05 2296.97 2256.78 2830.08 2734.97
7410.83 2209.82 2278.22 2699.19 2783.47
7413.61 2327.88 2292.35 2821.13 2790.64
7416.4 2339.35 2318.01 2851.61 2822.53
7419.18 2286.79 2324.83 2794.86 2825.13
7421.96 2348.36 2340.18 2828.91 2833.17
7424.74 2385.39 2379.32 2875.75 2854.74
7427.52 2404.2 2385.6 2859.57 2856.01
7430.3 2367.22 2384.73 2832.72 2841.06
7433.08 2382.76 2362.65 2830.9 2801.35
7435.86 2337.98 2348.77 2740.43 2769.39
7438.64 2325.57 2328.48 2736.83 2738.75
7441.42 2321.9 2324.84 2739 2756.04
7444.2 2327.05 2320.07 2792.28 2754.87
7446.98 2311.25 2345.53 2733.33 2774.1
7449.76 2398.3 2367.35 2796.68 2788.81
7452.53 2392.49 2393.29 2836.41 2811.65
7455.31 2389.08 2359.8 2801.86 2800.91
7458.09 2297.83 2323.73 2764.47 2738.9
7460.87 2284.27 2301.82 2650.37 2714.18
7463.65 2323.34 2306.54 2727.69 2686.25
7466.43 2312 2319.24 2680.68 2713.12
7469.2 2322.38 2332.43 2731 2723.43
7471.98 2362.9 2338.8 2758.61 2747.41
7474.76 2331.14 2357.56 2752.62 2762.33
7477.53 2378.66 2362.25 2775.75 2775.47
7480.31 2376.97 2164.16 2798.03 2730.05
7483.09 1736.84 1992.39 2616.36 2707.95
7485.86 1863.36 1791.53 2709.45 2634.85
7488.64 1774.39 1780.33 2578.75 2605.94
7491.42 1703.22 1743.75 2529.63 2584.49
7494.19 1753.63 1759.64 2645.08 2611.09
7496.97 1822.07 1800.82 2658.55 2654.45
7499.74 1826.76 1828.17 2659.71 2654.24
7502.52 1835.69 1841.67 2644.46 2652.93
7505.29 1862.57 1859.78 2654.61 2659.6
7508.07 1881.1 1834.93 2679.73 2638.54
7510.84 1761.14 1826.45 2581.28 2631.35
7513.62 1837.1 1803.86 2633.03 2632.29
7516.39 1813.35 1831.94 2682.55 2649.14
7519.16 1845.37 1838.65 2631.84 2636.33
7521.94 1857.24 1833.75 2594.59 2608.96
7524.71 1798.65 1846.97 2600.46 2632.17
7527.49 1885.02 1814.62 2701.46 2590.07
7530.26 1760.19 1820.21 2468.3 2571.66
7533.03 1815.42 1774.95 2545.24 2492.25
7535.8 1749.25 1785.58 2463.2 2520.32
7538.58 1792.08 1788.29 2552.53 2523.54
7541.35 1823.55 1813.48 2554.9 2561.54
7544.12 1824.82 1803.87 2577.21 2530.21
7546.89 1763.23 1779.39 2458.53 2486.09
7549.67 1750.11 1751.84 2422.54 2451.1
7552.44 1742.19 1739.96 2472.23 2431.27
7555.21 1727.58 1754.72 2399.02 2459.12
7557.98 1794.39 1770.35 2506.11 2462.04
7560.75 1789.08 1813.04 2481 2503.04
7563.52 1855.63 1830.94 2522.02 2503.65
7566.29 1848.1 1836.8 2507.95 2504.88
7569.06 1806.66 1804.06 2484.66 2459.42
7571.83 1757.42 1784.93 2385.64 2425.1
7574.6 1790.69 1780.11 2404.99 2408.71
7577.37 1792.22 1795.64 2435.51 2443.98
7580.14 1804.03 1777.48 2491.45 2416.79
7582.91 1736.19 1751.79 2323.4 2386.28
7585.68 1715.17 1680.77 2343.98 2303.83
7588.45 1590.94 1586.91 2244.1 2217.03
7591.22 1454.62 1364.25 2063.01 1961.83
7593.99 1047.2 1085.5 1578.37 1591.53
7596.76 754.7 790.626 1133.2 1192.03
7599.52 569.98 609.967 864.531 905.879
7602.29 505.22 521.654 719.907 753.879
7605.06 489.764 507.638 677.199 709.636
7607.83 527.931 570.373 731.801 744.548
7610.6 693.426 720.932 824.644 919.697
7613.36 941.438 954.12 1202.65 1189.37
7616.13 1227.5 1108.88 1540.83 1411.37
7618.9 1157.69 1141.6 1490.64 1494.7
7621.66 1039.63 1059.62 1452.64 1415.1
7624.43 981.55 975.579 1302.02 1328.02
7627.2 905.563 926.19 1229.41 1237.11
7629.96 891.456 908.36 1179.91 1207.39
7632.73 928.061 945.447 1212.85 1226.76
7635.49 1016.82 991.477 1287.53 1272.07
7638.26 1029.55 1030.59 1315.85 1321.4
7641.02 1045.39 1071.71 1360.82 1378.82
7643.79 1140.19 1127.26 1459.79 1447.87
7646.55 1196.2 1212.87 1522.99 1548.53
7649.32 1302.23 1280.28 1662.82 1629.7
7652.08 1342.4 1304.93 1703.3 1663.89
7654.85 1270.17 1320.59 1625.53 1685.21
7657.61 1349.19 1352.07 1726.78 1716.83
7660.38 1436.85 1399.54 1798.17 1790.72
7663.14 1412.57 1426.57 1847.21 1820.03
7665.9 1430.29 1450.6 1814.71 1858.76
7668.67 1508.93 1530.78 1914.36 1938.47
7671.43 1653.13 1594.22 2086.34 2007.88
7674.19 1620.6 1613.99 2022.93 2035.84
7676.95 1568.23 1625.96 1998.24 2040.39
7679.72 1689.05 1615.98 2099.99 2044.57
7682.48 1590.67 1636.49 2035.47 2036.79
7685.24 1629.76 1626.15 1974.9 2042.31
7688 1658.03 1645 2116.57 2074.62
7690.76 1647.2 1639.12 2132.39 2086
7693.52 1612.13 1623.93 2009.03 2054.74
7696.29 1612.46 1631.91 2022.79 2026.36
7699.05 1671.15 1664.89 2047.25 2040.8
7701.81 1711.07 1678.15 2052.34 2064.04
7704.57 1652.24 1681.28 2092.53 2081.58
7707.33 1680.53 1665.53 2099.85 2089.5
7710.09 1663.83 1640.95 2076.12 2037.38
7712.85 1578.5 1653.19 1936.15 2006.53
7715.61 1717.25 1619.46 2007.32 1962.07
7718.37 1562.62 1635.13 1942.75 2011.05
7721.13 1625.52 1618.57 2083.08 2044.35
7723.89 1667.55 1644.43 2107.22 2070.89
7726.65 1640.2 1675.74 2022.37 2070.57
7729.4 1719.46 1683.89 2082.12 2039.32
7732.16 1692.01 1704.38 2013.46 2049.02
7734.92 1701.67 1678.11 2051.48 2021.83
7737.68 1640.66 1638.86 2000.55 1994.59
7740.44 1574.25 1609.17 1931.75 1969.25
7743.19 1612.59 1588.41 1975.45 1932.9
7745.95 1578.38 1632.54 1891.52 1959.61
7748.71 1706.66 1658.61 2011.85 1990.28
7751.47 1690.81 1672.64 2067.46 2045.45
7754.22 1620.46 1661.26 2057.04 2050.58
7756.98 1672.52 1633.35 2027.25 2008.71
7759.74 1607.07 1660.65 1941.84 1989.83
7762.49 1702.36 1668.1 2000.4 1996.07
7765.25 1694.87 1689.12 2045.98 2020.47
7768 1670.14 1662.57 2015.03 2010.09
7770.76 1622.7 1653.93 1969.26 1979.91
7773.52 1668.96 1636.72 1955.46 1945.6
7776.27 1618.51 1631.41 1912.09 1913.66
7779.03 1606.78 1608.64 1873.42 1888.33
7781.78 1600.63 1613.68 1879.48 1912.53
7784.54 1633.64 1632.54 1984.68 1914.13
7787.29 1663.34 1657.32 1878.24 1942.1
7790.04 1674.98 1657.84 1963.38 1913.96
7792.8 1635.19 1642.71 1900.25 1945.55
7795.55 1617.96 1603.3 1973.02 1899.01
7798.31 1556.74 1605.43 1823.75 1896.63
7801.06 1641.59 1626.74 1893.13 1886.58
7803.81 1681.9 1655.23 1942.87 1903.25
7806.56 1642.21 1672.85 1873.73 1911.04
7809.32 1694.43 1659.93 1916.53 1896.51
7812.07 1643.14 1636.59 1899.28 1885.89
7814.82 1572.21 1635.3 1841.86 1875.17
7817.57 1690.55 1618.94 1884.38 1834.98
7820.33 1594.07 1634.89 1778.69 1847.39
7823.08 1620.04 1605.18 1879.1 1835.09
7825.83 1601.43 1586.53 1847.49 1848.83
7828.58 1538.12 1569.39 1819.92 1820.31
7831.33 1568.63 1547.18 1793.53 1786.32
7834.08 1534.8 1569.34 1745.51 1789.71
7836.83 1604.58 1594.64 1830.07 1822.2
7839.58 1644.54 1614.85 1891.01 1842.17
7842.33 1595.42 1595.52 1805.42 1822.82
7845.08 1546.61 1555.77 1772.02 1774.42
7847.83 1525.28 1556.9 1745.83 1769.5
7850.58 1598.8 1574.36 1790.65 1788.27
7853.33 1599 1617.52 1828.32 1823.54
7856.08 1654.76 1596.53 1851.65 1806.19
7858.83 1535.83 1593.22 1738.6 1806.81
7861.58 1589.06 1567.12 1830.16 1789.42
7864.33 1576.47 1580.89 1799.49 1787.94
7867.08 1577.12 1547.31 1734.16 1716.6
7869.82 1488.32 1554.24 1616.16 1686.69
7872.57 1597.29 1548.04 1709.76 1673.52
7875.32 1558.51 1556.55 1694.64 1696.04
7878.07 1513.84 1542.16 1683.72 1680.39
7880.82 1554.14 1537.95 1662.8 1671.36
7883.56 1545.86 1550 1667.56 1657.7
7886.31 1549.99 1530.14 1642.73 1643.35
7889.06 1494.56 1498.6 1619.77 1628.39
7891.8 1451.26 1490.23 1622.68 1641.09
7894.55 1524.86 1502.31 1680.84 1649.05
7897.29 1530.81 1542.32 1643.63 1663.19
7900.04 1571.29 1554.94 1665.11 1659.48
7902.79 1562.73 1534.53 1669.69 1644.17
7905.53 1469.56 1537.14 1597.71 1667.31
7908.28 1579.14 1510.43 1734.52 1646.64
7911.02 1482.6 1503.83 1607.69 1618.28
7913.77 1449.75 1472.9 1512.63 1572.8
7916.51 1486.34 1449.36 1598.08 1532.17
7919.26 1411.99 1463.03 1485.8 1565.49
7922 1490.74 1455.77 1612.58 1555.24
7924.74 1464.57 1458.12 1567.35 1572.22
7927.49 1419.04 1457.57 1536.72 1537.36
7930.23 1489.1 1441.4 1508 1515.44
7932.97 1416.07 1453.33 1501.59 1511.64
7935.72 1454.82 1433.37 1525.32 1496.4
7938.46 1429.24 1449.74 1462.29 1509.33
7941.2 1465.18 1444.7 1540.39 1492.63
7943.95 1439.69 1441.87 1475.21 1501.32
7946.69 1420.75 1448.14 1488.34 1506.31
7949.43 1483.97 1478.44 1555.37 1532.64
7952.17 1530.59 1485.16 1554.2 1544.98
7954.91 1440.93 1494.82 1525.38 1549.55
7957.65 1512.94 1478.66 1569.08 1517.46
7960.4 1482.11 1485.06 1457.92 1520.88
7963.14 1460.13 1474.69 1535.66 1508.34
7965.88 1481.83 1475.06 1531.44 1534.12
7968.62 1483.23 1486.47 1535.27 1533.05
7971.36 1494.35 1472.15 1532.44 1528.59
7974.1 1438.88 1463.96 1518.05 1519.55
7976.84 1458.66 1457.35 1508.15 1505.72
7979.58 1474.5 1458.56 1490.95 1501.35
7982.32 1442.53 1451.58 1504.96 1490.68
7985.06 1437.72 1468.6 1476.13 1500.75
7987.8 1525.55 1472.69 1521.15 1479.52
7990.53 1454.78 1460.43 1441.29 1465
7993.27 1400.95 1414.76 1432.55 1431.76
7996.01 1388.54 1393.82 1421.44 1429.88
7998.75 1391.96 1382.27 1435.65 1401.33
8001.49 1366.3 1385.05 1346.91 1404.2
8004.23 1396.9 1387.76 1430.05 1399.83
8006.96 1400.09 1413.89 1422.52 1427.43
8009.7 1444.67 1437.83 1429.72 1452.96
8012.44 1468.72 1471.95 1506.64 1482.19
8015.17 1502.45 1450.5 1510.21 1463.09
8017.91 1380.34 1403.91 1372.4 1395.7
8020.65 1328.94 1378.95 1304.49 1368.86
8023.38 1427.57 1386.91 1429.68 1353.51
8026.12 1404.21 1396.34 1326.36 1398.7
8028.86 1357.23 1382.97 1440.05 1379.86
8031.59 1387.46 1356.23 1373.17 1377.59
8034.33 1324 1373.82 1319.54 1358.27
8037.06 1410 1360.02 1382.09 1343.3
8039.8 1346.05 1354.71 1328.25 1332.53
8042.53 1308.07 1337.57 1287.24 1310.77
8045.27 1358.58 1330.6 1316.83 1303.52
8048 1325.15 1350.43 1306.5 1326.17
8050.73 1367.56 1358.53 1355.19 1337.17
8053.47 1382.88 1369.08 1349.81 1341.37
8056.2 1356.82 1378.12 1319.12 1349.64
8058.94 1394.67 1376.31 1379.99 1341.47
8061.67 1377.44 1389.59 1325.3 1357.02
8064.4 1396.67 1387.57 1365.78 1346.15
8067.13 1388.61 1379.54 1347.38 1343.22
8069.87 1353.35 1374.85 1316.51 1338.1
8072.6 1382.58 1368.54 1350.42 1316.46
8075.33 1369.7 1365.94 1282.45 1309.86
8078.06 1345.55 1341.86 1296.69 1275.64
8080.8 1310.34 1315.42 1247.79 1257.5
8083.53 1290.36 1300.16 1228.02 1234.65
8086.26 1299.78 1302.16 1228.15 1246.3
8088.99 1316.35 1319.65 1282.74 1256.71
8091.72 1342.82 1327.09 1259.25 1256.65
8094.45 1322.11 1318.39 1227.95 1233.55
8097.18 1290.25 1311.68 1213.46 1233.82
8099.91 1322.67 1325.02 1260.05 1242.2
8102.64 1362.13 1336.22 1253.11 1255.67
8105.37 1323.84 1330.71 1253.85 1259.1
8108.1 1306.15 1306.58 1270.33 1240.19
8110.83 1289.75 1302.41 1196.4 1216.49
8113.56 1311.34 1306.7 1182.74 1197.73
8116.29 1319 1312.15 1214.03 1207.26
8119.02 1306.12 1303.56 1225 1210.29
8121.75 1285.56 1275.17 1191.84 1193.43
8124.47 1233.85 1268.89 1163.44 1185.36
8127.2 1287.26 1267.28 1200.79 1184.82
8129.93 1280.74 1249.56 1190.22 1159.11
8132.66 1180.67 1228.7 1086.31 1130.87
8135.38 1224.68 1185.37 1116.07 1089.5
8138.11 1150.77 1230.09 1066.11 1118.68
8140.84 1314.83 1199.88 1173.86 1113.61
8143.57 1134.03 1206.52 1100.87 1127.35
8146.29 1170.7 1162 1107.31 1088.65
8149.02 1181.27 1177.2 1057.78 1061.47
8151.74 1179.63 1167.35 1019.31 1055.03
8154.47 1141.14 1183.55 1088 1083.12
8157.2 1229.89 1157.72 1142.03 1077.84
8159.92 1102.13 1131.55 1003.49 1049.6
8162.65 1062.62 1094.88 1003.28 1012.27
8165.37 1119.9 1093.94 1030.02 1011.89
8168.1 1099.3 1109.15 1002.37 1004.42
8170.82 1108.25 1123.36 980.865 1003.32
8173.55 1162.51 1126.7 1026.71 1002.7
8176.27 1109.34 1108.17 1000.52 995.955
8178.99 1052.65 1089.17 960.635 981.016
8181.72 1105.51 1102.85 981.89 989.199
8184.44 1150.39 1122.17 1025.07 1003.71
8187.16 1110.6 1122.85 1004.17 1009.72
8189.89 1107.55 1113.92 999.933 1005.86
8192.61 1123.6 1104.3 1013.49 1003.66
8195.33 1081.76 1109.3 997.557 1000.33
8198.05 1122.54 1131.84 989.932 994.077
8200.78 1191.22 1165.97 994.741 998.821
8203.5 1184.15 1197.78 1011.79 1025.47
8206.22 1217.98 1217.83 1069.89 1066.23
8208.94 1251.37 1228.49 1117 1078.55
8211.66 1216.11 1201.45 1048.74 1051.4
8214.38 1136.88 1171.87 988.459 1023.98
8217.1 1162.61 1130.04 1034.74 990.767
8219.83 1090.64 1126.25 949.102 981.167
8222.55 1125.5 1100.85 959.659 951.208
8225.27 1086.42 1050.58 944.864 912.512
8227.99 939.823 998.715 833.014 869.988
8230.71 969.897 969.65 832.087 844.882
8233.42 999.231 1031.44 869.547 881.506
8236.14 1125.19 1096.48 942.886 940.365
8238.86 1165.02 1155.29 1008.66 987.087
8241.58 1175.68 1179.35 1009.71 1013.89
8244.3 1197.35 1189.43 1023.28 1024.83
8247.02 1195.27 1202.94 1041.48 1042.17
8249.74 1216.2 1195.26 1061.75 1031.8
8252.46 1174.32 1180.74 992.154 1022.37
8255.17 1151.72 1145.99 1013.2 990.793
8257.89 1111.94 1136.75 967.026 993.78
8260.61 1146.6 1145.15 1001.12 985.191
8263.32 1176.91 1186.18 987.43 1005.9
8266.04 1235.02 1196.05 1029.15 1010.7
8268.76 1176.22 1164.58 1015.52 996.056
8271.47 1082.5 1121.32 943.499 974.316
8274.19 1105.25 1073.01 963.93 926.402
8276.91 1031.3 1106.85 871.777 936.43
8279.62 1184 1132.34 973.583 943.489
8282.34 1181.74 1159.44 985.107 958.454
8285.05 1112.58 1126.93 916.673 945.027
8287.77 1086.47 1107.8 933.301 925.815
8290.48 1124.35 1112.33 927.472 933.833
8293.2 1126.18 1145.35 940.725 932.333
8295.91 1185.51 1165.3 928.803 982.212
8298.63 1184.23 1166.09 1077.11 1001.31
8301.34 1128.53 1135.55 998.021 998.119
8304.05 1093.88 1129.63 919.226 956.786
8306.77 1166.48 1154.12 953.11 956.752
8309.48 1201.99 1174.46 997.92 974.007
8312.19 1154.92 1174.37 970.991 990.13
8314.91 1166.19 1150.33 1001.48 975.326
8317.62 1129.88 1134.28 953.508 950.444
8320.33 1106.77 1116.88 896.345 919.806
8323.04 1113.98 1115.44 909.565 911.507
8325.76 1125.57 1114.6 928.61 916.806
8328.47 1104.25 1116.69 912.242 915.38
8331.18 1120.26 1109.42 905.289 910.633
8333.89 1103.73 1102.26 914.369 908.284
8336.6 1082.8 1109.37 905.194 913.419
8339.31 1141.57 1133.33 920.695 896.96
8342.02 1175.62 1147.43 864.99 883.118
8344.73 1125.1 1066.35 863.667 908.978
8347.44 898.343 984.826 998.275 923.43
8350.15 931.029 907.896 908.348 941.784
8352.86 894.315 897.615 918.729 922.108
8355.57 867.502 889.826 939.246 921.13
8358.28 907.66 905.708 905.415 903.193
8360.99 941.962 934.12 864.917 893.987
8363.7 952.736 970.924 911.629 909.431
8366.41 1018.08 975.169 951.749 930.21
8369.12 954.695 975.025 927.251 933.255
8371.82 952.303 948.78 920.766 926.947
8374.53 939.341 945.365 932.824 929.371
8377.24 944.45 962.542 934.522 943.592
8379.95 1003.83 962.988 963.428 926.777
8382.65 940.679 941.55 882.379 893.773
8385.36 880.137 907.402 835.513 862.993
8388.07 901.389 920.708 871.087 880.452
8390.77 980.599 954.037 934.757 910.103
8393.48 980.125 970.117 924.465 918.024
8396.19 949.628 941.076 894.851 899.533
8398.89 893.474 931.594 879.283 893.129
8401.6 951.679 927.542 905.254 880.191
8404.3 937.474 948.97 856.037 872.314
8407.01 957.757 960.212 855.651 883.534
8409.71 985.406 995.418 938.916 898.365
8412.42 1043.09 999.556 900.528 905.37
8415.12 970.171 1001.32 876.665 876.728
8417.83 990.685 956.103 852.991 874.178
8420.53 907.453 938.443 892.877 881.607
8423.24 917.191 948.971 898.954 903.795
8425.94 1022.27 980.525 919.555 939.883
8428.64 1002.12 988.219 1001.14 939.738
8431.35 940.272 975.35 898.52 972.492
8434.05 983.663 952.159 1017.82 946.38
8436.75 932.542 945.945 922.802 928.437
8439.45 921.629 938.323 844.691 879.478
8442.16 960.799 937.013 870.943 870.303
8444.86 928.61 965.427 895.276 866.68
8447.56 1006.87 970.593 833.822 862.683
8450.26 976.295 996.752 858.951 866.504
8452.96 1007.09 987.314 906.737 860.501
8455.66 978.558 991.683 815.814 880.672
8458.37 989.403 1013.25 919.466 877.889
8461.07 1071.8 1029.77 898.388 883.537
8463.77 1028.1 1020.66 832.757 839.031
8466.47 962.094 983.803 785.948 810.44
8469.17 961.216 955.939 812.614 821.642
8471.87 944.506 974.584 866.365 850.066
8474.57 1018.03 976.846 871.22 871.851
8477.26 968 991.137 877.967 879.144
8479.96 987.382 977.705 888.246 871.194
8482.66 977.734 1000.65 847.368 878.971
8485.36 1036.83 1001.67 901.298 872.282
8488.06 990.455 1020.32 868.179 894.981
8490.76 1033.67 989.027 915.466 873.718
8493.46 942.952 953.861 837.51 849.709
8496.15 884.958 892.082 796.15 783.333
8498.85 848.335 879.198 716.338 750.496
8501.55 904.3 894.448 738.999 744.444
8504.25 930.71 944.936 777.995 775.874
8506.94 999.8 976.445 810.628 828.742
8509.64 998.824 973.673 897.602 843.24
8512.34 922.396 952.268 821.49 815.49
8515.03 935.582 959.841 727.379 788.69
8517.73 1021.54 981.782 817.202 788.786
8520.42 988.22 992.178 821.776 817.544
8523.12 966.768 995.221 813.653 832.351
8525.81 1030.67 986.786 861.623 826.798
8528.51 962.916 985.565 805.119 820.7
8531.2 963.103 953.566 795.359 795.735
8533.9 934.68 912.68 786.729 776.157
8536.59 840.258 871.837 746.383 741.463
8539.29 840.574 812.677 691.277 687.979
8541.98 757.199 794.433 626.277 638.601
8544.67 785.526 810.868 598.251 639.908
8547.37 889.879 868.342 695.197 689.728
8550.06 929.623 926.366 775.736 768.447
8552.75 959.596 965.365 834.406 807.344
8555.45 1006.88 982.314 811.891 814.282
8558.14 980.469 1003.08 796.548 802.764
8560.83 1021.89 1017.03 799.853 808.963
8563.52 1048.73 1014.62 830.489 810.35
8566.21 973.247 1021.5 800.707 827.032
8568.91 1042.53 1002.71 849.9 821.098
8571.6 992.346 1005.67 812.686 829.605
8574.29 982.14 1002.11 826.228 814.359
8576.98 1031.85 1016.18 804.162 820.551
8579.67 1034.55 1027.68 831.263 827.024
8582.36 1016.62 1011.06 845.646 829.356
8585.05 981.999 1017.38 811.159 818.289
8587.74 1053.53 1022.34 798.061 815.351
8590.43 1031.48 1043.37 836.834 823.831
8593.12 1045.09 1018.53 836.597 822.646
8595.81 979.003 1027.48 794.507 810.998
8598.5 1058.35 1015.77 801.888 799.326
8601.19 1009.95 1026.6 801.583 787.429
8603.87 1011.5 1004.4 758.815 775
8606.56 991.753 1005.41 764.601 779.308
8609.25 1012.96 1012.54 814.51 785.303
8611.94 1032.92 1025.03 776.799 804.46
8614.63 1029.2 1027.74 822.072 807.885
8617.31 1021.11 1036.94 824.783 815.241
8620 1060.51 1016.03 798.869 797.423
8622.69 966.457 1035.86 768.616 803.278
8625.37 1080.61 1020.71 842.349 796.162
8628.06 1015.07 1044.11 777.52 804.414
8630.75 1036.66 1043.47 793.372 786.169
8633.43 1078.68 1047.21 787.616 775.851
8636.12 1026.29 1067.22 746.563 788.077
8638.8 1096.68 1061.02 830.053 807.286
8641.49 1060.07 1058.09 845.243 818.65
8644.17 1017.5 1034.7 780.653 823.275
8646.86 1026.52 1040.76 843.928 794.821
8649.54 1078.26 1058.47 759.881 805.729
8652.23 1070.61 1056.69 813.379 777.415
8654.91 1021.21 1013.96 758.985 788.567
8657.6 950.053 950.306 793.337 743.039
8660.28 879.655 891.143 676.794 688.371
8662.96 843.722 870.484 594.981 651.612
8665.65 888.073 905.289 683.062 650.741
8668.33 984.072 962.707 674.179 701.939
8671.01 1015.98 995.459 748.578 719.588
8673.69 986.33 999.255 736.007 747.219
8676.38 995.458 1016.39 757.072 752.945
8679.06 1067.37 1023.61 765.754 743.492
8681.74 1008.01 1036.71 707.65 738.834
8684.42 1034.74 1032.57 743.097 731.418
8687.1 1054.95 1041.76 743.506 729.814
8689.78 1035.59 1045.37 702.84 719.625
8692.47 1045.58 1046.72 712.531 710.434
8695.15 1059.01 1055.87 715.932 713.999
8697.83 1063.01 1078.19 713.533 726.196
8700.51 1112.54 1077.49 749.122 744.182
8703.19 1056.93 1079.81 769.891 748.578
8705.87 1069.95 1079.63 726.721 742.304
8708.55 1112.02 1097.84 730.3 743.405
8711.23 1111.56 1103.81 773.195 750.349
8713.9 1087.85 1091.09 747.551 747.063
8716.58 1073.86 1072.34 720.442 722.819
8719.26 1055.32 1082 700.464 714.128
8721.94 1116.83 1087.92 721.478 717.332
8724.62 1091.6 1087.39 730.056 732.27
8727.3 1053.74 1093.65 745.278 733.088
8729.97 1135.6 1066.57 723.93 737.754
8732.65 1010.39 1073.17 744.055 724.822
8735.33 1073.53 1061.26 706.481 720.243
8738 1099.88 1073.73 710.193 688.269
8740.68 1047.79 1100.07 648.133 698.087
8743.36 1152.55 1090.62 735.935 701.661
8746.03 1071.51 1096.74 720.915 720.983
8748.71 1066.17 1063.97 706.099 709.622
8751.39 1054.23 1057.82 701.852 715.693
8754.06 1053.05 1038.97 739.128 707.255
8756.74 1009.63 1052.41 680.785 707.4
8759.41 1094.56 1044.85 702.287 705.543
8762.09 1030.37 1095.91 733.558 705.484
8764.76 1162.79 1089.5 680.607 664.37
8767.44 1075.34 1102.01 578.944 646.333
8770.11 1067.9 1073.24 679.449 664.304
8772.78 1076.49 1075.05 734.519 725.331
8775.46 1080.76 1085.6 762.023 742.235
8778.13 1099.56 1077.61 730.162 733.237
8780.8 1052.51 1074.6 707.524 685.907
8783.48 1071.73 1052.04 620.034 663.431
8786.15 1031.88 1043.58 662.735 658.034
8788.82 1027.13 1029.8 691.332 676.343
8791.49 1030.38 1018.76 674.961 661.02
8794.17 998.76 1030.45 616.767 640.757
8796.84 1062.22 1043.15 630.542 635.082
8799.51 1068.48 1081.19 657.936 654.083
8802.18 1112.87 1074.4 673.771 665.008
8804.85 1041.85 1061.07 663.316 653.754
8807.52 1028.49 1023.47 624.176 618.272
8810.19 1000.08 1036.41 567.325 610.869
8812.86 1080.65 1032.71 641.105 601.966
8815.53 1017.39 1053.96 597.468 624.035
8818.2 1063.84 1037.91 633.531 613.571
8820.87 1032.49 1060.76 609.714 634.694
8823.54 1085.93 1050.63 660.838 645.182
8826.21 1033.46 1048.44 664.993 635.074
8828.88 1025.94 1043.32 579.39 602.002
8831.55 1070.55 1029.13 561.622 599.123
8834.22 990.893 1048.68 656.358 629.454
8836.89 1084.59 1052.81 670.381 673.646
8839.55 1082.93 1084.68 694.197 673.653
8842.22 1086.52 1062.98 656.381 673.774
8844.89 1019.48 1063.66 670.745 673.67
8847.56 1084.97 1071.34 693.885 673.607
8850.22 1109.58 1104.03 656.191 657.632
8852.89 1117.56 1115.64 622.82 641.705
8855.56 1119.78 1094.29 646.104 623.29
8858.22 1045.52 1072.62 600.945 620.224
8860.89 1052.57 1025.64 613.622 614.662
8863.55 978.833 1025.24 629.418 615.409
8866.22 1044.31 1027.32 603.187 587.179
8868.89 1058.82 1041.9 528.931 554.42
8871.55 1022.58 1037.95 531.142 535.248
8874.22 1032.46 1045.58 545.673 548.735
8876.88 1081.71 1052.72 569.39 583.516
8879.54 1043.99 1044.18 635.484 609.573
8882.21 1006.85 1046.62 623.843 631.388
8884.87 1089.02 1061.2 634.836 582.781
8887.54 1087.73 1074.32 489.663 522.246
8890.2 1046.21 1058.24 442.239 468.25
8892.86 1040.77 1034.21 472.849 477.122
8895.53 1015.65 1025.79 516.278 540.606
8898.19 1020.94 1031.03 632.691 615.051
8900.85 1056.5 1048.06 696.183 656.791
8903.51 1066.75 1050.6 641.5 647.114
8906.18 1028.54 1036.14 603.658 573.384
8908.84 1013.14 1051.52 474.994 550.397
8911.5 1112.88 1075.05 572.538 557.053
8914.16 1099.13 1103.92 623.628 620.137
8916.82 1099.74 1077.46 664.245 636.082
8919.48 1033.53 1056.62 620.373 592.312
8922.14 1036.6 1020.57 492.318 535.644
8924.8 991.566 1008.45 494.241 481.723
8927.46 997.171 987.425 458.611 497.284
8930.12 973.537 1008.5 538.999 545.576
8932.78 1054.8 1007.6 639.12 588.521
8935.44 994.463 1019.34 587.443 583.858
8938.1 1008.76 1001.53 525.01 569.997
8940.76 1001.37 1005.34 597.538 567.556
8943.42 1005.89 995.918 580.12 548.806
8946.08 980.495 993.917 468.76 507.376
8948.74 995.367 983.243 473.248 463.99
8951.39 973.867 977.968 449.962 474.75
8954.05 964.669 964.659 501.039 497.888
8956.71 955.441 967.124 542.662 496.936
8959.37 981.262 978.195 447.109 474.74
8962.02 997.883 942.74 434.449 410.916
8964.68 849.075 904.468 351.191 415.868
8967.34 866.447 862.733 461.965 423.626
8969.99 872.676 858 457.722 462.911
8972.65 834.876 870.354 469.047 467.494
8975.31 903.512 887.902 475.713 466.8
8977.96 925.32 909.788 455.64 442.537
8980.62 900.533 910.792 396.257 431.864
8983.27 906.522 908.219 443.694 428.361
8985.93 917.6 894.496 445.131 440.651
8988.58 859.365 871.232 433.129 418.308
8991.24 836.73 816.003 376.665 380.461
8993.89 751.913 796.834 331.59 359.118
8996.54 801.858 786.49 369.099 373.814
8999.2 805.698 806.186 420.754 404.744
9001.85 811.003 807.549 424.379 378.414
9004.5 805.946 813.543 290.109 363.957
9007.16 823.682 795.868 377.384 340.31
9009.81 757.976 784.012 353.438 399.754
9012.46 770.377 771.298 468.439 392.416
9015.12 785.541 793.27 355.371 411.427
9017.77 823.891 807.508 410.47 393.464
9020.42 813.092 809.747 414.551 401.745
9023.07 792.258 827.121 380.213 380.965
9025.72 876.012 842.165 348.131 367.895
9028.37 858.226 850.155 375.341 364.188
9031.02 816.227 851.482 369.093 369.77
9033.67 879.992 871.801 364.875 376.211
9036.32 919.184 913.586 394.663 406.028
9038.97 941.584 935.399 458.546 418.669
9041.62 945.431 948.729 402.798 423.74
9044.27 959.172 936.423 409.876 420.018
9046.92 904.666 920.646 447.379 409.907
9049.57 898.101 916.953 372.466 396.301
9052.22 948.094 917.788 369.058 380.338
9054.87 907.171 922.237 399.489 376.189
9057.52 911.446 917.035 360.02 400.177
9060.17 932.489 914.264 441.021 409.746
9062.81 898.856 889.252 428.196 431.096
9065.46 836.412 861.482 424.072 413.496
9068.11 849.178 793.475 388.219 379.48
9070.76 694.837 674.361 326.15 310.358
9073.4 479.067 391.301 216.706 180.952
