wavelength spectrum_sum 3smoothed_sum spectrum_optimal 3smoothed_optimal
3517.13 151.991 116.508 122.911 97.8323
3520.05 197.534 208.032 170.586 177.162
3522.96 274.572 242.131 237.988 210.128
3525.88 254.287 268.192 221.811 233.228
3528.79 275.718 268.853 239.884 231.028
3531.7 276.555 278.668 231.388 240.75
3534.62 283.731 268.662 250.979 241.591
3537.53 245.7 274.793 242.405 249.135
3540.45 294.947 265.872 254.02 243.334
3543.36 256.967 270.352 233.576 237.157
3546.28 259.14 276.786 223.873 249.737
3549.19 314.249 286.705 291.762 261.642
3552.1 286.727 311.381 269.291 283.522
3555.02 333.166 317.121 289.513 296.194
3557.93 331.469 318.563 329.777 300.325
3560.85 291.055 312.514 281.685 301.208
3563.76 315.018 319.98 292.161 299.956
3566.67 353.866 347.551 326.02 319.178
3569.59 373.769 369.125 339.352 342.197
3572.5 379.74 363.085 361.219 342.608
3575.42 335.745 360.884 327.253 343.144
3578.33 367.166 348.965 340.959 328.549
3581.25 343.985 361.697 317.435 337.551
3584.16 373.941 368.81 354.26 349.394
3587.07 388.504 382.078 376.487 368.941
3589.99 383.789 386.585 376.076 374.259
3592.9 387.463 385.7 370.215 370.635
3595.82 385.848 388.847 365.615 367.986
3598.73 393.231 387.402 368.129 366.766
3601.65 383.127 380.091 366.553 354.023
3604.56 363.916 376.605 327.389 351.947
3607.47 382.771 388.058 361.9 367.285
3610.39 417.487 404.032 412.567 388.892
3613.3 411.839 419.042 392.21 412.221
3616.22 427.799 430.609 431.887 425.069
3619.13 452.188 444.569 451.109 438.308
3622.04 453.721 447.914 431.926 441.455
3624.96 437.835 452.138 441.329 441.301
3627.87 464.857 448.598 450.647 452.003
3630.79 443.103 462.68 464.032 461.431
3633.7 480.08 463.814 469.613 470.141
3636.61 468.26 473.991 476.778 478.392
3639.53 473.634 467.391 488.787 475.888
3642.44 460.279 470.563 462.1 472.843
3645.36 477.777 486.464 467.644 477.818
3648.27 521.336 499.579 503.711 488.667
3651.18 499.625 510.446 494.647 495.057
3654.1 510.376 512.291 486.815 498.906
3657.01 526.873 526.077 515.257 506.303
3659.93 540.982 539.41 516.837 525.544
3662.84 550.374 537.089 544.537 529.904
3665.75 519.912 528.89 528.338 523.558
3668.67 516.384 512.298 497.8 506.549
3671.58 500.599 531.677 493.51 520.471
3674.5 578.048 547.437 570.104 538.359
3677.41 563.665 557.107 551.463 546.328
3680.32 529.607 533.64 517.417 520.284
3683.24 507.647 532.254 491.971 524.229
3686.15 559.507 529.216 563.299 532.776
3689.07 520.495 563.92 543.058 562.648
3691.98 611.758 588.705 581.588 589.847
3694.89 633.861 611.292 644.894 604.499
3697.81 588.256 586.753 587.016 597.587
3700.72 538.142 557.724 560.851 562.783
3703.63 546.773 551.622 540.481 549.075
3706.55 569.95 559.125 545.892 557.223
3709.46 560.652 578.606 585.297 585.923
3712.38 605.217 607.603 626.58 625.077
3715.29 656.94 643.241 663.353 650.635
3718.2 667.566 662.493 661.971 666.954
3721.12 662.972 665.109 675.537 665.238
3724.03 664.789 640.777 658.205 645.903
3726.94 594.569 636.962 603.968 640.259
3729.86 651.529 627.986 658.604 630.947
3732.77 637.86 655.661 630.268 664.115
3735.69 677.594 671.972 703.472 684.426
3738.6 700.462 672.788 719.537 707.433
3741.51 640.308 758.191 699.29 830.818
3744.43 933.804 780.568 1073.63 854.784
3747.34 767.591 758.449 791.435 822.314
3750.25 573.951 860.17 601.88 903.96
3753.17 1238.97 851.771 1318.57 885.838
3756.08 742.394 876.589 737.068 908.692
3758.99 648.407 706.497 670.442 712.339
3761.91 728.69 692.246 729.506 700.005
3764.82 699.642 727.649 700.067 729.204
3767.74 754.615 729.695 758.039 737.556
3770.65 734.829 737.25 754.562 752.344
3773.56 722.306 742.375 744.432 761.403
3776.48 769.99 743.661 785.216 766.353
3779.39 738.686 748.137 769.409 766.115
3782.3 735.735 740.591 743.719 765.826
3785.22 747.353 741.93 784.349 764.828
3788.13 742.701 730.609 766.416 754.272
3791.04 701.773 742.111 712.05 753.218
3793.96 781.858 759.154 781.188 779.039
3796.87 793.832 781.106 843.879 812.833
3799.78 767.628 803.242 813.431 857.012
3802.7 848.266 804.234 913.727 851.201
3805.61 796.808 837.292 826.444 881.494
3808.52 866.802 835.206 904.311 870.052
3811.44 842.008 853.181 879.4 887.465
3814.35 850.735 851.219 878.684 879.886
3817.26 860.913 865.173 881.575 897.402
3820.18 883.871 867.386 931.946 896.085
3823.09 857.373 875.004 874.734 912.879
3826 883.768 874.174 931.958 899.955
3828.91 881.381 868.027 893.174 906.009
3831.83 838.931 855.009 892.893 895.096
3834.74 844.716 855.355 899.219 903.183
3837.65 882.418 866.154 917.438 907.045
3840.57 871.327 906.123 904.478 934.762
3843.48 964.625 929.137 982.371 953.154
3846.39 951.459 941.139 972.613 965.235
3849.31 907.333 947.844 940.723 975.184
3852.22 984.739 942.457 1012.22 978.021
3855.13 935.299 973.484 981.122 1005.42
3858.05 1000.41 961.075 1022.92 1003.52
3860.96 947.515 949.829 1006.53 986.931
3863.87 901.559 940.085 931.346 979.876
3866.78 971.182 933.007 1001.75 959.876
3869.7 926.28 923.553 946.531 950.892
3872.61 873.197 901.932 904.393 928.473
3875.52 906.319 901.804 934.496 924.915
3878.44 925.898 898.094 935.857 915.2
3881.35 862.067 904.27 875.248 923.449
3884.26 924.845 908.029 959.241 940.97
3887.17 937.176 936.612 988.421 984.624
3890.09 947.816 949.795 1006.21 993.786
3893 964.392 950.311 986.727 981.649
3895.91 938.727 967.246 952.011 995.731
3898.83 998.62 988.909 1048.45 1021.19
3901.74 1029.38 1028.2 1063.11 1072.17
3904.65 1056.6 1041.72 1104.96 1093.17
3907.56 1039.19 1030.41 1111.43 1093.38
3910.48 995.455 1039.61 1063.74 1098.92
3913.39 1084.2 1032.27 1121.57 1089.01
3916.3 1017.16 1066.47 1081.71 1118.12
3919.21 1098.05 1070.07 1151.07 1130.37
3922.13 1095 1089.69 1158.33 1152.63
3925.04 1076.03 1095.16 1148.48 1154.55
3927.95 1114.44 1079.26 1156.83 1136.82
3930.86 1047.3 1104.17 1105.14 1155.68
3933.78 1150.76 1103.64 1205.05 1171.14
3936.69 1112.85 1128.71 1203.23 1200.25
3939.6 1122.53 1110.16 1192.48 1188.02
3942.51 1095.11 1105.26 1168.36 1179.48
3945.43 1098.15 1084.99 1177.6 1155.7
3948.34 1061.71 1088.53 1121.13 1163.84
3951.25 1105.73 1098.02 1192.8 1172.6
3954.16 1126.62 1116.06 1203.88 1209.36
3957.07 1115.82 1113.6 1231.41 1208.38
3959.99 1098.37 1105.08 1189.85 1191.09
3962.9 1101.04 1105.44 1152.02 1169.2
3965.81 1116.91 1090.43 1165.72 1144.02
3968.72 1053.34 1080.6 1114.32 1146.54
3971.64 1071.55 1063.54 1159.57 1131.3
3974.55 1065.74 1067.31 1120.02 1130.99
3977.46 1064.63 1098.62 1113.38 1161.26
3980.37 1165.5 1101.38 1250.38 1162.08
3983.28 1074 1137.24 1122.47 1199.47
3986.2 1172.2 1132.41 1225.57 1198.54
3989.11 1151.03 1163.85 1247.58 1241.35
3992.02 1168.33 1151.35 1250.9 1239.14
3994.93 1134.68 1165.81 1218.95 1246.7
3997.84 1194.43 1169.35 1270.25 1262.98
4000.76 1178.94 1196.66 1299.75 1295.35
4003.67 1216.62 1200.88 1316.05 1300.98
4006.58 1207.09 1214.17 1287.16 1302.99
4009.49 1218.8 1223.2 1305.77 1322.79
4012.4 1243.7 1236.9 1375.45 1336.77
4015.31 1248.19 1259.58 1329.08 1356.07
4018.23 1286.86 1273.44 1363.68 1362.79
4021.14 1285.27 1212.23 1395.61 1401.24
4024.05 1064.55 1127.11 1444.44 1408.3
4026.96 1031.5 1040.14 1384.85 1405.04
4029.87 1024.36 1021.37 1385.82 1377.5
4032.78 1008.24 1017.32 1361.84 1375.72
4035.7 1019.35 1019.69 1379.5 1381.1
4038.61 1031.49 1002.93 1401.94 1371.33
4041.52 957.954 1021.96 1332.53 1397.85
4044.43 1076.44 1025.02 1459.08 1402.45
4047.34 1040.66 1043.26 1415.72 1413.52
4050.25 1012.67 1027.15 1365.77 1402.13
4053.17 1028.12 1033.51 1424.88 1409.86
4056.08 1059.74 1066.17 1438.92 1448.53
4058.99 1110.67 1050.74 1481.79 1414.36
4061.9 981.806 1041.22 1322.37 1411.21
4064.81 1031.2 1032.8 1429.46 1404.36
4067.72 1085.38 1069.6 1461.25 1457.08
4070.63 1092.22 1069.65 1480.54 1455.34
4073.54 1031.36 1026.14 1424.24 1405.07
4076.46 954.825 1009.04 1310.44 1375.66
4079.37 1040.92 997.972 1392.3 1354.2
4082.28 998.169 1028.64 1359.86 1393.77
4085.19 1046.82 1034.13 1429.16 1410.75
4088.1 1057.39 1030.39 1443.22 1410.94
4091.01 986.952 1031.77 1360.45 1413.08
4093.92 1050.96 1008.98 1435.57 1393.7
4096.83 989.03 1009.54 1385.09 1387.29
4099.74 988.637 978.041 1341.2 1343.39
4102.65 956.456 986.052 1303.87 1345.19
4105.57 1013.06 992.227 1390.49 1357.17
4108.48 1007.16 1003.7 1377.15 1372.35
4111.39 990.88 1007.7 1349.4 1366.25
4114.3 1025.07 1021.73 1372.2 1385.15
4117.21 1049.25 1039.52 1433.84 1411.07
4120.12 1044.24 1065.36 1427.17 1454.83
4123.03 1102.61 1071.03 1503.49 1449.7
4125.94 1066.25 1099.5 1418.44 1485.61
4128.85 1129.65 1107.29 1534.91 1486.63
4131.76 1125.97 1101.44 1506.53 1496.29
4134.67 1048.69 1104.37 1447.43 1498.11
4137.58 1138.45 1113.36 1540.37 1515.59
4140.49 1152.94 1151.5 1558.96 1561.14
4143.4 1163.1 1156.76 1584.08 1564.96
4146.32 1154.25 1166.25 1551.86 1575.01
4149.23 1181.39 1180.43 1589.1 1583.92
4152.14 1205.66 1198.82 1610.81 1609.94
4155.05 1209.41 1188.76 1629.91 1598.35
4157.96 1151.22 1193.29 1554.32 1610.22
4160.87 1219.23 1193.56 1646.43 1616.71
4163.78 1210.23 1214.06 1649.38 1646.5
4166.69 1212.71 1209.87 1643.7 1637.99
4169.6 1206.66 1213.09 1620.88 1642.57
4172.51 1219.9 1231.02 1663.12 1656.99
4175.42 1266.52 1231.8 1686.98 1658.68
4178.33 1208.99 1225.33 1625.94 1650.58
4181.24 1200.48 1205.83 1638.8 1636.54
4184.15 1208.01 1210.17 1644.89 1636.4
4187.06 1222.03 1234.67 1625.5 1662.74
4189.97 1273.97 1261.47 1717.84 1694.52
4192.88 1288.42 1271.36 1740.22 1709.31
4195.79 1251.7 1275.07 1669.86 1710.96
4198.7 1285.1 1281.37 1722.8 1712.32
4201.61 1307.31 1283.56 1744.31 1731
4204.52 1258.26 1280.43 1725.89 1732.83
4207.43 1275.71 1255.93 1728.28 1709.21
4210.34 1233.8 1252.04 1673.47 1697.34
4213.25 1246.61 1260.22 1690.27 1715.88
4216.16 1300.25 1272.59 1783.92 1733.15
4219.07 1270.91 1289.98 1725.28 1760.23
4221.98 1298.79 1267.2 1771.5 1723.46
4224.89 1231.89 1277.4 1673.61 1732.66
4227.79 1301.52 1275.39 1752.86 1722.18
4230.7 1292.77 1300.2 1740.07 1751.15
4233.61 1306.31 1307.63 1760.52 1760.52
4236.52 1323.81 1293.63 1780.97 1741.17
4239.43 1250.77 1278.83 1682.03 1720.29
4242.34 1261.91 1254.21 1697.86 1693.19
4245.25 1249.95 1259.07 1699.69 1700.33
4248.16 1265.37 1286.47 1703.44 1734.75
4251.07 1344.1 1309.85 1801.12 1766.92
4253.98 1320.07 1326.05 1796.21 1790.17
4256.89 1313.98 1327.82 1773.19 1793.95
4259.8 1349.41 1328.81 1812.46 1792.15
4262.71 1323.04 1331.63 1790.82 1794.9
4265.61 1322.45 1334.83 1781.43 1799.57
4268.52 1359.01 1316.69 1826.46 1781.17
4271.43 1268.61 1339.99 1735.63 1810.59
4274.34 1392.33 1336.38 1869.69 1812.99
4277.25 1348.19 1370.51 1833.65 1850.34
4280.16 1371.01 1362.48 1847.68 1836.47
4283.07 1368.23 1379.13 1828.08 1849.39
4285.98 1398.15 1377.1 1872.39 1844.19
4288.89 1364.93 1380.21 1832.09 1849.7
4291.79 1377.56 1367.63 1844.61 1840.68
4294.7 1360.41 1366.66 1845.35 1845.93
4297.61 1362.02 1341.18 1847.83 1820.71
4300.52 1301.1 1360.91 1768.95 1836.23
4303.43 1419.61 1351.18 1891.9 1823.29
4306.34 1332.81 1369.31 1809.02 1838.64
4309.25 1355.5 1351.95 1815 1812.11
4312.15 1367.53 1358.2 1812.3 1808.31
4315.06 1351.56 1372.89 1797.64 1831.72
4317.97 1399.59 1359.66 1885.21 1825.97
4320.88 1327.84 1344.6 1795.06 1818.75
4323.79 1306.37 1311.52 1775.99 1778.58
4326.7 1300.35 1314.32 1764.68 1780.85
4329.6 1336.24 1301.87 1801.89 1754.81
4332.51 1269.01 1310.96 1697.86 1754.45
4335.42 1327.62 1262.71 1763.59 1694.49
4338.33 1191.49 1248.77 1622.02 1679.94
4341.24 1227.2 1183.12 1654.22 1608.08
4344.14 1130.67 1207.64 1547.99 1631.88
4347.05 1265.06 1219.24 1693.43 1645.86
4349.96 1261.98 1278.76 1696.17 1709.82
4352.87 1309.25 1279.59 1739.87 1719.6
4355.78 1267.55 1298.11 1722.76 1748.47
4358.68 1317.52 1295.82 1782.79 1751.47
4361.59 1302.38 1312.5 1748.88 1770.12
4364.5 1317.61 1336.9 1778.7 1797.47
4367.41 1390.71 1365.49 1864.85 1836.92
4370.31 1388.16 1379.11 1867.21 1862.2
4373.22 1358.48 1379.28 1854.54 1867.25
4376.13 1391.21 1400.56 1879.99 1901.54
4379.04 1451.98 1422.02 1970.09 1929.02
4381.94 1422.86 1428.12 1936.98 1935.78
4384.85 1409.53 1414.87 1900.26 1913.91
4387.76 1412.2 1414.28 1904.49 1908.46
4390.67 1421.1 1413.39 1920.65 1895.12
4393.57 1406.89 1414.81 1860.22 1897.48
4396.48 1416.45 1392.81 1911.58 1872.57
4399.39 1355.09 1398.44 1845.91 1893.06
4402.3 1423.79 1417.32 1921.68 1917.36
4405.2 1473.09 1446.66 1984.5 1951.85
4408.11 1443.11 1488.47 1949.37 2009.69
4411.02 1549.19 1470.54 2095.21 1988.39
4413.92 1419.31 1462.5 1920.59 1978.93
4416.83 1419 1408.33 1920.98 1907.77
4419.74 1386.67 1415.92 1881.74 1919.71
4422.64 1442.08 1415.85 1956.42 1920.09
4425.55 1418.8 1440.16 1922.1 1954.82
4428.46 1459.6 1454.29 1985.94 1961.02
4431.36 1484.46 1458.93 1975.03 1961.12
4434.27 1432.74 1434.61 1922.39 1924.3
4437.18 1386.63 1435.52 1875.48 1941.84
4440.08 1487.18 1443.44 2027.64 1960.62
4442.99 1456.52 1473.88 1978.73 1995.33
4445.9 1477.93 1475.63 1979.62 1995.06
4448.8 1492.43 1439.2 2026.82 1944.59
4451.71 1347.25 1437.37 1827.33 1949.7
4454.62 1472.44 1422.73 1994.96 1927.23
4457.52 1448.5 1465.13 1959.39 1978.98
4460.43 1474.44 1458.3 1982.6 1970.69
4463.34 1451.96 1475.76 1970.09 1993.23
4466.24 1500.87 1456.11 2027 1969.28
4469.15 1415.51 1483.67 1910.75 1997.71
4472.05 1534.63 1481.54 2055.37 1996.76
4474.96 1494.47 1503.43 2024.16 2029.12
4477.87 1481.2 1494.32 2007.82 2018.66
4480.77 1507.28 1515.56 2024 2043.36
4483.68 1558.21 1510.37 2098.25 2033.39
4486.58 1465.62 1484.99 1977.91 1998.22
4489.49 1431.13 1467.48 1918.5 1982.62
4492.39 1505.67 1494.91 2051.44 2028.57
4495.3 1547.91 1469.95 2115.78 2010.78
4498.21 1356.25 1460.64 1865.12 2001.48
4501.11 1477.75 1453.03 2023.53 1976.69
4504.02 1525.08 1499.39 2041.41 2025.4
4506.92 1495.33 1498.42 2011.27 2020.59
4509.83 1474.83 1491.28 2009.08 2018.04
4512.73 1503.68 1474.77 2033.77 1994.46
4515.64 1445.81 1484.14 1940.54 1997.21
4518.54 1502.94 1503.26 2017.33 2022.21
4521.45 1561.02 1507.37 2108.77 2035.99
4524.35 1458.15 1505.79 1981.88 2043.48
4527.26 1498.21 1487.89 2039.8 2019.53
4530.16 1507.32 1498.84 2036.92 2034.71
4533.07 1490.98 1500.2 2027.41 2035.66
4535.97 1502.3 1492.25 2042.64 2028.94
4538.88 1483.48 1505.56 2016.77 2044.73
4541.78 1530.91 1518.31 2074.77 2052.66
4544.69 1540.54 1525.77 2066.44 2055.94
4547.59 1505.85 1546.18 2026.61 2080.4
4550.5 1592.16 1549.3 2148.15 2083.31
4553.4 1549.89 1526.67 2075.18 2056.37
4556.31 1437.96 1483.79 1945.8 2001.62
4559.21 1463.5 1459.42 1983.88 1983.52
4562.12 1476.79 1497.83 2020.9 2029.64
4565.02 1553.2 1509.78 2084.15 2044.31
4567.93 1499.35 1516.68 2027.89 2040.97
4570.83 1497.47 1513.97 2010.89 2047.4
4573.74 1545.08 1516.28 2103.44 2055.1
4576.64 1506.29 1521.7 2050.97 2062.75
4579.54 1513.72 1488.14 2033.84 2008.59
4582.45 1444.4 1513.22 1940.97 2034.73
4585.35 1581.55 1508.31 2129.4 2017.54
4588.26 1498.99 1535.47 1982.25 2055.97
4591.16 1525.87 1526.39 2056.28 2042.25
4594.06 1554.3 1538.46 2088.21 2069.24
4596.97 1535.22 1542.42 2063.23 2073.45
4599.87 1537.75 1527.97 2068.92 2053.73
4602.78 1510.94 1533.57 2029.04 2071.17
4605.68 1552.01 1531.87 2115.54 2064.46
4608.58 1532.66 1564.4 2048.78 2106.57
4611.49 1608.53 1556.07 2155.4 2097.25
4614.39 1527.03 1556.69 2087.58 2107.43
4617.29 1534.49 1550.87 2079.32 2105.11
4620.2 1591.09 1566.97 2148.42 2118.97
4623.1 1575.33 1545.89 2129.18 2090.28
4626 1471.26 1533.6 1993.25 2072.29
4628.91 1554.22 1524.42 2094.44 2063.03
4631.81 1547.78 1511.73 2101.4 2045.4
4634.71 1433.19 1538.11 1940.35 2081.61
4637.62 1633.35 1545.7 2203.07 2083.13
4640.52 1570.55 1592.05 2105.96 2133.76
4643.42 1572.25 1557.67 2092.27 2092.21
4646.33 1530.22 1582.14 2078.41 2129.42
4649.23 1643.95 1592.76 2217.57 2154.1
4652.13 1604.13 1600.28 2166.32 2158.12
4655.04 1552.77 1580.01 2090.46 2130.24
4657.94 1583.13 1594.29 2133.92 2148.94
4660.84 1646.98 1606.44 2222.44 2164.67
4663.74 1589.2 1597.31 2137.66 2164.88
4666.65 1555.76 1573.93 2134.54 2138.39
4669.55 1576.82 1582.4 2142.97 2157.09
4672.45 1614.61 1593.9 2193.74 2159.87
4675.35 1590.27 1603.13 2142.9 2164.06
4678.26 1604.5 1601.36 2155.54 2162.15
4681.16 1609.3 1579.83 2188.01 2134.2
4684.06 1525.7 1560.46 2059.06 2117.3
4686.96 1546.38 1549.54 2104.83 2102.89
4689.87 1576.55 1570.91 2144.77 2133.86
4692.77 1589.82 1566.76 2151.97 2121.69
4695.67 1533.9 1567.31 2068.34 2118.14
4698.57 1578.22 1568.49 2134.12 2124.05
4701.47 1593.35 1599.79 2169.69 2164.87
4704.38 1627.82 1593.66 2190.81 2163.84
4707.28 1559.8 1608.77 2131.02 2171.88
4710.18 1638.68 1581.58 2193.81 2140.32
4713.08 1546.25 1602.19 2096.15 2154.67
4715.98 1621.65 1581.37 2174.05 2136.8
4718.88 1576.21 1607.52 2140.2 2172.87
4721.79 1624.7 1589.08 2204.37 2162.56
4724.69 1566.33 1593.6 2143.1 2166.68
4727.59 1589.77 1566.85 2152.56 2122.28
4730.49 1544.43 1585.75 2071.17 2137.86
4733.39 1623.05 1586.88 2189.85 2139.83
4736.29 1593.16 1587.96 2158.47 2150.28
4739.19 1547.66 1567.38 2102.53 2122.31
4742.09 1561.31 1548.24 2105.92 2091.17
4745 1535.76 1546.82 2065.06 2084.88
4747.9 1543.38 1535.37 2083.66 2079.21
4750.8 1526.98 1520.99 2088.91 2071.41
4753.7 1492.62 1537.12 2041.67 2100.31
4756.6 1591.76 1553.73 2170.35 2112.68
4759.5 1576.8 1571.68 2126.03 2134.34
4762.4 1546.48 1580.35 2106.65 2142.41
4765.3 1617.78 1571.58 2194.56 2127.51
4768.2 1550.47 1596 2081.31 2157.7
4771.1 1619.76 1574.93 2197.24 2123.38
4774 1554.57 1559.69 2091.59 2116.73
4776.9 1504.74 1537.9 2061.37 2091.97
4779.8 1554.38 1530.93 2122.96 2081.94
4782.7 1533.67 1563.22 2061.49 2122.2
4785.6 1601.61 1549.7 2182.16 2106.29
4788.5 1513.81 1543.83 2075.22 2100.97
4791.4 1516.07 1521.69 2045.53 2071.05
4794.31 1535.17 1525.47 2092.41 2070.95
4797.2 1525.17 1527.92 2074.92 2079.5
4800.1 1523.4 1505.38 2071.17 2043.24
4803 1467.57 1496.15 1983.62 2019.18
4805.9 1497.5 1485.61 2002.74 2010.66
4808.8 1491.78 1504.37 2045.61 2042.46
4811.7 1523.84 1501.79 2079.03 2046.75
4814.6 1489.74 1528.35 2015.61 2065.53
4817.5 1571.48 1526.66 2101.96 2052.47
4820.4 1518.77 1535.22 2039.85 2063.44
4823.3 1515.42 1550.9 2048.5 2078.61
4826.2 1618.52 1579.54 2147.47 2108.85
4829.1 1604.68 1568.72 2130.56 2087.72
4832 1482.97 1516.68 1985.13 2033.99
4834.9 1462.41 1469.74 1986.27 1986.99
4837.8 1463.84 1476.72 1989.58 2007.6
4840.7 1503.93 1479.26 2046.96 2005.89
4843.6 1470 1474.69 1981.14 1998.21
4846.5 1450.15 1452.53 1966.54 1971.14
4849.39 1437.45 1422.7 1965.73 1935.07
4852.29 1380.51 1390.68 1872.93 1889.87
4855.19 1354.09 1345.54 1830.96 1828.11
4858.09 1302.01 1301.12 1780.45 1769.43
4860.99 1247.25 1263.83 1696.87 1718.18
4863.89 1242.22 1272.45 1677.23 1722.97
4866.79 1327.9 1313.4 1794.82 1767.56
4869.68 1370.08 1357.5 1830.64 1822.24
4872.58 1374.51 1385.71 1841.26 1849.52
4875.48 1412.55 1386.74 1876.66 1857.38
4878.38 1373.16 1416.88 1854.23 1900.53
4881.28 1464.94 1424.68 1970.71 1925.32
4884.18 1435.94 1430.32 1951.02 1932.82
4887.07 1390.09 1431.98 1876.72 1932.59
4889.97 1469.92 1412.37 1970.04 1907.86
4892.87 1377.11 1446.38 1876.83 1943.72
4895.77 1492.12 1448.42 1984.28 1952.45
4898.66 1476.04 1492.05 1996.24 2001.24
4901.56 1507.98 1480.69 2023.22 1992.99
4904.46 1458.03 1495.26 1959.5 2010.3
4907.36 1519.78 1480.66 2048.19 1992.53
4910.25 1464.18 1503.36 1969.9 2018.08
4913.15 1526.13 1499.5 2036.14 2016.51
4916.05 1508.19 1512.27 2043.49 2034.8
4918.95 1502.5 1526.08 2024.75 2051.9
4921.84 1567.57 1512.51 2087.45 2017.14
4924.74 1467.47 1514.65 1939.21 2022.5
4927.64 1508.9 1504.18 2040.84 2004.47
4930.54 1536.17 1523.3 2033.37 2036.51
4933.43 1524.82 1530.8 2035.32 2036.91
4936.33 1531.41 1537.65 2042.04 2042.71
4939.23 1556.72 1542.58 2050.77 2038.96
4942.12 1539.61 1544.4 2024.09 2035.88
4945.02 1536.86 1559.16 2032.8 2075.24
4947.92 1601 1567.68 2168.85 2108.39
4950.81 1565.18 1559.96 2123.54 2110.57
4953.71 1513.7 1526.9 2039.34 2053.38
4956.61 1501.83 1515.95 1997.26 2026.38
4959.5 1532.31 1530.16 2042.53 2050.83
4962.4 1556.33 1528.79 2112.69 2049.98
4965.29 1497.74 1503.07 1994.71 2004.63
4968.19 1455.14 1484.86 1906.48 1975.09
4971.09 1501.7 1509.9 2024.09 2006.8
4973.98 1572.86 1561.54 2089.84 2077.37
4976.88 1610.04 1579.78 2118.2 2097.24
4979.77 1556.44 1567.51 2083.67 2085.01
4982.67 1536.03 1561.05 2053.16 2090.92
4985.57 1590.68 1556.43 2135.93 2078.86
4988.46 1542.57 1566.2 2047.49 2092.47
4991.36 1565.35 1560.38 2093.98 2069.01
4994.25 1573.21 1591.38 2065.57 2112.61
4997.15 1635.57 1590.63 2178.27 2105.71
5000.04 1563.12 1593.25 2073.29 2119.71
5002.94 1581.07 1541.23 2107.56 2070.6
5005.83 1479.51 1539.46 2030.94 2060.72
5008.73 1557.81 1551.22 2043.66 2068.71
5011.62 1616.33 1586.79 2131.54 2101.74
5014.52 1586.24 1589.91 2130.01 2112.92
5017.41 1567.15 1586.56 2077.2 2114.11
5020.31 1606.28 1583.21 2135.13 2106.31
5023.2 1576.22 1584.74 2106.6 2103.95
5026.1 1571.72 1549.55 2070.13 2058.83
5028.99 1500.72 1537.61 1999.77 2039.22
5031.89 1540.39 1543.66 2047.76 2060.42
5034.78 1589.86 1539.02 2133.73 2063.53
5037.68 1486.8 1552.59 2009.11 2077.4
5040.57 1581.12 1538.42 2089.35 2055.35
5043.46 1547.34 1563.51 2067.57 2079.04
5046.36 1562.07 1565.66 2080.2 2086.09
5049.25 1587.57 1590.85 2110.5 2113.92
5052.15 1622.89 1565.81 2151.06 2070.85
5055.04 1486.96 1590.27 1950.98 2097.59
5057.93 1660.96 1568.02 2190.72 2068.62
5060.83 1556.14 1593.89 2064.15 2098.46
5063.72 1564.56 1570.92 2040.52 2074.11
5066.62 1592.06 1573.63 2117.68 2082.84
5069.51 1564.26 1597.19 2090.33 2126.13
5072.4 1635.26 1584.06 2170.39 2110.31
5075.3 1552.67 1579.3 2070.21 2094.26
5078.19 1549.98 1581.07 2042.19 2096.46
5081.08 1640.56 1561.15 2176.98 2070.51
5083.98 1492.92 1573.84 1992.36 2089.97
5086.87 1588.05 1554.75 2100.58 2073.42
5089.76 1583.3 1559.07 2127.32 2096.83
5092.65 1505.85 1541.7 2062.59 2091.09
5095.55 1535.93 1544.41 2083.37 2079.09
5098.44 1591.43 1551.77 2091.31 2064.84
5101.33 1527.94 1545.87 2019.83 2039.5
5104.23 1518.24 1519.75 2007.36 2017.18
5107.12 1513.07 1541.79 2024.35 2048.85
5110.01 1594.05 1533.04 2114.85 2037.8
5112.9 1492 1534.32 1974.19 2052.83
5115.8 1516.91 1534.31 2069.46 2058.12
5118.69 1594.02 1527.61 2130.7 2058.95
5121.58 1471.91 1524.64 1976.69 2039.08
5124.47 1507.99 1518.12 2009.84 2025.2
5127.36 1574.45 1547.85 2089.06 2050.76
5130.26 1561.12 1534.82 2053.38 2036.95
5133.15 1468.9 1515.3 1968.4 2015.11
5136.04 1515.89 1505.23 2023.55 2010.42
5138.93 1530.89 1522.64 2039.32 2023.9
5141.82 1521.13 1531.28 2008.83 2037.85
5144.72 1541.81 1501.19 2065.39 1995.91
5147.61 1440.61 1482.02 1913.51 1971.32
5150.5 1463.63 1499.19 1935.06 1980.84
5153.39 1593.34 1524.13 2093.96 2017.13
5156.28 1515.42 1553.16 2022.36 2055.34
5159.17 1550.71 1521.51 2049.7 2025.14
5162.06 1498.4 1557.31 2003.36 2063.9
5164.95 1622.83 1535.17 2138.64 2043.05
5167.85 1484.27 1527.32 1987.14 2028.55
5170.74 1474.86 1497.52 1959.85 1993.9
5173.63 1533.44 1511.8 2034.71 2014.09
5176.52 1527.1 1521.85 2047.7 2033.96
5179.41 1505.01 1519.12 2019.47 2034.63
5182.3 1525.24 1517.94 2036.74 2025.55
5185.19 1523.59 1519.11 2020.45 2025
5188.08 1508.49 1512.69 2017.82 2010.48
5190.97 1506 1497.11 1993.16 1983.6
5193.86 1476.84 1503.56 1939.81 1980.28
5196.75 1527.86 1508 2007.86 1989.37
5199.64 1519.32 1512.86 2020.45 2008.58
5202.53 1491.42 1510.93 1997.44 2017.57
5205.42 1522.05 1510.83 2034.82 2015.71
5208.31 1519.03 1505.25 2014.86 1997.76
5211.2 1474.66 1516.53 1943.61 2002.07
5214.09 1555.89 1497.08 2047.75 1978.18
5216.98 1460.71 1519.47 1943.18 2012.69
5219.87 1541.8 1496.07 2047.15 1987.37
5222.76 1485.69 1523.92 1971.78 2026.45
5225.65 1544.26 1507.7 2060.42 2005.84
5228.54 1493.15 1516.24 1985.33 2017.8
5231.43 1511.31 1499.45 2007.66 1992.43
5234.32 1493.88 1483.34 1984.31 1975.74
5237.2 1444.82 1489.12 1935.26 1973.55
5240.09 1528.66 1503.36 2001.08 1993.71
5242.98 1536.61 1511.98 2044.79 2009.2
5245.87 1470.66 1496.96 1981.74 1996.15
5248.76 1483.6 1456.83 1961.91 1945.51
5251.65 1416.24 1460.4 1892.88 1931.62
5254.54 1481.37 1451.43 1940.06 1930.01
5257.42 1456.67 1463.62 1957.09 1949.7
5260.31 1452.83 1346.81 1951.94 1965.25
5263.2 1130.92 1245.67 1986.71 1977.3
5266.09 1153.27 1135.38 1993.24 1982.8
5268.98 1121.95 1122.05 1968.44 1974.12
5271.87 1090.94 1108.71 1960.67 1955.3
5274.75 1113.24 1109.04 1936.8 1956.6
5277.64 1122.95 1135.67 1972.31 1973.25
5280.53 1170.81 1132.33 2010.65 1970.06
5283.42 1103.25 1123.45 1927.21 1949.13
5286.3 1096.29 1088.63 1909.54 1902.88
5289.19 1066.36 1087.68 1871.89 1938.25
5292.08 1100.39 1086.74 2033.32 1936.33
5294.97 1093.48 1095.93 1903.77 1947.66
5297.85 1093.92 1100.24 1905.89 1937.15
5300.74 1113.33 1108.68 2001.78 1941.85
5303.63 1118.78 1130.52 1917.88 1955.03
5306.52 1159.46 1128.99 1945.42 1906.7
5309.4 1108.72 1137.81 1856.8 1924.72
5312.29 1145.24 1100.28 1971.94 1929.45
5315.18 1046.87 1096.73 1959.62 1936.33
5318.06 1098.07 1086.84 1877.43 1913.31
5320.95 1115.58 1094.81 1902.86 1876.85
5323.84 1070.79 1095.69 1850.25 1874.54
5326.72 1100.72 1103.44 1870.5 1880.8
5329.61 1138.81 1120.87 1921.64 1907.33
5332.49 1123.09 1117.78 1929.87 1896.98
5335.38 1091.45 1093 1839.42 1867.04
5338.27 1064.48 1044.29 1831.84 1832.91
5341.15 976.947 1055.49 1827.47 1856.69
5344.04 1125.03 1053.84 1910.76 1888.67
5346.92 1059.53 1092.86 1927.78 1895.61
5349.81 1094.02 1103.55 1848.29 1921.73
5352.7 1157.1 1128.61 1989.11 1917.78
5355.58 1134.7 1136.08 1915.94 1929.15
5358.47 1116.46 1108.31 1882.41 1901.64
5361.35 1073.78 1121.34 1906.58 1915.56
5364.24 1173.8 1115.42 1957.71 1907.28
5367.12 1098.68 1141.21 1857.55 1906.51
5370.01 1151.15 1115.08 1904.27 1875.34
5372.89 1095.39 1114.38 1864.19 1906.64
5375.78 1096.59 1097.19 1951.45 1884.26
5378.66 1099.58 1118.5 1837.15 1911.6
5381.55 1159.32 1135.51 1946.21 1909.38
5384.43 1147.62 1139.05 1944.79 1934.17
5387.32 1110.21 1131.92 1911.52 1918.53
5390.2 1137.92 1127.91 1899.27 1900.59
5393.08 1135.6 1135.41 1890.97 1870.41
5395.97 1132.71 1117.34 1821 1865.67
5398.85 1083.7 1073.62 1885.03 1835.8
5401.74 1004.44 1065.36 1801.36 1857.96
5404.62 1107.93 1068.67 1887.49 1836.42
5407.51 1093.64 1101.47 1820.42 1853.95
5410.39 1102.84 1110.75 1853.93 1871.14
5413.27 1135.78 1132.11 1939.07 1900.96
5416.16 1157.72 1155.95 1909.88 1932.21
5419.04 1174.35 1140.91 1947.7 1888.28
5421.92 1090.67 1113.66 1807.26 1846.98
5424.81 1075.97 1116.71 1785.98 1830.1
5427.69 1183.49 1131.89 1897.05 1849.25
5430.57 1136.21 1141.29 1864.7 1861.72
5433.46 1104.17 1119.9 1823.41 1849.11
5436.34 1119.34 1096.91 1859.21 1844.87
5439.22 1067.24 1093.07 1851.97 1863.67
5442.1 1092.63 1087.99 1879.82 1857.17
5444.99 1104.12 1118.42 1839.73 1865.54
5447.87 1158.5 1143.18 1877.07 1863.42
5450.75 1166.92 1148.81 1873.45 1867.38
5453.64 1121.03 1141.32 1851.61 1858.48
5456.52 1136.03 1094.26 1850.39 1835.84
5459.4 1025.74 1099.01 1805.51 1839.62
5462.28 1135.26 1102.99 1862.97 1841.57
5465.16 1147.96 1131.98 1856.25 1840.94
5468.05 1112.72 1128.98 1803.6 1819.23
5470.93 1126.27 1124.58 1797.84 1810.97
5473.81 1134.75 1102.3 1831.47 1812.77
5476.69 1045.88 1081.67 1809 1829.01
5479.57 1064.38 1093.78 1846.56 1846.2
5482.45 1171.08 1106.04 1883.05 1844.5
5485.34 1082.66 1110.69 1803.9 1853.49
5488.22 1078.33 1104.88 1873.52 1843.97
5491.1 1153.65 1136.12 1854.49 1871.71
5493.98 1176.39 1152.69 1887.11 1854.19
5496.86 1128.04 1143.39 1820.95 1838.96
5499.74 1125.73 1135.36 1808.8 1825.42
5502.62 1152.33 1119.47 1846.51 1809.05
5505.5 1080.36 1144.17 1771.84 1833.55
5508.38 1199.81 1143.95 1882.31 1811.97
5511.26 1151.67 1164.34 1781.77 1841.68
5514.14 1141.54 1127.61 1860.96 1796.62
5517.02 1089.63 1139.21 1747.13 1825.27
5519.91 1186.44 1099.36 1867.73 1791.77
5522.79 1022 1066.29 1760.45 1790.71
5525.67 990.423 1057.74 1743.95 1778.63
5528.55 1160.8 1110.27 1831.5 1807.65
5531.43 1179.57 1141.5 1847.51 1799.59
5534.3 1084.11 1126.23 1719.76 1778.94
5537.18 1115.01 1094.19 1769.55 1793.9
5540.06 1083.45 1133.92 1892.38 1845.04
5542.94 1203.3 1126.12 1873.19 1824.47
5545.82 1091.63 1100.53 1707.84 1776.66
5548.7 1006.67 1064.61 1748.94 1724.25
5551.58 1095.54 1071.23 1715.97 1737.5
5554.46 1111.48 1111.96 1747.57 1751.97
5557.34 1128.85 1109.97 1792.36 1779.39
5560.22 1089.58 1079.89 1798.25 1786.4
5563.1 1021.23 1049.99 1768.6 1784.64
5565.98 1039.15 1110.63 1787.07 1841.26
5568.85 1271.49 1132.48 1968.11 1787.07
5571.73 1086.8 1184.17 1606.04 1799.28
5574.61 1194.21 1117.85 1823.68 1705.3
5577.49 1072.54 1129.93 1686.18 1805.38
5580.37 1123.06 1121.91 1906.29 1799.93
5583.25 1170.12 1150.79 1807.33 1868.74
5586.12 1159.2 1071.25 1892.61 1835.62
5589 884.437 1025.73 1806.92 1796.01
5591.88 1033.57 968.149 1688.5 1767.78
5594.76 986.44 1045.59 1807.91 1740.11
5597.64 1116.75 1080.88 1723.9 1768.63
5600.51 1139.45 1121.73 1774.07 1728.7
5603.39 1108.99 1137.58 1688.13 1744.81
5606.27 1164.3 1111.93 1772.23 1718.66
5609.14 1062.51 1128.36 1695.63 1741.94
5612.02 1158.26 1121.25 1757.97 1734.89
5614.9 1142.99 1125.45 1751.06 1757.76
5617.78 1075.09 1107.6 1764.25 1731.53
5620.65 1104.73 1072.42 1679.28 1717.6
5623.53 1037.44 1087.71 1709.25 1714.91
5626.41 1120.96 1083.36 1756.19 1726.24
5629.28 1091.67 1112.7 1713.29 1726.82
5632.16 1125.48 1123.81 1710.98 1736.03
5635.03 1154.29 1104.81 1783.82 1707.38
5637.91 1034.67 1086.92 1627.33 1692.34
5640.79 1071.79 1067.46 1665.88 1664.3
5643.66 1095.9 1100.45 1699.7 1690.29
5646.54 1133.64 1077.43 1705.3 1705.13
5649.41 1002.75 1063.03 1710.4 1690.69
5652.29 1052.7 1053.25 1656.37 1681.02
5655.17 1104.29 1074.5 1676.29 1663.68
5658.04 1066.51 1102.84 1658.38 1668.9
5660.92 1137.72 1074.56 1672.03 1671.05
5663.79 1019.44 1112.87 1682.74 1719.69
5666.67 1181.44 1093.97 1804.31 1719.42
5669.54 1081.02 1097.08 1671.2 1712.19
5672.42 1028.77 1077.89 1661.04 1679.89
5675.29 1123.87 1079.89 1707.42 1675
5678.17 1087.04 1109.24 1656.55 1687.46
5681.04 1116.82 1099.26 1698.41 1668.18
5683.92 1093.92 1110.02 1649.58 1676.24
5686.79 1119.33 1104.89 1680.73 1658.36
5689.66 1101.41 1108.52 1644.76 1663.11
5692.54 1104.82 1092.55 1663.84 1654.61
5695.41 1071.44 1090.89 1655.24 1669.37
5698.29 1096.43 1076.44 1689.04 1658.87
5701.16 1061.47 1050.77 1632.35 1610.96
5704.03 994.411 1050.96 1511.49 1597.64
5706.91 1097 1062.44 1649.07 1600.67
5709.78 1095.92 1086.35 1641.45 1636.38
5712.66 1066.14 1069 1618.62 1643.78
5715.53 1044.92 1079.85 1671.28 1653.09
5718.4 1128.49 1080.06 1669.38 1634.72
5721.28 1066.77 1099.61 1563.49 1624.35
5724.15 1103.58 1082.48 1640.18 1597
5727.02 1077.09 1100.32 1587.34 1629.73
5729.89 1120.31 1096.86 1661.67 1631.02
5732.77 1093.18 1090.98 1644.06 1625.3
5735.64 1059.47 1067.71 1570.16 1576.92
5738.51 1050.5 1064.21 1516.53 1564.99
5741.38 1082.67 1043.59 1608.29 1572.57
5744.26 997.594 1046.14 1592.88 1603.51
5747.13 1058.15 1048.88 1609.35 1604.3
5750 1090.89 1073.68 1610.68 1596.99
5752.87 1072 1059.61 1570.94 1559.43
5755.75 1015.93 1049.41 1496.68 1583.65
5758.62 1060.3 1025.74 1683.34 1565.53
5761.49 1001 1045.86 1516.58 1600.96
5764.36 1076.29 991.599 1602.96 1522.57
5767.23 897.513 1011.08 1448.16 1558.28
5770.1 1059.44 1004.33 1623.72 1538.38
5772.97 1056.04 1073.1 1543.26 1593.51
5775.85 1103.82 1031.57 1613.56 1562.46
5778.72 934.857 1004.1 1530.58 1553.43
5781.59 973.635 959.257 1516.17 1533.73
5784.46 969.278 981.882 1554.45 1508.36
5787.33 1002.73 1011.04 1454.45 1522.79
5790.2 1061.1 1037.6 1559.47 1520.31
5793.07 1048.95 1036.84 1547 1539.41
5795.94 1000.45 995.808 1511.77 1516.01
5798.81 938.019 955.083 1489.26 1503.8
5801.68 926.781 958.393 1510.37 1486.31
5804.55 1010.38 972.143 1459.3 1466.78
5807.42 979.269 1005.59 1430.66 1477.99
5810.29 1027.12 1019.46 1544.01 1491.23
5813.16 1051.99 1002.2 1499.03 1516.73
5816.03 927.499 1010.58 1507.14 1519.25
5818.9 1052.24 1011.81 1551.59 1526.39
5821.77 1055.68 1064 1520.44 1564.77
5824.64 1084.07 1070.32 1622.29 1560.96
5827.51 1071.2 1060.44 1540.16 1548.67
5830.38 1026.05 1006.86 1483.56 1512.38
5833.24 923.315 988.457 1513.44 1501.46
5836.11 1016.01 986.777 1507.4 1492.19
5838.98 1021.01 1030.16 1455.75 1500.08
5841.85 1053.47 1015.7 1537.09 1509.01
5844.72 972.617 1023.99 1534.19 1526.85
5847.59 1045.89 1014.29 1509.26 1504.45
5850.46 1024.37 1048.11 1469.91 1502.87
5853.32 1074.06 1052.33 1529.44 1503.03
5856.19 1058.57 1042.5 1509.73 1493.17
5859.06 994.85 1038.54 1440.33 1477.93
5861.93 1062.19 1042.24 1483.72 1493.3
5864.8 1069.68 1053.72 1555.85 1523.82
5867.66 1029.3 1058.8 1531.9 1554.53
5870.53 1077.42 1053.81 1575.83 1543.58
5873.4 1054.71 1018.99 1523.02 1545.16
5876.27 924.83 947.712 1536.62 1484.65
5879.13 863.594 940.794 1394.32 1483.72
5882 1033.96 982.258 1520.21 1461.16
5884.87 1049.22 906.84 1468.94 1465.54
5887.73 637.339 896.905 1407.47 1407.8
5890.6 1004.15 738.705 1346.99 1378.22
5893.47 574.624 759.481 1380.19 1365.58
5896.33 699.666 652.416 1369.56 1369.5
5899.2 682.959 793.068 1358.76 1383.56
5902.07 996.581 907.975 1422.37 1415.03
5904.93 1044.39 1013.42 1463.97 1435.65
5907.8 999.279 952.4 1420.62 1420.45
5910.66 813.535 943.567 1376.75 1415.94
5913.53 1017.89 945.3 1450.45 1402.99
5916.39 1004.48 971.055 1381.76 1426.66
5919.26 890.8 973.252 1447.77 1420.1
5922.13 1024.48 978.618 1430.77 1431.82
5924.99 1020.57 1032.2 1416.91 1440.56
5927.86 1051.55 1035 1474.01 1452.11
5930.72 1032.89 978.778 1465.41 1450.03
5933.59 851.895 975.955 1410.66 1435.71
5936.45 1043.08 958.758 1431.05 1407.64
5939.32 981.299 1023.7 1381.23 1433.56
5942.18 1046.73 995.017 1488.42 1413.11
5945.04 957.02 1011.3 1369.68 1429.62
5947.91 1030.16 998.924 1430.77 1398.57
5950.77 1009.6 1020.01 1395.25 1419.76
5953.64 1020.28 1008.48 1433.26 1402.4
5956.5 995.565 987.208 1378.69 1373.12
5959.36 945.776 937.536 1307.41 1342.25
5962.23 871.267 961.391 1340.65 1354.02
5965.09 1067.13 968.284 1414 1353.72
5967.96 966.455 994.663 1306.51 1346.21
5970.82 950.403 977.902 1318.13 1347.42
5973.68 1016.85 997.487 1417.61 1392.74
5976.55 1025.21 1018.61 1442.48 1425.31
5979.41 1013.78 988.46 1415.85 1388.33
5982.27 926.391 983.611 1306.65 1369.18
5985.13 1010.66 967.4 1385.04 1325.4
5988 965.145 996.862 1284.52 1352.93
5990.86 1014.78 987.993 1389.24 1341.11
5993.72 984.055 1014.18 1349.59 1383.91
5996.58 1043.7 1008.01 1412.9 1377.7
5999.45 996.275 1012.76 1370.62 1379.84
6002.31 998.324 941.495 1356.01 1323.73
6005.17 829.885 941.189 1244.56 1328.46
6008.03 995.359 962.933 1384.81 1356.31
6010.89 1063.55 965.408 1439.56 1382.48
6013.76 837.312 943.152 1323.08 1344.5
6016.62 928.592 906.747 1270.88 1310.76
6019.48 954.338 958.308 1338.32 1318.02
6022.34 991.996 959.634 1344.85 1317.29
6025.2 932.568 933.755 1268.7 1308.13
6028.06 876.7 905.681 1310.84 1279.94
6030.92 907.776 908.287 1260.28 1280.91
6033.78 940.385 935.606 1271.6 1273.93
6036.64 958.656 965.9 1289.9 1304.97
6039.5 998.658 966.361 1353.41 1304.69
6042.36 941.769 962.58 1270.75 1298.62
6045.23 947.314 942.348 1271.71 1281.1
6048.09 937.96 946.616 1300.84 1274.99
6050.95 954.574 931.585 1252.41 1296.08
6053.81 902.221 951.282 1334.97 1319.74
6056.67 997.053 920.12 1371.83 1327.32
6059.52 861.086 942.18 1275.17 1307.39
6062.38 968.402 895.872 1275.17 1276.84
6065.24 858.128 954.719 1280.19 1322.83
6068.1 1037.63 950 1413.12 1331.59
6070.96 954.244 980.214 1301.47 1334.23
6073.82 948.77 916.702 1288.09 1291.39
6076.68 847.092 919.279 1284.62 1299.61
6079.54 961.976 895.232 1326.13 1309.03
6082.4 876.628 944.219 1316.35 1330.9
6085.26 994.052 935.413 1350.23 1332.7
6088.11 935.559 951.188 1331.53 1327.11
6090.97 923.953 920.248 1299.55 1297.67
6093.83 901.231 913.688 1261.94 1269.78
6096.69 915.88 923.948 1247.85 1269.9
6099.55 954.732 939.774 1299.91 1280.55
6102.4 948.71 949.117 1293.87 1266.68
6105.26 943.91 941.189 1206.24 1248.81
6108.12 930.947 899.897 1246.31 1229.28
6110.98 824.834 874.775 1235.3 1251.81
6113.83 868.546 892.155 1273.82 1286.66
6116.69 983.087 937.652 1350.87 1303.28
6119.55 961.323 963.734 1285.15 1287.86
6122.41 946.791 962.424 1227.55 1254.98
6125.26 979.157 929.928 1252.25 1231.86
6128.12 863.836 975.56 1215.77 1274.66
6130.98 1083.69 2038.21 1355.95 2395.14
6133.83 4167.12 2124.83 4613.7 2460.51
6136.69 1123.69 2076.37 1411.87 2417.3
6139.54 938.305 987.634 1226.32 1292.29
6142.4 900.904 926.066 1238.68 1228.3
6145.26 938.989 896.589 1219.9 1231.85
6148.11 849.872 864.243 1236.98 1202.86
6150.97 803.867 828.862 1151.7 1196.51
6153.82 832.845 853.039 1200.86 1183.34
6156.68 922.404 897.746 1197.47 1219.48
6159.53 937.99 922.295 1260.12 1217.88
6162.39 906.491 912.945 1196.05 1199.19
6165.24 894.354 897.356 1141.41 1161.25
6168.1 891.223 868.354 1146.29 1162.08
6170.95 819.484 897.967 1198.53 1209.93
6173.81 983.196 892.446 1284.98 1208.76
6176.66 874.657 943.232 1142.76 1225.71
6179.52 971.842 927.851 1249.4 1211.95
6182.37 937.055 938.562 1243.69 1215.69
6185.23 906.789 885.493 1153.98 1188.33
6188.08 812.636 870.475 1167.32 1189.67
6190.93 892.001 866.967 1247.69 1198.38
6193.79 896.264 868.752 1180.12 1214.77
6196.64 817.992 840.933 1216.49 1189.81
6199.49 808.542 857.071 1172.82 1201.61
6202.35 944.68 881.665 1215.51 1179.36
6205.2 891.774 916.941 1149.75 1190.14
6208.05 914.369 899.828 1205.17 1170.89
6210.91 893.342 894.884 1157.74 1169.77
6213.76 876.942 851.057 1146.4 1142.57
6216.61 782.886 844.513 1123.56 1130.04
6219.46 873.711 860.547 1120.18 1141.77
6222.32 925.045 902.039 1181.58 1170.46
6225.17 907.362 901.479 1209.62 1170.57
6228.02 872.031 894.005 1120.49 1149.54
6230.87 902.622 827.344 1118.5 1112.33
6233.73 707.38 796.85 1098 1134.28
6236.58 780.549 742.071 1186.36 1159.78
6239.43 738.285 820.333 1194.98 1178.84
6242.28 942.165 868.609 1155.19 1186.3
6245.13 925.375 907.112 1208.71 1150.22
6247.98 853.797 879.7 1086.77 1139.93
6250.83 859.929 863.905 1124.31 1108.74
6253.68 877.99 882.121 1115.15 1109.76
6256.54 908.443 893.491 1089.83 1122.93
6259.39 894.04 887.003 1163.81 1119.08
6262.24 858.525 875.246 1103.59 1118.05
6265.09 873.174 856.718 1086.76 1080.58
6267.94 838.456 824.123 1051.4 1074.82
6270.79 760.738 771.766 1086.29 1063.65
6273.64 716.103 735.151 1053.25 1071.48
6276.49 728.611 758.959 1074.9 1053.84
6279.34 832.161 791.455 1033.37 1039.84
6282.19 813.592 830.136 1011.25 1028.38
6285.04 844.656 814.737 1040.53 1016.38
6287.89 785.963 829.896 997.355 1044.74
6290.73 859.069 745.503 1096.32 1041.2
6293.58 591.478 758.508 1029.93 1038.16
6296.43 824.978 773.058 988.218 1037.44
6299.28 902.718 870.189 1094.18 1044.18
6302.13 882.87 870.062 1050.14 1043.45
6304.98 824.598 866.471 986.02 1038.83
6307.83 891.945 787.707 1080.33 1040.77
6310.68 646.578 761.314 1055.97 1090.35
6313.52 745.418 755.268 1134.75 1086.63
6316.37 873.809 828.501 1069.17 1089.19
6319.22 866.275 810.786 1063.66 1057.5
6322.07 692.273 812.232 1039.67 1066.21
6324.91 878.149 830.862 1095.31 1092.48
6327.76 922.163 882.238 1142.47 1110.8
6330.61 846.401 796.732 1094.63 1151.48
6333.46 621.633 699.411 1217.35 1119
6336.3 630.199 630.471 1045.01 1082.7
6339.15 639.58 654.047 985.737 1037.48
6342 692.361 665.99 1081.69 1040.57
6344.84 666.028 669.726 1054.29 1063.74
6347.69 650.789 682.117 1055.22 1064.81
6350.54 729.534 678.425 1084.91 1063.35
6353.38 654.954 687.03 1049.93 1056.75
6356.23 676.603 614.105 1035.41 1054.94
6359.08 510.757 631.926 1079.49 1080.29
6361.92 708.417 620.79 1125.97 1073.5
6364.77 643.197 662.311 1015.03 1047.35
6367.61 635.32 643.296 1001.05 1002.53
6370.46 651.372 614.897 991.525 1017.1
6373.3 558.001 627.338 1058.72 1034.13
6376.15 672.641 641.528 1052.14 1051.48
6378.99 693.942 625.63 1043.56 1034.7
6381.84 510.306 618.071 1008.4 1015.45
6384.68 649.965 588.711 994.391 995.181
6387.53 605.863 627.858 982.748 990.973
6390.37 627.747 630.637 995.781 1003.01
6393.22 658.301 626.335 1030.49 1009.49
6396.06 592.957 632.41 1002.2 998.859
6398.9 645.973 638.895 963.893 1013.9
6401.75 677.756 660.381 1075.61 1018.9
6404.59 657.413 671.424 1017.19 1043.44
6407.43 679.103 672.638 1037.51 1031.78
6410.28 681.399 664.079 1040.65 1011.78
6413.12 631.734 664.412 957.176 986.082
6415.96 680.102 658.188 960.421 973.578
6418.81 662.729 652.342 1003.14 1003.58
6421.65 614.196 619.53 1047.2 1023.8
6424.49 581.665 588.074 1021.06 996.046
6427.34 568.362 605.016 919.885 976.798
6430.18 665.021 639.147 989.453 958.642
6433.02 684.058 662.241 966.589 982.571
6435.86 637.642 649.988 991.672 977.381
6438.7 628.264 634.755 973.881 972.895
6441.55 638.36 649.068 953.131 962.936
6444.39 680.578 670.079 961.796 955.282
6447.23 691.299 684.084 950.918 970.539
6450.07 680.375 655.308 998.904 961.88
6452.91 594.25 652.971 935.819 964.772
6455.75 684.287 655.976 959.595 966.597
6458.59 689.391 671.309 1004.38 977.653
6461.44 640.248 653.621 968.987 962.018
6464.28 631.223 645.833 912.691 952.106
6467.12 666.028 653.509 974.639 938.696
6469.96 663.276 651.318 928.759 931.093
6472.8 624.651 659.655 889.88 925.66
6475.64 691.038 652.473 958.342 924.878
6478.48 641.729 670.717 926.413 964.904
6481.32 679.384 662.687 1009.96 973.55
6484.16 666.949 635.196 984.282 976.876
6487 559.256 627.586 936.391 945.194
6489.84 656.555 584.023 914.908 914.87
6492.68 536.258 602.717 893.311 919.086
6495.51 615.339 536.443 949.038 903.566
6498.35 457.731 512.265 868.349 888.74
6501.19 463.725 521.1 848.834 892.856
6504.03 641.845 553.727 961.384 905.109
6506.87 555.611 621.216 905.108 941.365
6509.71 666.192 594.719 957.603 920.896
6512.55 562.354 609.364 899.976 911.609
6515.38 599.546 606.542 877.248 912.805
6518.22 657.726 641.428 961.19 917.752
6521.06 667.012 631.223 914.817 932.182
6523.9 568.932 642.446 920.538 939.968
6526.74 691.394 658.277 984.548 941.824
6529.57 714.506 636.103 920.385 922.442
6532.41 502.408 613.747 862.394 897.033
6535.25 624.325 593.93 908.319 876.665
6538.08 655.057 608.712 859.283 876.967
6540.92 546.754 610.913 863.301 873.747
6543.76 630.926 583.971 898.657 847.39
6546.59 574.232 596.939 780.211 832.196
6549.43 585.657 540.964 817.72 809.642
6552.27 463.004 544.487 830.995 820.356
6555.1 584.8 540.015 812.354 809.456
6557.94 572.241 531.356 785.019 796.33
6560.77 437.027 531.227 791.618 789.872
6563.61 584.413 531.474 792.978 781.098
6566.45 572.981 541.091 758.697 781.613
6569.28 465.879 545.852 793.165 785.289
6572.12 598.697 564.672 804.004 801.283
6574.95 629.44 607.676 806.681 806.642
6577.79 594.89 578.867 809.242 793.243
6580.62 512.272 557.776 763.808 796.789
6583.46 566.165 553.235 817.318 818.353
6586.29 581.267 590.143 873.933 840.473
6589.12 622.996 569.38 830.168 832.153
6591.96 503.877 567.061 792.36 855.483
6594.79 574.31 596.466 943.921 881.171
6597.63 711.21 611.492 907.233 907.941
6600.46 548.956 635.903 872.668 874.125
6603.29 647.543 580.956 842.474 839.82
6606.13 546.368 617.4 804.317 844.721
6608.96 658.288 601.16 887.371 829.519
6611.79 598.824 637.2 796.867 854.952
6614.63 654.489 625.991 880.616 831.893
6617.46 624.658 654.422 818.196 860.014
6620.29 684.119 668.304 881.23 870.659
6623.12 696.135 679.314 912.55 882.661
6625.96 657.686 663.793 854.203 871.433
6628.79 637.556 637.982 847.545 841.025
6631.62 618.704 626.268 821.327 811.771
6634.45 622.546 621.039 766.44 797.413
6637.28 621.867 600.95 804.473 806.536
6640.11 558.437 570.525 848.695 822.113
6642.95 531.27 578.786 813.171 827.977
6645.78 646.651 613.046 822.065 825.177
6648.61 661.219 651.431 840.294 834.543
6651.44 646.425 651.517 841.27 852.094
6654.27 646.906 651.569 874.717 862.055
6657.1 661.376 667.253 870.177 853.333
6659.93 693.478 672.738 815.105 853.642
6662.76 663.361 654.676 875.644 852.229
6665.59 607.19 615.228 865.938 821.324
6668.42 575.134 599.949 722.388 824.285
6671.25 617.524 598.108 884.528 788.735
6674.08 601.667 610.62 759.287 806.32
6676.91 612.671 634.255 775.144 808.587
6679.74 688.427 648.15 891.329 816.553
6682.57 643.352 670.755 783.184 843.052
6685.4 680.485 670.404 854.643 833.464
6688.23 687.374 673.321 862.563 832.459
6691.06 652.104 666.71 780.17 818.518
6693.88 660.652 641.065 812.82 800.635
6696.71 610.439 626.305 808.914 798.865
6699.54 607.823 624.107 774.862 800.53
6702.37 654.061 643.66 817.814 806.785
6705.2 669.097 659.957 827.679 808.303
6708.03 656.712 632.291 779.415 811.09
6710.85 571.065 620.355 826.175 782.552
6713.68 633.288 604.077 742.066 775.904
6716.51 607.878 607.556 759.469 766.047
6719.33 581.502 615.088 796.606 799.263
6722.16 655.883 636.163 841.715 820.597
6724.99 671.104 665.411 823.47 826.522
6727.82 669.246 659.376 814.38 813.712
6730.64 637.778 616.769 803.286 784.583
6733.47 543.281 569.653 736.083 767.093
6736.29 527.899 565.857 761.911 750.599
6739.12 626.392 579.659 753.804 752.276
6741.95 584.686 623.121 741.115 751.075
6744.77 658.285 621.046 758.306 753.45
6747.6 620.167 640.888 760.93 777.615
6750.42 644.211 614.84 813.611 777.9
6753.25 580.141 630.953 759.159 793.831
6756.07 668.507 636.181 808.723 786.78
6758.9 659.894 649.037 792.457 800.009
6761.72 618.708 633.552 798.847 786.457
6764.55 622.053 634.75 768.068 791.632
6767.37 663.488 640.249 807.982 796.025
6770.2 635.207 633.897 812.025 800.942
6773.02 602.995 615.878 782.818 786.457
6775.85 609.433 584.592 764.529 764.541
6778.67 541.348 558.571 746.276 729.657
6781.49 524.933 566.134 678.166 717.056
6784.32 632.121 583.341 726.727 710.774
6787.14 592.969 621.948 727.428 733.997
6789.96 640.753 621.207 747.835 747.94
6792.79 629.899 633.684 768.555 742.063
6795.61 630.401 603.315 709.799 738.409
6798.43 549.647 594.404 736.871 727.428
6801.25 603.165 596.149 735.613 728.708
6804.08 635.634 604.81 713.638 743.323
6806.9 575.631 589.701 780.718 733.336
6809.72 557.837 583.964 705.652 737.094
6812.54 618.425 578.019 724.91 713.47
6815.36 557.795 609.946 709.847 744.366
6818.19 653.617 580.98 798.341 739.233
6821.01 531.529 610.815 709.511 764.847
6823.83 647.3 592.053 786.69 724.148
6826.65 597.329 655.7 676.244 759.938
6829.47 722.47 665.975 816.882 749.15
6832.29 678.126 655.592 754.324 718.439
6835.11 566.18 629.235 584.111 689.588
6837.93 643.398 619.853 730.33 691.647
6840.75 649.98 634.881 760.5 730.184
6843.57 611.264 604.057 699.724 698.123
6846.39 550.926 591.02 634.145 676.516
6849.21 610.869 557.853 695.68 671.71
6852.03 511.765 581.834 685.305 698.218
6854.85 622.867 577.085 713.671 687.179
6857.67 596.623 588.761 662.56 657.495
6860.49 546.792 484.553 596.253 629.186
6863.31 310.246 391.218 628.744 610.934
6866.13 316.617 360.702 607.805 585.107
6868.95 455.242 373.962 518.772 547.149
6871.77 350.028 403.785 514.872 533.008
6874.58 406.085 433.622 565.38 569.4
6877.4 544.755 514.571 627.949 630.025
6880.22 592.874 576.578 696.746 672.116
6883.04 592.105 571.209 691.653 652.972
6885.86 528.648 508.407 570.516 617.335
6888.67 404.469 495.954 589.836 603.153
6891.49 554.746 498.07 649.105 620.07
6894.31 534.994 562.359 621.268 631.593
6897.13 597.337 549.869 624.407 598.584
6899.94 517.278 554.023 550.078 599.258
6902.76 547.454 527.55 623.29 608.987
6905.58 517.92 542.71 653.592 646.416
6908.39 562.758 566.804 662.365 656.465
6911.21 619.734 591.708 653.437 642.971
6914.02 592.633 582.92 613.112 614.527
6916.84 536.392 578.507 577.032 606.328
6919.66 606.497 534.526 628.841 615.335
6922.47 460.689 541.968 640.131 630.074
6925.29 558.717 504.952 621.249 629.522
6928.1 495.45 519.81 627.187 636.794
6930.92 505.262 514.808 661.947 594.315
6933.73 543.712 537.894 493.811 587.153
6936.55 564.706 559.929 605.701 576.64
6939.36 571.368 512.222 630.408 614.91
6942.17 400.592 511.702 608.62 611.743
6944.99 563.145 500.486 596.2 592.536
6947.8 537.722 558.877 572.788 605.364
6950.62 575.763 546.518 647.105 588.917
6953.43 526.067 559.558 546.858 621.676
6956.24 576.845 534.649 671.067 590.868
6959.06 501.034 560.601 554.681 631.576
6961.87 603.923 555.178 668.981 587.745
6964.68 560.577 591.64 539.573 632.189
6967.5 610.42 590.494 688.014 618.577
6970.31 600.486 564.372 628.143 663.935
6973.12 482.209 551.843 675.649 620.417
6975.93 572.833 527.153 557.461 572.164
6978.75 526.417 561.823 483.384 549.14
6981.56 586.218 527.43 606.576 557.747
6984.37 469.655 511.769 583.281 580.911
6987.18 479.433 511.957 552.875 568.348
6989.99 586.782 525.31 568.888 560.486
6992.8 509.714 552.716 559.695 596.047
6995.61 561.652 538.853 659.558 603.274
6998.43 545.192 561.277 590.57 630.327
7001.24 576.985 569.977 640.854 619.272
7004.05 587.754 582.98 626.393 620.681
7006.86 584.203 585.22 594.797 601.441
7009.67 583.705 546.705 583.133 562.132
7012.48 472.206 516.876 508.465 560.939
7015.29 494.718 505.009 591.219 556.377
7018.1 548.103 527.619 569.448 594.891
7020.91 540.035 554.794 624.005 598.949
7023.72 576.243 567.433 603.392 601.972
7026.53 586.021 570.12 578.518 591.419
7029.33 548.096 561.009 592.345 582.87
7032.14 548.91 543.895 577.746 575.161
7034.95 534.679 536.783 555.392 568.503
7037.76 526.761 515.866 572.372 565.685
7040.57 486.159 494.603 569.292 579.776
7043.38 470.889 499.937 597.665 563.316
7046.18 542.762 498.474 522.992 571.184
7048.99 481.771 500.769 592.894 554.246
7051.8 477.775 501.609 546.852 563.647
7054.61 545.281 496.974 551.195 546.385
7057.42 467.865 510.266 541.108 532.436
7060.22 517.652 494.185 505.005 533.96
7063.03 497.036 512.632 555.766 524.635
7065.84 523.206 514.112 513.133 543.018
7068.64 522.092 523.855 560.154 546.132
7071.45 526.266 523.756 565.11 564.168
7074.26 522.911 515.449 567.241 555.37
7077.06 497.171 512.652 533.759 528.051
7079.87 517.872 524.201 483.154 531.654
7082.67 557.561 538.626 578.05 529.314
7085.48 540.446 536.587 526.738 532.525
7088.28 511.756 524.853 492.787 502.323
7091.09 522.359 498.887 487.444 496.692
7093.89 462.547 486.141 509.845 509.608
7096.7 473.518 469.021 531.535 534.024
7099.5 470.997 478.297 560.692 522.989
7102.31 490.376 485.91 476.741 515.465
7105.11 496.358 508.034 508.961 497.646
7107.92 537.366 516.28 507.235 518.216
7110.72 515.115 511.478 538.453 503.637
7113.52 481.953 520.996 465.222 525.353
7116.33 565.92 539.913 572.384 533.535
7119.13 571.867 566.268 562.999 568.589
7121.93 561.017 554.379 570.384 553.333
7124.74 530.253 532.267 526.616 526.661
7127.54 505.531 540.138 482.982 521.338
7130.34 584.63 531.625 554.415 532.38
7133.15 504.714 536.212 559.745 536.883
7135.95 519.293 496.057 496.489 506.586
7138.75 464.162 500.78 463.523 489.4
7141.55 518.885 490.444 508.186 502.798
7144.35 488.285 516.184 536.684 518.806
7147.15 541.382 501.9 511.548 529.34
7149.96 476.032 494.454 539.787 503.721
7152.76 465.947 474.276 459.827 503.623
7155.56 480.848 489.77 511.255 495.451
7158.36 522.515 500.868 515.269 517.823
7161.16 499.242 498.972 526.945 506.713
7163.96 475.16 487.602 477.925 497.757
7166.76 488.404 487.152 488.401 479.415
7169.56 497.892 470.578 471.919 450.526
7172.36 425.438 462.954 391.259 431.334
7175.16 465.532 450.284 430.824 428.097
7177.96 459.882 450.303 462.207 447.771
7180.76 425.495 436.877 450.282 440.742
7183.56 425.255 434.434 409.738 426.242
7186.36 452.552 437.58 418.706 410.325
7189.16 434.933 456.412 402.53 425.095
7191.96 481.752 440.19 454.049 424.829
7194.75 403.886 438.284 417.907 426.422
7197.55 429.214 424.799 407.309 411.173
7200.35 441.296 430.822 408.303 402.79
7203.15 421.957 447.699 392.759 408.247
7205.95 479.844 455.771 423.677 410.66
7208.74 465.513 482.209 415.542 426.165
7211.54 501.27 476.28 439.275 438.066
7214.34 462.056 467.471 459.381 431.309
7217.14 439.088 453.217 395.27 427.126
7219.93 458.508 452.531 426.728 407.188
7222.73 459.997 465.457 399.566 416.012
7225.53 477.866 473.807 421.74 425.268
7228.32 483.558 471.332 454.498 443.023
7231.12 452.572 460.265 452.831 425.707
7233.91 444.664 447.575 369.792 387.758
7236.71 445.49 441.098 340.651 400.459
7239.51 433.138 445.473 490.933 419.088
7242.3 457.79 317.211 425.679 448.139
7245.1 60.7046 311.227 427.805 391.448
7247.89 415.186 280.918 320.86 362.596
7250.69 366.864 410.086 339.124 365.081
7253.48 448.207 412.97 435.259 386.3
7256.28 423.84 431.263 384.518 389.445
7259.07 421.742 425.841 348.56 358.789
7261.86 431.943 427.349 343.288 357.215
7264.66 428.363 435.759 379.798 379.204
7267.45 446.971 444.788 414.527 400.051
7270.25 459.03 450.166 405.827 407.085
7273.04 444.496 431.516 400.901 355.495
7275.83 391.024 425.85 259.758 340.957
7278.63 442.03 426.891 362.213 345.375
7281.42 447.62 404.399 414.156 408.183
7284.21 323.548 373.858 448.18 426.479
7287 350.405 344.937 417.102 412.184
7289.8 360.857 325.717 371.269 389.52
7292.59 265.889 329.687 380.189 381.492
7295.38 362.315 327.902 393.02 396.155
7298.17 355.502 363.602 415.258 393.007
7300.96 372.99 365.027 370.743 375.415
7303.75 366.591 361.621 340.245 364.535
7306.54 345.283 366.808 382.618 364.546
7309.34 388.551 364.055 370.774 366.944
7312.13 358.331 371.192 347.439 345.583
7314.92 366.695 366.452 318.536 342.618
7317.71 374.33 348.354 361.88 347.06
7320.5 304.037 320.492 360.764 352.767
7323.29 283.109 320.667 335.655 384.859
7326.08 374.855 315.677 458.158 359.713
7328.87 289.068 318.264 285.326 391.684
7331.66 290.868 324.243 431.567 347.467
7334.45 392.795 353.441 325.507 393.096
7337.23 376.659 354.088 422.214 310.707
7340.02 292.811 308.944 184.399 331.092
7342.81 257.362 310.309 386.661 359.06
7345.6 380.755 329.743 506.12 423.899
7348.39 351.113 357.874 378.916 415.454
7351.18 341.753 348.332 361.325 358.193
7353.96 352.131 349.392 334.337 344.758
7356.75 354.293 349.229 338.614 344.589
7359.54 341.262 355.725 360.818 339.149
7362.33 371.62 363.264 318.015 336.55
7365.11 376.911 371.267 330.818 351.407
7367.9 365.27 362.382 405.388 363.395
7370.69 344.967 344.436 353.978 385.71
7373.47 323.072 333.842 397.765 344.027
7376.26 333.487 331.869 280.339 327.93
7379.05 339.048 325.936 305.687 306.57
7381.83 305.273 331.19 333.685 324.387
7384.62 349.251 333.052 333.789 338.704
7387.4 344.632 345.738 348.638 344.306
7390.19 343.331 348.237 350.49 363.97
7392.97 356.749 351.263 392.782 361.652
7395.76 353.711 352.376 341.684 367.921
7398.54 346.67 346.729 369.297 360.12
7401.33 339.806 338.284 369.378 332.365
7404.11 328.377 339.601 258.421 317.974
7406.9 350.62 352.779 326.122 307.007
7409.68 379.341 350.281 336.478 321.336
7412.47 320.882 359.947 301.408 329.513
7415.25 379.619 361.141 350.654 335.475
7418.03 382.923 358.5 354.363 336.512
7420.82 312.957 351.562 304.519 337.133
7423.6 358.806 335.152 352.518 336.145
7426.38 333.694 338.091 351.398 346.124
7429.16 321.772 325.796 334.456 328.083
7431.95 321.922 328.072 298.396 333.437
7434.73 340.522 339.717 367.459 329.383
7437.51 356.706 346.18 322.293 330.622
7440.29 341.312 348.816 302.113 325.672
7443.08 348.429 346.387 352.61 339.35
7445.86 349.421 345.383 363.328 339.473
7448.64 338.299 355.584 302.479 343.382
7451.42 379.033 360.087 364.339 344.021
7454.2 362.928 358.378 365.244 353.136
7456.98 333.172 351.37 329.827 338.066
7459.76 358.012 338.354 319.126 307.07
7462.54 323.878 322.949 272.257 304.498
7465.32 286.958 332.025 322.113 315.134
7468.1 385.238 338.464 351.033 334.989
7470.88 343.196 355.646 331.821 339.067
7473.66 338.505 330.869 334.349 326.907
7476.44 310.907 322.434 314.552 313.504
7479.22 317.889 330.624 291.611 314.69
7482 363.076 342.296 337.907 313.25
7484.78 345.924 337.551 310.232 310.736
7487.56 303.653 319.301 284.069 298.537
7490.33 308.327 322.468 301.311 289.167
7493.11 355.423 328.982 282.123 299.492
7495.89 323.197 335.577 315.043 289.018
7498.67 328.11 333.961 269.889 319.818
7501.45 350.576 342.39 374.522 312.91
7504.22 348.485 347.292 294.319 317.216
7507 342.813 341.121 282.808 290.101
7509.78 332.063 328.13 293.177 288.242
7512.55 309.513 335.704 288.742 307.312
7515.33 365.536 339.824 340.017 294.134
7518.11 344.423 337.073 253.643 283.601
7520.88 301.259 336.725 257.142 263.463
7523.66 364.491 319.096 279.605 269.404
7526.43 291.537 329.219 271.464 281.263
7529.21 331.63 309.336 292.72 294.569
7531.99 304.841 318.715 319.524 298.296
7534.76 319.673 319.279 282.645 303.869
7537.54 333.323 329.254 309.438 290.51
7540.31 334.767 336.028 279.446 297.82
7543.08 339.995 326.817 304.575 287.484
7545.86 305.69 319.033 278.431 286.76
7548.63 311.415 311.536 277.274 282.192
7551.41 317.504 323.768 290.87 293.41
7554.18 342.385 323.118 312.086 304.004
7556.95 309.465 333.134 309.056 301.821
7559.73 347.552 331.761 284.322 302.015
7562.5 338.266 337.301 312.666 278.508
7565.27 326.085 344.667 238.535 269.189
7568.05 369.65 345.286 256.367 257.92
7570.82 340.123 341.806 278.859 267.598
7573.59 315.645 311.724 267.568 258.25
7576.36 279.403 314.001 228.322 268.497
7579.14 346.954 315.584 309.602 255.426
7581.91 320.394 343.931 228.354 269.819
7584.68 364.445 311.711 271.502 249.99
7587.45 250.293 282.571 250.116 236.425
7590.22 232.975 225.92 187.658 199.595
7592.99 194.494 198.124 161.011 163.137
7595.76 166.904 165.821 140.741 139.406
7598.53 136.064 138.273 116.466 126.329
7601.3 111.852 122.922 121.779 109.69
7604.07 120.849 112.895 90.8257 107.28
7606.84 105.986 127.204 109.237 106.066
7609.61 154.777 137.819 118.134 112.561
7612.38 152.694 183.19 110.312 140.745
7615.15 242.099 207.379 193.79 160.08
7617.92 227.344 234.873 176.138 177.32
7620.69 235.176 208.103 162.032 165.292
7623.46 161.791 203.821 157.707 142.755
7626.23 214.497 196.882 108.527 147.815
7629 214.358 222.5 177.211 153.647
7631.76 238.646 213.624 175.204 152.688
7634.53 187.869 211.579 105.65 159.941
7637.3 208.222 203.43 198.969 154.746
7640.07 214.199 208.545 159.62 167.563
7642.83 203.213 215.044 144.099 164.698
7645.6 227.72 227.897 190.375 164.667
7648.37 252.76 238.189 159.526 163.319
7651.13 234.087 247.831 140.055 156.412
7653.9 256.648 243.075 169.655 157.003
7656.67 238.489 258.353 161.299 169.78
7659.43 279.923 258.095 178.386 172.385
7662.2 255.874 267.463 177.471 179.864
7664.96 266.592 272.076 183.734 193.757
7667.73 293.762 293.129 220.067 219.538
7670.49 319.033 302.104 254.814 224.136
7673.26 293.516 299.409 197.528 229.441
7676.02 285.676 284.109 235.981 222.132
7678.79 273.135 294.324 232.887 243.547
7681.55 324.161 289.773 261.773 228.272
7684.32 272.022 290.256 190.156 220.842
7687.08 274.585 266.059 210.598 214.852
7689.84 251.57 255.565 243.802 200.83
7692.61 240.54 265.237 148.089 196.334
7695.37 303.601 288.097 197.11 182.694
7698.13 320.149 287.756 202.884 182.257
7700.9 239.518 293.347 146.777 189.438
7703.66 320.373 267.513 218.654 175.051
7706.42 242.647 287.708 159.722 179.9
7709.18 300.104 294.932 161.325 174.515
7711.95 342.045 316.792 202.499 175.279
7714.71 308.229 306.058 162.014 150.174
7717.47 267.9 303.899 86.0088 174.438
7720.23 335.568 284.648 275.291 183.779
7722.99 250.475 280.353 190.037 224.757
7725.75 255.015 261.464 208.943 187.163
7728.51 278.902 277.09 162.51 200.281
7731.27 297.353 282.943 229.389 191.257
7734.03 272.574 286.138 181.871 188.71
7736.79 288.487 278.275 154.869 176.914
7739.55 273.764 273.946 194.001 183.108
7742.31 259.586 248.413 200.452 179.587
7745.07 211.889 266.752 144.308 185.912
7747.83 328.78 281.132 212.975 190.843
7750.59 302.726 314.811 215.247 208.863
7753.35 312.927 291.128 198.367 202.821
7756.11 257.731 301.214 194.849 190.603
7758.87 332.985 272.109 178.593 178.702
7761.62 225.612 269.468 162.665 161.713
7764.38 249.808 246.985 143.883 174.483
7767.14 265.536 251.03 216.903 179.97
7769.9 237.747 261.757 179.126 196.8
7772.65 281.987 263.677 194.371 192.379
7775.41 271.298 285.618 203.641 182.471
7778.17 303.57 293.765 149.402 186.269
7780.93 306.426 286.025 205.763 170.706
7783.68 248.078 277.388 156.953 196.267
7786.44 277.659 250.476 226.086 211.898
7789.19 225.689 264.685 252.654 201.226
7791.95 290.706 261.207 124.938 178.112
7794.71 267.225 267.217 156.745 151.214
7797.46 243.721 256.914 171.958 175.168
7800.22 259.797 245.427 196.802 173.358
7802.97 232.765 257.345 151.314 180.53
7805.73 279.473 278.104 193.475 164.023
7808.48 322.074 275.886 147.282 176.061
7811.23 226.112 268.326 187.427 154.06
7813.99 256.792 267.833 127.47 168.409
7816.74 320.595 270.409 190.33 144.847
7819.5 233.842 304.741 116.742 178.379
7822.25 359.785 263.488 228.067 150.628
7825 196.838 263.165 107.074 173.246
7827.76 232.871 231.082 184.596 149.507
7830.51 263.538 255.174 156.852 167.507
7833.26 269.113 248.186 161.074 141.573
7836.01 211.905 256.649 106.794 131.861
7838.77 288.927 255.017 127.716 141.092
7841.52 264.219 277.848 188.767 169.95
7844.27 280.399 276.03 193.368 184.569
7847.02 283.473 276.536 171.572 191.354
7849.77 265.735 272.014 209.12 147.91
7852.52 266.833 284.786 63.0385 118.188
7855.27 321.79 278.452 82.406 81.1212
7858.02 246.733 256.097 97.9192 123.546
7860.77 199.768 227.875 190.313 142.457
7863.52 237.123 239.326 139.139 137.074
7866.27 281.086 244.22 81.7699 109.115
7869.02 214.449 243.372 106.435 87.2374
7871.77 234.58 231.334 73.5073 92.1531
7874.52 244.972 243.882 96.5168 130.278
7877.27 252.093 242.287 220.81 152.137
7880.02 229.796 250.897 139.084 165.269
7882.77 270.803 206.7 135.912 128.797
7885.52 119.5 209.528 111.394 129.457
7888.27 238.28 203.417 141.064 138.644
7891.01 252.47 240.922 163.475 142.269
7893.76 232.015 245.965 122.266 141.463
7896.51 253.411 246.914 138.649 134.614
7899.26 255.317 252.679 142.926 138.464
7902 249.31 253.313 133.816 141.989
7904.75 255.314 251.817 149.225 121.687
7907.5 250.826 259.23 82.0195 98.0153
7910.24 271.548 264.397 62.8012 62.684
7912.99 270.816 249.43 43.2314 98.9423
7915.73 205.926 237.554 190.794 97.2434
7918.48 235.918 221.391 57.7044 110.585
7921.23 222.329 220.383 83.2569 70.5136
7923.97 202.902 219.164 70.5795 103.097
7926.72 232.261 210.798 155.456 105.695
7929.46 197.231 221.086 91.0483 133.545
7932.21 233.766 227.247 154.13 114.533
7934.95 250.743 242.919 98.4206 126.841
7937.69 244.248 248.772 127.972 124.026
7940.44 251.325 264.97 145.686 136.932
7943.18 299.338 270.76 137.138 124.744
7945.93 261.616 267.539 91.4072 126.989
7948.67 241.663 248.729 152.423 131.757
7951.41 242.909 233.416 151.441 137.485
7954.15 215.675 219.015 108.592 127.861
7956.9 198.462 215.897 123.549 89.6955
7959.64 233.552 215.804 36.9452 90.7407
7962.38 215.397 243.207 111.728 100.286
7965.12 280.673 243.796 152.183 127.328
7967.87 235.317 244.942 118.072 148.995
7970.61 218.837 209.179 176.729 114.388
7973.35 173.382 213.619 48.364 121.741
7976.09 248.638 207.581 140.131 95.3671
7978.83 200.723 227.031 97.6064 115.134
7981.57 231.73 214.938 107.665 101.762
7984.31 212.362 226.538 100.013 132.342
7987.05 235.521 226.47 189.348 135.752
7989.79 231.528 228.507 117.895 118.959
7992.53 218.472 229.046 49.6335 79.7789
7995.27 237.139 235.6 71.8085 89.1216
7998.01 251.188 244.133 145.923 109.655
8000.75 244.073 236.001 111.235 120.364
8003.49 212.742 217.526 103.936 97.2289
8006.23 195.763 214.201 76.516 81.5535
8008.96 234.1 224.511 64.2085 73.6564
8011.7 243.671 241.726 80.2446 85.3554
8014.44 247.406 228.121 111.613 98.9304
8017.18 193.287 221.955 104.933 91.3957
8019.91 225.172 217.075 57.6405 64.3525
8022.65 232.766 226.124 30.4837 60.2673
8025.39 220.435 221.654 92.6778 73.4394
8028.12 211.76 208.192 97.1566 80.9212
8030.86 192.38 210.006 52.9292 106.227
8033.6 225.879 219.358 168.594 111.509
8036.33 239.816 225.44 113.004 123.302
8039.07 210.624 222.673 88.3094 102.269
8041.8 217.578 211.986 105.493 96.8585
8044.54 207.754 213 96.7727 103.359
8047.28 213.667 209.132 107.81 101.107
8050.01 205.974 215.66 98.7389 88.4163
8052.74 227.339 217.336 58.6997 68.9148
8055.48 218.695 215.15 49.3057 57.4213
8058.21 199.415 204.544 64.2583 51.0138
8060.95 195.522 194.601 39.4774 50.4645
8063.68 188.864 198.11 47.6577 57.7644
8066.41 209.944 203.864 86.1581 73.9473
8069.15 212.785 224.296 88.026 95.9342
8071.88 250.16 221.836 113.619 92.0935
8074.61 202.562 222.269 74.6358 88.9932
8077.35 214.086 208.15 78.7251 80.4924
8080.08 207.8 214.01 88.1164 97.3087
8082.81 220.143 210.984 125.085 107.635
8085.54 205.01 216.685 109.703 115.438
8088.27 224.903 212.668 111.527 109.282
8091.01 208.091 208.057 106.618 102.545
8093.74 191.177 193.767 89.4893 65.5002
8096.47 182.032 184.345 0.393178 45.997
8099.2 179.827 175.446 48.1084 40.3609
8101.93 164.48 182.023 72.581 63.8294
8104.66 201.762 182.997 70.7988 60.9246
8107.39 182.75 199.515 39.394 63.3294
8110.12 214.034 199.327 79.7953 75.8121
8112.85 201.198 203.788 108.247 95.7498
8115.58 196.131 196.056 99.2074 97.0937
8118.31 190.837 187.613 83.8268 91.8279
8121.03 175.87 182.803 92.4496 88.9825
8123.76 181.702 190.366 90.6711 91.0624
8126.49 213.528 185.275 90.0665 82.1667
8129.22 160.594 184.124 65.7624 85.2249
8131.95 178.249 185.384 99.8458 97.639
8134.68 217.309 184.745 127.309 89.2051
8137.4 158.678 179.089 40.4606 82.2383
8140.13 161.28 165.115 78.9453 72.1865
8142.86 175.388 154.948 97.1537 83.9281
8145.58 128.176 151.184 75.6852 72.409
8148.31 149.987 137.303 44.388 66.02
8151.04 133.748 144.609 77.9868 63.0724
8153.76 150.094 147.103 66.8425 83.4101
8156.49 157.469 150.972 105.401 78.9015
8159.21 145.354 141.919 64.4612 74.8776
8161.94 122.933 139.312 54.7707 64.0564
8164.66 149.648 138.308 72.9375 71.5892
8167.39 142.342 144.966 87.0594 79.047
8170.11 142.908 139.693 77.1441 83.7194
8172.84 133.829 137.552 86.9547 79.0988
8175.56 135.918 137.349 73.1976 80.8262
8178.29 142.301 145.819 82.3264 84.5222
8181.01 159.24 148.367 98.0425 91.5061
8183.73 143.562 144.975 94.1493 94.0558
8186.46 132.124 124.973 89.9755 85.4574
8189.18 99.2327 122.086 72.2475 80.127
8191.9 134.902 122.869 78.1579 73.1018
8194.62 134.473 133.326 68.9 67.4635
8197.35 130.605 134.297 55.3328 60.8366
8200.07 137.815 128.779 58.277 67.4063
8202.79 117.916 135.52 88.609 75.7672
8205.51 150.829 133.85 80.4156 87.1456
8208.23 132.806 143.057 92.4122 84.1022
8210.95 145.535 143.667 79.4789 84.2932
8213.67 152.661 139.852 80.9885 76.1575
8216.39 121.359 140.188 68.0051 77.9176
8219.11 146.543 132.078 84.7592 86.2565
8221.83 128.33 140.765 106.005 91.9918
8224.55 147.422 127.161 85.211 93.4002
8227.27 105.731 114.665 88.9845 78.13
8229.99 90.8422 111.089 60.1943 62.9828
8232.71 136.693 109.228 39.7696 64.1863
8235.43 100.147 132.428 92.5951 81.0934
8238.15 160.444 132.306 110.916 97.7883
8240.87 136.327 147.096 89.8542 84.7996
8243.59 144.517 151.119 53.629 77.8924
8246.3 172.512 159.556 90.194 81.8741
8249.02 161.64 163.091 101.799 85.5394
8251.74 155.121 145.391 64.625 75.2669
8254.46 119.411 149.731 59.3763 75.0476
8257.17 174.661 140.745 101.142 75.6217
8259.89 128.163 142.725 66.3473 75.8307
8262.61 125.35 133.267 60.0031 63.4621
8265.32 146.29 135.776 64.0359 51.1197
8268.04 135.689 133.065 29.32 46.7495
8270.75 117.216 134.438 46.8927 42.6741
8273.47 150.409 119.282 51.8095 44.4413
8276.18 90.2198 118.218 34.6216 49.2526
8278.9 114.025 112.101 61.3266 21.4065
8281.61 132.058 136.059 -31.7288 -5.93772
8284.33 162.095 135.314 -47.4109 -39.5631
8287.04 111.79 134.126 -39.5495 -46.682
8289.76 128.492 111.078 -53.0856 -33.7123
8292.47 92.951 106.945 -8.50174 1.09302
8295.18 99.3908 85.653 64.8664 11.0268
8297.9 64.6173 98.2066 -23.2843 23.5527
8300.61 130.612 107.326 29.076 6.44044
8303.32 126.749 112.484 13.5297 28.5519
8306.04 80.092 113.773 43.05 44.9715
8308.75 134.479 104.781 78.335 29.7231
8311.46 99.7703 119.769 -32.2158 27.0277
8314.17 125.057 116.56 34.9641 27.8329
8316.88 124.853 132.546 80.7505 43.706
8319.59 147.728 138.36 15.4033 51.4914
8322.31 142.5 141.114 58.3203 56.846
8325.02 133.113 135.449 96.8143 77.5127
8327.73 130.734 142.182 77.4035 79.7262
8330.44 162.699 144.325 64.961 65.2176
8333.15 139.542 136.815 53.2883 44.2355
8335.86 108.205 131.918 14.4572 23.9473
8338.57 148.006 143.015 4.09648 7.36202
8341.28 172.833 169.518 3.53236 -14.2983
8343.99 187.716 159.295 -50.5238 -34.9303
8346.69 117.335 116.996 -57.7995 -52.8272
8349.4 45.9359 91.8307 -50.1583 -48.925
8352.11 112.221 103.866 -38.8171 -35.8154
8354.82 153.44 133.049 -18.4707 -22.4195
8357.53 133.486 132.02 -9.97066 -5.00077
8360.23 109.133 126.543 13.4391 1.85215
8362.94 137.011 139.009 2.08803 10.1914
8365.65 170.881 159.356 15.047 14.9973
8368.36 170.176 161.474 27.8569 22.154
8371.06 143.363 147.568 23.5582 36.751
8373.77 129.166 139.287 58.838 25.7299
8376.47 145.333 144.865 -5.20636 13.0319
8379.18 160.097 155.467 -14.5359 -5.0997
8381.89 160.97 158.963 4.44314 6.94994
8384.59 155.822 150.79 30.9426 4.53891
8387.3 135.579 146.035 -21.769 5.73163
8390 146.704 140.362 8.02127 2.86108
8392.71 138.803 156.636 22.3309 -21.5875
8395.41 184.402 153.714 -95.1146 -18.8824
8398.11 137.937 149.425 16.1364 -81.5672
8400.82 125.937 112.23 -165.723 -64.4269
8403.52 72.8167 90.4649 -43.6938 -68.2068
8406.23 72.6413 105.777 4.79686 -3.66741
8408.93 171.874 127.409 27.8947 17.0028
8411.63 137.71 154.174 18.3169 5.21089
8414.33 152.937 137.879 -30.5789 -7.05796
8417.04 122.991 135.449 -8.91184 -17.2102
8419.74 130.42 117.297 -12.1397 -13.3876
8422.44 98.4789 127.818 -19.1113 -34.1951
8425.14 154.556 133.891 -71.3343 -53.5442
8427.84 148.638 134.623 -70.1869 -62.2286
8430.54 100.674 115.911 -45.1647 -84.4796
8433.24 98.42 109.866 -138.087 -48.12
8435.95 130.504 113.599 38.8919 -15.3162
8438.65 111.873 127.526 53.2468 47.6537
8441.35 140.202 128.625 50.8223 48.4382
8444.05 133.801 130.147 41.2457 33.1153
8446.74 116.439 138.126 7.27791 14.1561
8449.44 164.139 125.84 -6.05516 5.70135
8452.14 96.9419 121.09 15.8813 11.6949
8454.84 102.189 103.054 25.2586 19.1325
8457.54 110.03 120.773 16.2578 27.3675
8460.24 150.099 117.414 40.5862 -9.50522
8462.94 92.1138 123.082 -85.3596 -61.9775
8465.63 127.034 127.895 -141.159 -107.854
8468.33 164.537 143.959 -97.0425 -77.1071
8471.03 140.305 149.699 6.88043 -43.1994
8473.73 144.254 139.644 -39.436 -11.218
8476.42 134.372 136.855 -1.09833 -8.00875
8479.12 131.939 132.801 16.5081 21.3095
8481.82 132.092 132.821 48.5187 29.1117
8484.51 134.432 137.745 22.3084 29.4268
8487.21 146.712 131.241 17.4533 8.70993
8489.9 112.579 129.564 -13.6318 -5.64068
8492.6 129.402 117.926 -20.7435 -17.9598
8495.29 111.798 134.214 -19.5042 -28.9682
8497.99 161.442 139.416 -46.6569 -32.387
8500.68 145.008 150.78 -31 -51.0281
8503.38 145.89 147.669 -75.4274 -57.0901
8506.07 152.11 145.113 -64.8429 -58.2317
8508.76 137.339 136.44 -34.4246 -42.8136
8511.46 119.872 126.601 -29.1733 -12.0258
8514.15 122.591 118.418 27.5205 14.6936
8516.84 112.793 118.342 45.7335 48.9621
8519.54 119.644 127.186 73.6323 50.5766
8522.23 149.122 145.5 32.3639 49.962
8524.92 167.735 146.704 43.8898 41.756
8527.61 123.256 146.223 49.0143 49.1736
8530.3 147.677 136.972 54.6167 49.058
8533 139.983 137.356 43.5431 28.6762
8535.69 124.408 139.426 -12.1311 12.627
8538.38 153.886 150.648 6.46899 -1.84656
8541.07 173.651 157.512 0.122476 -6.05944
8543.76 144.998 148.068 -24.7698 -7.6223
8546.45 125.554 126.179 1.7804 -4.36327
8549.14 107.986 115.336 9.89956 3.45089
8551.83 112.468 111.794 -1.32729 -0.85639
8554.52 114.926 122.482 -11.1414 -3.47905
8557.21 140.051 142.61 2.03156 14.5406
8559.9 172.852 151.022 52.7316 40.6382
8562.58 140.161 151.262 67.1514 53.919
8565.27 140.773 143.057 41.874 54.3967
8567.96 148.236 134.943 54.1649 40.8377
8570.65 115.818 138.648 26.4741 27.8983
8573.34 151.89 127.748 3.05581 15.3137
8576.02 115.536 128.918 16.4112 15.1811
8578.71 119.328 115.545 26.0764 17.9516
8581.4 111.77 127.332 11.3673 31.3792
8584.08 150.896 130.445 56.6939 47.2671
8586.77 128.67 138.674 73.7401 45.3745
8589.45 136.457 127.564 5.68955 35.5803
8592.14 117.566 112.368 27.3112 1.5859
8594.83 83.0804 96.1702 -28.2431 -4.40963
8597.51 87.8643 101.769 -12.297 -15.2079
8600.2 134.363 116.901 -5.08371 -7.40534
8602.88 128.475 131.692 -4.83527 7.27263
8605.56 132.238 128.535 31.7369 14.2541
8608.25 124.893 123.654 15.8607 32.3184
8610.93 113.832 127.414 49.3577 18.8231
8613.62 143.516 151.736 -8.74902 7.19854
8616.3 197.86 158.082 -19.0131 -34.871
8618.98 132.87 159.455 -76.851 -64.7864
8621.66 147.634 139.108 -98.4953 -67.9319
8624.35 136.819 144.432 -28.4494 -65.8311
8627.03 148.843 137.589 -70.5486 -21.4663
8629.71 127.105 134.566 34.5992 -15.3111
8632.39 127.751 139.943 -9.9838 -23.4596
8635.07 164.972 152.015 -94.9942 -43.0681
8637.76 163.322 146.466 -24.2265 -60.7782
8640.44 111.105 144.042 -63.1139 -27.0707
8643.12 157.7 142.411 6.12832 -36.0143
8645.8 158.429 144.747 -51.0574 -18.7363
8648.48 118.113 132.805 -11.2799 -40.4117
8651.16 121.872 125.451 -58.8977 -36.1398
8653.84 136.367 125.785 -38.2417 -63.4525
8656.52 119.116 117.068 -93.218 -53.4705
8659.2 95.72 122.721 -28.9517 -54.4415
8661.87 153.326 117.602 -41.1548 -50.5479
8664.55 103.76 129.529 -81.5371 -47.9333
8667.23 131.501 110.938 -21.1079 -67.7601
8669.91 97.553 125.059 -100.635 -40.9378
8672.59 146.122 113.673 -1.07011 -36.8838
8675.26 97.3443 120.198 -8.9459 10.438
8677.94 117.128 122.298 41.3299 12.4011
8680.62 152.423 132.339 4.81914 19.9405
8683.29 127.467 137.854 13.6724 16.2557
8685.97 133.671 133.055 30.2755 9.90858
8688.65 138.028 139.913 -14.2222 19.5853
8691.32 148.041 139.151 42.7027 9.22295
8694 131.386 125.05 -0.811672 17.5871
8696.67 95.7223 118.654 10.8702 10.2042
8699.35 128.854 119.796 20.554 16.0147
8702.02 134.81 127.861 16.62 12.5798
8704.7 119.918 132.59 0.565423 9.13724
8707.37 143.041 127.836 10.2263 6.57516
8710.05 120.55 139.985 8.93379 17.3724
8712.72 156.364 137.081 32.957 22.4451
8715.39 134.33 140.25 25.4445 34.1294
8718.07 130.057 129.946 43.9867 35.9246
8720.74 125.452 130.822 38.3426 35.9716
8723.41 136.959 135.315 25.5856 37.005
8726.08 143.536 137.374 47.0866 38.4338
8728.76 131.626 135.776 42.6291 36.443
8731.43 132.165 130.178 19.6134 37.7347
8734.1 126.744 131.679 50.9617 33.4025
8736.77 136.129 131.527 29.6323 41.592
8739.44 131.709 133.735 44.1818 37.118
8742.11 133.367 129.895 37.5399 43.0154
8744.78 124.608 136.405 47.3246 37.3087
8747.45 151.241 131.855 27.0615 42.6992
8750.12 119.716 121.441 53.7115 14.0717
8752.79 93.366 113.11 -38.5579 1.32752
8755.46 126.25 116.042 -11.1711 -57.6341
8758.13 128.509 135.431 -123.173 -31.7066
8760.8 151.534 127.994 39.2244 -49.3586
8763.47 103.938 116.404 -64.127 -17.9203
8766.14 93.7396 108.945 -28.8583 -29.5817
8768.8 129.159 106.999 4.24029 29.5065
8771.47 98.0983 142.097 113.137 36.1505
8774.14 199.034 140.785 -8.92615 45.1104
8776.81 125.223 144.946 31.1198 -33.4482
8779.47 110.581 132.2 -122.538 -42.4293
8782.14 160.797 150.226 -35.8695 -72.5098
8784.81 179.301 161.875 -59.1214 -26.1646
8787.47 145.527 160.288 16.497 -23.8938
8790.14 156.034 138.798 -29.057 -18.3226
8792.8 114.833 146.816 -42.4077 -28.0897
8795.47 169.581 134.931 -12.8043 -29.854
8798.13 120.38 146.011 -34.35 -11.0345
8800.8 148.072 133.755 14.051 -1.23961
8803.46 132.815 135.85 16.5802 27.4437
8806.13 126.664 120.87 51.6999 39.4671
8808.79 103.131 125.457 50.121 49.452
8811.45 146.574 126.612 46.5351 44.6568
8814.12 130.129 141.555 37.3143 36.5601
8816.78 147.962 141.795 25.8309 3.52396
8819.44 147.293 150.691 -52.5733 6.25842
8822.11 156.818 141.699 45.5177 -12.2552
8824.77 120.986 176.523 -29.7099 -36.6621
8827.43 251.765 193.562 -125.794 -47.7814
8830.09 207.934 199.611 12.1596 -71.7032
8832.75 139.135 138.427 -101.475 23.2297
8835.41 68.2129 124.454 159.005 17.4947
8838.08 166.014 114.776 -5.0454 72.1148
8840.74 110.101 104.768 62.385 57.9612
8843.4 38.1877 80.1701 116.544 82.1908
8846.06 92.2218 82.0304 67.6434 81.2632
8848.72 115.682 107.464 59.6021 38.1846
8851.38 114.49 124.084 -12.6917 16.49
8854.03 142.079 121.961 2.55948 -12.3367
8856.69 109.315 129.275 -26.8779 -12.9155
8859.35 136.431 115.396 -14.4281 -11.2373
8862.01 100.442 114.675 7.59405 3.76567
8864.67 107.151 106.813 18.1311 -5.27901
8867.33 112.848 108.829 -41.5622 -28.6605
8869.98 106.488 123.13 -62.5505 -42.5019
8872.64 150.055 138.592 -23.3929 -1.30972
8875.3 159.232 144.902 82.0142 17.8103
8877.95 125.418 135.905 -5.19056 16.4119
8880.61 123.067 112.418 -27.5879 -47.361
8883.27 88.7689 114.57 -109.305 -95.1535
8885.92 131.874 96.9532 -148.568 -101.986
8888.58 70.2172 70.2809 -48.0846 -32.1742
8891.23 8.75191 55.0845 100.13 87.6214
8893.89 86.2843 62.6127 210.819 139.97
8896.54 92.8019 86.8342 108.961 106.011
8899.2 81.4165 85.6752 -1.74791 42.252
8901.85 82.8072 131.837 19.5426 -20.2597
8904.51 231.288 133.684 -78.5737 -26.9665
8907.16 86.956 123.181 -21.8684 -47.9683
8909.81 51.2997 70.6581 -43.4629 -27.0842
8912.47 73.7187 65.0715 -15.9212 -45.5179
8915.12 70.1962 77.903 -77.1696 -81.1141
8917.77 89.794 109.481 -150.251 -112.506
8920.42 168.452 80.0707 -110.096 -110.464
8923.08 -18.034 67.5266 -71.0446 -89.4128
8925.73 52.1618 9.52763 -87.0976 -89.424
8928.38 -5.54485 30.5001 -110.13 -87.8502
8931.03 44.8834 39.9088 -66.3232 -65.3508
8933.68 80.3879 76.8567 -19.5993 -68.2481
8936.33 105.299 92.708 -118.822 -77.2035
8938.98 92.4373 102.986 -93.1894 -97.9154
8941.63 111.223 97.4838 -81.735 -73.1262
8944.28 88.7914 116.405 -44.4541 -60.8438
8946.93 149.2 110.74 -56.3424 -35.3322
8949.58 94.2284 100.437 -5.20001 -41.1385
8952.23 57.8833 82.76 -61.873 -72.6885
8954.88 96.1683 90.171 -150.993 -129.962
8957.52 116.461 130.362 -177.021 -141.424
8960.17 178.456 127.426 -96.2583 -117.831
8962.82 87.3604 92.0739 -80.2134 -152.92
8965.47 10.405 46.624 -282.29 -216.599
8968.11 42.1067 35.8557 -287.293 -255.641
8970.76 55.0554 57.1757 -197.341 -204.55
8973.41 74.3649 76.0838 -129.018 -106.768
8976.05 98.8311 80.5732 6.05411 -37.5671
8978.7 68.5235 89.6354 10.2623 5.35544
8981.34 101.552 82.3256 -0.250062 -7.84264
8983.99 76.9016 81.983 -33.5401 -27.3832
8986.64 67.4958 75.1074 -48.3593 -49.8608
8989.28 80.9247 58.1885 -67.6829 -36.4412
8991.92 26.1449 55.3947 6.71846 -29.6237
8994.57 59.1145 41.5848 -27.9065 -50.9198
8997.21 39.4949 52.3073 -131.571 -55.8125
8999.86 58.3126 53.598 -7.95979 -70.3112
9002.5 62.9864 47.1607 -71.4026 -37.6752
9005.14 20.1831 43.8526 -33.6631 -130.705
9007.79 48.3882 28.6024 -287.048 -196.081
9010.43 17.2359 42.8587 -267.531 -230.776
9013.07 62.9521 42.677 -137.75 -178.818
9015.71 47.8429 66.8807 -131.173 -98.8339
9018.35 89.8471 75.4024 -27.5777 -52.8764
9020.99 88.5171 88.2911 0.121861 -20.6466
9023.64 86.5091 79.69 -34.484 -8.13762
9026.28 64.0439 73.064 9.94926 -7.3845
9028.92 68.639 70.6942 2.38124 -11.312
9031.56 79.3998 83.4333 -46.2666 -16.0477
9034.2 102.261 88.5418 -4.2578 -28.8465
9036.84 83.9644 108.554 -36.0151 -16.9592
9039.48 139.435 109.65 -10.6046 -20.1225
9042.11 105.552 104.23 -13.7479 -17.1459
9044.75 67.7043 80.9734 -27.0851 -39.5309
9047.39 69.6642 81.8108 -77.7598 -32.0672
9050.03 108.064 89.5044 8.64336 -0.671889
9052.67 90.7851 90.4628 67.1007 -6.2938
9055.31 72.5393 74.1985 -94.6255 -46.1244
9057.94 59.271 64.9529 -110.849 -125.933
9060.58 63.0484 69.2298 -172.326 -136.08
9063.22 85.3698 69.4977 -125.066 -101.225
9065.85 60.075 76.5892 -6.28282 -63.6047
9068.49 84.3227 76.9859 -59.4658 -21.212
9071.12 86.5601 79.755 2.11245 -23.5757
9073.76 68.3822 75.0441 -13.3739 -21.0068
9076.4 70.19 66.8214 -51.7591 -26.3703
9079.03 61.8919 58.4388 -13.9779 -34.6286
9081.67 43.2345 35.0421 -38.1488 -17.3756
