wavelength spec_sum spec_optimal
3423.3 -94.8189 -274.606
3426.22 -107.808 102.725
3429.15 -103.7 76.2657
3432.08 0.693535 -51.1925
3435.01 -41.5479 -59.6583
3437.93 -42.571 -52.5228
3440.86 -85.121 12.7675
3443.79 135.015 67.0981
3446.71 -4.75057 -38.9294
3449.64 22.4403 80.8311
3452.57 9.78161 4.10041
3455.49 -74.2771 97.5618
3458.42 32.8446 -85.6362
3461.35 15.0769 90.6802
3464.27 -40.8443 -18.4317
3467.2 -61.3987 -5.04836
3470.13 -56.5552 -3.52836
3473.05 15.8241 -26.084
3475.98 -148.101 -16.2053
3478.91 -8.89705 -58.3685
3481.83 -17.526 107.865
3484.76 17.8059 -162.831
3487.69 -10.2459 -98.9998
3490.61 -83.661 -69.2299
3493.54 -45.9444 109.607
3496.46 -42.269 -35.1095
3499.39 -58.2477 -98.7358
3502.32 -50.3844 -40.0985
3505.24 118.333 78.3052
3508.17 -2.71435 -26.8071
3511.09 42.1666 -22.8255
3514.02 97.7481 46.9667
3516.95 53.1144 -125.862
3519.87 18.2117 -60.1891
3522.8 75.2218 16.4382
3525.72 65.1349 15.8455
3528.65 18.4423 0.681031
3531.58 -5.00646 119.67
3534.5 169.567 -118.433
3537.43 20.826 64.8254
3540.35 6.16945 -58.504
3543.28 -26.9413 -48.8452
3546.2 -67.5403 93.3589
3549.13 -43.7612 11.1672
3552.05 -35.5443 -50.4902
3554.98 80.9561 -115.458
3557.91 18.5106 29.3279
3560.83 86.7339 97.6005
3563.76 -29.6191 -18.0078
3566.68 -17.361 -11.0701
3569.61 54.3066 -4.21207
3572.53 -29.9831 32.9123
3575.46 101.348 -0.704036
3578.38 92.2881 -121.729
3581.31 -94.8949 30.359
3584.23 -26.9444 18.6687
3587.16 -59.2309 -34.7018
3590.08 -82.4571 15.5513
3593.01 -82.8713 -17.9807
3595.93 32.2673 -48.6376
3598.86 133.757 -68.8216
3601.78 -23.5438 -30.8542
3604.71 36.9016 -0.00970221
3607.63 -45.8761 -94.0405
3610.56 -25.1364 -15.9718
3613.48 9.06973 -44.5353
3616.4 -77.727 7.04715
3619.33 -29.144 -5.80323
3622.25 -44.3186 27.4309
3625.18 -94.2429 -40.2119
3628.1 -11.1209 71.8917
3631.03 68.0048 3.09177
3633.95 9.77465 -43.4121
3636.88 -0.293711 -21.8053
3639.8 68.7101 4.2031
3642.72 -25.6828 61.0724
3645.65 37.2237 -39.289
3648.57 23.1336 16.4388
3651.5 31.7447 -21.9071
3654.42 40.9334 -14.9332
3657.34 64.3942 -31.3581
3660.27 10.103 -11.0654
3663.19 7.07337 -69.3088
3666.12 72.071 -11.6359
3669.04 -2.88812 41.9636
3671.96 78.3995 -61.8456
3674.89 87.922 -38.6452
3677.81 122.271 -27.5492
3680.73 100.609 13.6898
3683.66 -12.9349 18.8876
3686.58 70.4475 17.709
3689.51 40.6388 -34.973
3692.43 -16.3918 58.315
3695.35 51.736 11.1488
3698.28 28.1877 29.8892
3701.2 46.8336 -8.29846
3704.12 78.9299 19.5758
3707.05 -56.4031 -24.0993
3709.97 3.83593 -73.8856
3712.89 96.9819 2.72717
3715.81 -32.3416 -12.93
3718.74 45.0358 -6.44586
3721.66 62.7769 -10.1021
3724.58 3.0299 -31.8015
3727.51 45.5088 -2.56937
3730.43 31.165 -11.761
3733.35 46.1285 -84.544
3736.28 77.8611 -10.2318
3739.2 125.865 21.0605
3742.12 94.758 -38.4135
3745.04 42.4986 -57.3967
3747.97 59.3119 44.2828
3750.89 45.8753 -37.1912
3753.81 6.50332 54.9709
3756.73 49.0612 -77.111
3759.66 66.3954 -35.4657
3762.58 20.1841 -14.3017
3765.5 5.57369 -21.4675
3768.42 85.3517 14.0851
3771.35 136.49 -1.45177
3774.27 -30.6867 -56.8967
3777.19 91.9926 -46.2607
3780.11 -9.54666 -42.037
3783.03 1.98967 -104.841
3785.96 78.0219 -2.28007
3788.88 -25.8739 -96.2675
3791.8 -21.7557 32.1278
3794.72 87.6558 -48.7213
3797.64 -29.5251 -27.6374
3800.57 16.674 -0.95824
3803.49 -0.754477 -5.93088
3806.41 -25.8428 49.3836
3809.33 57.056 35.1915
3812.25 37.8773 51.2547
3815.17 17.2341 7.31633
3818.1 46.4866 -51.4045
3821.02 50.3897 -4.80158
3823.94 16.5044 -74.8467
3826.86 56.6029 -17.139
3829.78 46.1664 11.7358
3832.7 53.9727 -19.3267
3835.62 20.3481 -1.42062
3838.55 2.29262 -14.5484
3841.47 18.9647 7.46892
3844.39 38.7789 57.4241
3847.31 11.6645 -11.7334
3850.23 14.6484 -12.7776
3853.15 13.5146 -20.416
3856.07 39.6392 -6.39578
3858.99 -15.3166 13.0725
3861.91 25.472 -90.4169
3864.83 36.1427 -28.7114
3867.76 0.175605 -52.6172
3870.68 4.33731 18.9336
3873.6 62.3979 15.8521
3876.52 38.8042 -69.7947
3879.44 -20.5128 -41.4178
3882.36 -35.4042 -20.4938
3885.28 24.092 7.47756
3888.2 -28.4634 -15.8373
3891.12 -3.60234 2.16275
3894.04 23.6606 -31.3416
3896.96 -4.30267 18.0959
3899.88 -20.1627 4.22103
3902.8 35.2241 -80.4874
3905.72 -9.99612 3.73368
3908.64 7.17325 3.03449
3911.56 51.4133 -10.1755
3914.48 -44.0259 -52.8885
3917.4 1.65467 36.3864
3920.32 -2.36264 -45.378
3923.24 14.9117 38.2426
3926.16 19.3675 -21.6517
3929.08 40.5205 29.8956
3932 30.6404 -40.8184
3934.92 -17.6148 25.5559
3937.84 -40.777 58.7477
3940.76 2.22008 7.14759
3943.68 21.6414 -59.4434
3946.6 43.5015 -13.4911
3949.52 33.0911 -8.61808
3952.44 13.2393 -76.9853
3955.36 28.5454 -37.7761
3958.27 32.3258 -61.9551
3961.19 9.51255 7.27433
3964.11 -5.21192 -25.0669
3967.03 22.9771 -23.7576
3969.95 13.4564 7.91471
3972.87 32.7545 -41.7022
3975.79 58.1778 -34.289
3978.71 43.4921 -19.7185
3981.63 15.3669 -14.0677
3984.55 29.9678 -58.8157
3987.46 49.2704 -33.946
3990.38 31.3944 -17.4355
3993.3 33.4622 -49.8864
3996.22 52.0786 -18.3538
3999.14 33.7387 -56.241
4002.06 98.1385 -83.1366
4004.98 85.0789 24.644
4007.89 98.6686 -25.2576
4010.81 27.9733 -9.37321
4013.73 93.1779 -33.4282
4016.65 59.1266 -45.8471
4019.57 68.7406 -0.90137
4022.49 37.524 -21.5756
4025.4 102.971 -46.9302
4028.32 36.5283 -44.8698
4031.24 41.405 -26.3099
4034.16 6.297 -42.101
4037.08 43.6337 19.2265
4039.99 50.9661 -6.11834
4042.91 27.3493 -43.6639
4045.83 -5.18589 -1.05766
4048.75 58.7825 -77.7289
4051.66 94.7599 -13.9741
4054.58 53.7459 -39.7816
4057.5 75.5919 -35.1664
4060.42 28.8082 -3.99887
4063.33 73.2292 -2.86608
4066.25 62.5095 -37.4954
4069.17 63.4523 -0.408289
4072.09 61.6599 -14.127
4075 5.3262 0.73316
4077.92 70.7109 16.9907
4080.84 20.998 -49.6717
4083.76 42.851 -49.0483
4086.67 30.7233 -11.5801
4089.59 28.4539 25.9789
4092.51 13.2323 -17.6183
4095.42 53.0947 38.2059
4098.34 12.8242 18.1451
4101.26 84.3966 -58.1755
4104.17 24.1438 -2.45335
4107.09 52.399 -0.302858
4110.01 37.6869 -66.5206
4112.92 33.2037 -60.9746
4115.84 88.3722 -65.9759
4118.76 30.4196 -52.02
4121.67 21.4399 -22.3872
4124.59 45.1276 -30.1036
4127.5 65.5145 -39.6199
4130.42 104.998 -16.8045
4133.34 38.4143 -11.0654
4136.25 64.0276 -29.6635
4139.17 64.8835 -45.3817
4142.09 54.8901 -26.3254
4145 82.4563 -86.5148
4147.92 55.1256 -9.58279
4150.83 39.4325 -26.305
4153.75 54.5535 -35.3929
4156.66 69.56 -13.6377
4159.58 89.2332 -9.61599
4162.5 61.5452 1.63278
4165.41 49.3508 46.5627
4168.33 46.687 -38.1188
4171.24 84.3449 -21.6584
4174.16 76.9345 -42.6538
4177.07 74.5784 2.65053
4179.99 65.0986 12.4683
4182.9 35.5689 -19.2417
4185.82 59.2883 -5.08489
4188.73 27.3194 -28.6663
4191.65 34.4158 -31.5418
4194.56 60.6251 -33.0701
4197.48 33.9214 -16.2192
4200.39 81.0675 15.4328
4203.31 48.0091 16.414
4206.22 69.8729 9.86323
4209.14 55.5428 24.6769
4212.05 98.1088 -4.55908
4214.97 62.0682 -16.085
4217.88 68.2612 -36.9269
4220.8 13.1638 15.7822
4223.71 29.8492 -21.8978
4226.62 42.2975 -54.6185
4229.54 64.7553 3.83023
4232.45 74.2564 4.82137
4235.37 31.7561 -17.6346
4238.28 58.9129 0.9739
4241.2 34.4592 13.4952
4244.11 67.9478 34.2566
4247.02 59.8346 6.85547
4249.94 70.2881 -29.2214
4252.85 68.8118 -6.35505
4255.77 101.647 -13.0482
4258.68 44.9326 -21.8502
4261.59 41.2308 -3.59876
4264.51 42.3315 -25.2443
4267.42 92.441 -7.23083
4270.33 56.6439 -3.397
4273.25 92.8762 -24.5151
4276.16 82.8361 -41.2667
4279.07 21.6303 14.9694
4281.99 75.0725 -18.96
4284.9 77.8919 -28.007
4287.81 -11.5512 5.53424
4290.73 53.3601 -2.55181
4293.64 87.4231 -1.89328
4296.55 38.7805 -42.5213
4299.47 41.4403 -11.9984
4302.38 45.2022 12.7471
4305.29 26.281 -7.96643
4308.2 63.3511 -0.996506
4311.12 30.91 -36.8211
4314.03 6.88904 -26.2138
4316.94 28.7774 -16.8501
4319.85 27.1324 -15.0005
4322.77 53.9254 -39.1507
4325.68 13.3139 -19.3615
4328.59 55.8881 -21.4291
4331.5 32.5195 -35.0807
4334.42 38.0714 -25.6275
4337.33 10.947 -26.5684
4340.24 63.3563 4.01549
4343.15 62.3702 -12.7248
4346.06 39.7735 -8.74814
4348.98 37.0554 -17.217
4351.89 71.765 -19.6312
4354.8 72.2968 1.35062
4357.71 39.9498 -5.01829
4360.62 34.8677 -0.500881
4363.53 40.5065 -6.17328
4366.45 41.8991 -15.7659
4369.36 56.1658 -24.483
4372.27 66.4007 -8.98224
4375.18 86.6799 0.99181
4378.09 63.6852 -3.64665
4381 81.5869 -12.1541
4383.91 62.2525 -22.3952
4386.83 38.3842 -5.60816
4389.74 93.9046 -7.86967
4392.65 47.6593 -3.78111
4395.56 97.4683 -4.03769
4398.47 65.9496 -10.1676
4401.38 60.7251 23.4592
4404.29 52.5264 3.29084
4407.2 25.1713 -6.0187
4410.11 70.2563 -10.8041
4413.02 58.2243 15.2325
4415.93 82.7987 4.8693
4418.84 31.6012 4.9779
4421.75 41.6754 -6.32729
4424.66 105.817 -15.8788
4427.57 60.6634 -17.2973
4430.48 27.9439 -16.2898
4433.4 61.8753 3.492
4436.31 32.51 -6.79293
4439.22 78.7751 11.5109
4442.13 28.6357 -13.9065
4445.04 67.9227 -27.9257
4447.94 87.0429 -28.7128
4450.85 66.9618 -17.9835
4453.76 92.3195 28.769
4456.67 50.8076 -3.22005
4459.58 95.3862 -9.80392
4462.49 95.2477 18.4548
4465.4 68.0235 -25.1804
4468.31 47.2258 -24.5997
4471.22 66.3509 -9.38174
4474.13 103.802 -4.33913
4477.04 56.3811 2.98397
4479.95 57.5306 4.53081
4482.86 22.8603 0.815129
4485.77 92.208 -36.3916
4488.68 48.1823 5.50046
4491.58 67.0213 10.7294
4494.49 97.9554 -34.2948
4497.4 75.6767 2.7343
4500.31 53.6975 -9.5937
4503.22 42.7904 -59.068
4506.13 76.6721 -7.39991
4509.04 77.7171 29.6661
4511.94 62.8511 25.1302
4514.85 70.0884 -24.2617
4517.76 58.612 -13.8534
4520.67 64.0396 -11.2771
4523.58 50.6603 13.435
4526.49 59.8936 10.2251
4529.39 33.8273 -48.9582
4532.3 88.015 -1.82741
4535.21 70.7146 -14.7392
4538.12 67.3048 -15.4919
4541.03 65.5838 -18.0137
4543.93 108.469 -5.77298
4546.84 27.1462 -2.71378
4549.75 43.0015 -17.5429
4552.66 36.9152 -2.17911
4555.56 24.5992 5.4385
4558.47 32.7806 3.43096
4561.38 71.9159 -9.72125
4564.28 57.4477 -14.3202
4567.19 56.7502 -21.9099
4570.1 69.8994 -10.4644
4573.01 47.1914 -22.6382
4575.91 91.5931 29.2358
4578.82 69.2188 -24.211
4581.73 73.7545 -16.2151
4584.63 50.5155 -9.7071
4587.54 69.3303 9.94079
4590.45 60.2835 -7.51767
4593.35 41.7725 -26.961
4596.26 59.7205 -34.0643
4599.17 59.8147 3.22124
4602.07 87.9769 -10.3814
4604.98 47.2603 -1.75444
4607.88 96.0426 -21.1973
4610.79 97.0962 -18.3287
4613.7 63.7333 -5.60376
4616.6 71.7878 6.66616
4619.51 78.4909 -1.81696
4622.41 87.2675 40.3757
4625.32 71.6286 1.14888
4628.23 73.7626 -19.183
4631.13 70.9007 -9.38953
4634.04 69.3178 15.0162
4636.94 47.5847 7.85879
4639.85 93.1713 -25.1472
4642.75 43.2963 11.2145
4645.66 80.1099 4.49674
4648.56 77.2532 26.3406
4651.47 76.3254 18.2512
4654.37 69.8304 -16.0357
4657.28 72.9269 17.7729
4660.18 61.6611 12.9209
4663.09 51.7963 -23.2512
4665.99 59.2154 23.5883
4668.9 95.3471 -0.151105
4671.8 60.559 37.6885
4674.71 62.1895 -15.0268
4677.61 59.5043 23.7551
4680.52 64.6647 8.78778
4683.42 45.0958 15.6653
4686.33 68.2784 15.6575
4689.23 83.601 -0.861117
4692.13 71.4531 -10.4434
4695.04 84.1833 -28.5385
4697.94 82.8079 -5.52324
4700.85 68.8959 -8.67653
4703.75 76.6028 -13.7245
4706.65 58.7968 -5.09203
4709.56 74.7412 13.9523
4712.46 71.6864 -6.52451
4715.37 77.8652 -16.1591
4718.27 95.5083 2.29505
4721.17 104.805 -36.77
4724.08 103.291 -38.4875
4726.98 64.9812 5.20729
4729.88 64.6224 39.3344
4732.79 79.0856 8.42501
4735.69 73.8028 18.5423
4738.59 76.8141 -0.936849
4741.49 74.0213 7.73952
4744.4 36.111 8.83204
4747.3 62.1805 23.3844
4750.2 55.0024 31.7725
4753.11 68.3541 9.9043
4756.01 68.3532 -6.46166
4758.91 83.9353 -2.95112
4761.81 56.4167 -4.9564
4764.72 78.0491 -18.4007
4767.62 49.2033 -16.8936
4770.52 65.0352 14.0398
4773.42 61.7892 -4.10443
4776.32 94.3558 -32.8881
4779.23 60.8218 -0.46368
4782.13 54.9663 13.8133
4785.03 60.2347 -6.22697
4787.93 48.3805 20.6715
4790.83 67.6927 -23.8228
4793.74 93.0176 10.5617
4796.64 39.1548 12.0047
4799.54 46.1594 17.8816
4802.44 61.5842 -21.4584
4805.34 28.5085 1.78608
4808.24 29.679 0.0424595
4811.14 55.3916 -30.7981
4814.04 40.0045 -45.5203
4816.95 68.4827 2.26551
4819.85 47.739 -25.2893
4822.75 71.4436 -15.701
4825.65 71.7787 -45.0121
4828.55 46.5752 36.0779
4831.45 30.6281 5.65077
4834.35 23.721 22.4928
4837.25 22.5768 23.7374
4840.15 21.5166 15.7275
4843.05 40.6818 2.16213
4845.95 40.7891 1.34959
4848.85 18.5658 -26.7456
4851.75 38.3689 -27.3937
4854.65 20.4118 -12.3257
4857.55 70.9733 -4.7082
4860.45 53.5821 21.0186
4863.35 47.1679 -18.7894
4866.25 52.0682 9.88596
4869.15 72.3539 21.8946
4872.05 50.8237 21.5276
4874.95 95.4585 8.25438
4877.85 52.8785 38.3254
4880.75 72.027 -9.31924
4883.65 82.6892 13.5378
4886.55 74.1411 -12.0791
4889.45 65.4828 8.56874
4892.35 99.6276 -12.639
4895.24 91.4396 15.4651
4898.14 91.0402 8.90798
4901.04 97.4801 25.3365
4903.94 92.9354 3.55201
4906.84 92.6026 21.0297
4909.74 61.2312 21.6553
4912.64 80.5157 19.0087
4915.53 62.3742 4.3193
4918.43 119.224 6.39672
4921.33 94.2715 22.4062
4924.23 86.4435 15.9841
4927.13 93.0851 28.5162
4930.03 77.1847 24.2127
4932.92 73.8167 15.529
4935.82 91.3474 7.25959
4938.72 81.4233 14.6361
4941.62 102.718 -3.79406
4944.51 100.701 15.7244
4947.41 86.2716 17.7085
4950.31 93.4429 -1.23138
4953.21 102.264 11.4293
4956.1 126.53 2.46537
4959 71.2544 -15.2186
4961.9 95.67 12.0005
4964.8 92.2452 9.82528
4967.69 73.209 11.6073
4970.59 76.1438 19.3823
4973.49 81.2146 21.212
4976.38 108.167 5.65666
4979.28 63.0628 13.8615
4982.18 64.2459 21.0589
4985.07 76.8625 30.1577
4987.97 87.7676 15.1751
4990.87 61.2097 8.49123
4993.76 78.1958 -1.75299
4996.66 80.2941 4.20064
4999.55 85.4658 49.8753
5002.45 67.8327 3.16699
5005.35 94.5359 13.7138
5008.24 83.4703 15.0694
5011.14 68.354 -0.402975
5014.03 61.483 -14.8446
5016.93 63.5296 18.3912
5019.82 88.2536 9.48711
5022.72 48.1152 10.3128
5025.61 66.8341 8.17163
5028.51 53.0342 2.94144
5031.4 61.1997 -1.69839
5034.3 70.779 2.06193
5037.19 64.4061 4.66162
5040.09 47.9677 24.7958
5042.98 38.153 -4.24022
5045.88 72.3826 8.22117
5048.77 65.2871 3.12592
5051.67 61.1641 -3.25125
5054.56 66.7498 23.9227
5057.46 63.6476 10.0631
5060.35 59.2623 4.2463
5063.25 67.6228 -14.8774
5066.14 62.0999 23.4881
5069.03 72.723 -7.07078
5071.93 63.8892 12.6664
5074.82 58.3292 17.4557
5077.72 94.3055 22.0497
5080.61 70.4618 29.0578
5083.5 70.1858 5.34477
5086.4 65.8071 36.8854
5089.29 71.1386 24.8977
5092.18 73.3329 1.96437
5095.08 44.0888 1.51994
5097.97 76.7601 11.7398
5100.86 67.5179 14.1072
5103.76 61.7477 -2.6718
5106.65 67.7717 32.9648
5109.54 80.4613 18.0723
5112.44 82.5426 17.407
5115.33 59.8156 19.0508
5118.22 70.0859 -0.166386
5121.11 58.6142 17.948
5124.01 44.5674 1.54947
5126.9 77.9298 -2.60448
5129.79 71.4287 6.29359
5132.68 74.126 -6.88386
5135.57 65.7622 5.53259
5138.47 59.2509 23.8476
5141.36 70.4468 28.7885
5144.25 63.5407 6.3821
5147.14 61.2794 9.81055
5150.03 61.9151 14.3776
5152.93 82.4608 12.75
5155.82 47.7602 8.98978
5158.71 55.8543 9.24097
5161.6 67.7796 -9.74224
5164.49 46.4087 0.312148
5167.38 62.8943 6.9259
5170.27 56.2728 12.1187
5173.16 17.3968 28.2697
5176.05 67.1266 1.96326
5178.95 57.8704 -6.36825
5181.84 37.8024 10.0829
5184.73 52.2726 -5.10888
5187.62 54.3263 11.8576
5190.51 43.5561 1.09195
5193.4 85.1533 1.01938
5196.29 62.3626 12.3708
5199.18 57.965 8.72898
5202.07 31.3804 10.077
5204.96 50.557 -1.96598
5207.85 84.4246 7.08286
5210.74 66.0664 20.8357
5213.63 58.3351 16.9517
5216.52 56.3041 4.63862
5219.41 77.1237 17.0546
5222.3 70.9891 23.86
5225.19 81.1246 2.52166
5228.07 70.5431 -15.6234
5230.96 75.6768 17.0481
5233.85 76.4087 17.4054
5236.74 53.3919 1.78617
5239.63 50.5702 14.8438
5242.52 66.5963 -4.35911
5245.41 68.6243 0.900021
5248.3 69.587 5.73375
5251.19 70.2983 20.8698
5254.07 77.7025 16.7991
5256.96 66.4113 19.1945
5259.85 78.5516 13.0944
5262.74 100.448 19.1354
5265.63 67.2688 16.5977
5268.51 76.074 29.1504
5271.4 80.5134 7.8991
5274.29 102.293 11.1608
5277.18 94.2784 -15.6437
5280.07 88.1836 -2.45329
5282.95 82.6951 10.7288
5285.84 87.5694 28.6899
5288.73 61.4067 28.9343
5291.62 76.4539 16.6018
5294.5 109.3 1.74259
5297.39 89.5917 2.37291
5300.28 90.147 25.2301
5303.16 72.809 -2.4062
5306.05 88.1379 14.6492
5308.94 92.9726 3.28851
5311.82 73.7544 11.6913
5314.71 64.9178 -4.01095
5317.6 69.7384 12.2256
5320.48 45.0358 10.6603
5323.37 71.1196 1.33699
5326.25 50.9178 12.8929
5329.14 75.2628 -19.0067
5332.03 90.2022 19.6775
5334.91 66.4359 11.5283
5337.8 87.4486 9.93795
5340.68 94.0625 -0.998876
5343.57 65.0331 23.3507
5346.45 57.529 16.9718
5349.34 85.3899 28.5468
5352.22 69.4234 8.34292
5355.11 68.8524 13.4382
5358 85.3 6.07588
5360.88 73.5949 31.8517
5363.76 51.0631 2.4463
5366.65 56.1483 1.01582
5369.53 79.0465 7.10576
5372.42 82.805 10.6336
5375.3 92.7309 12.8888
5378.19 72.8746 -2.99048
5381.07 90.0066 25.6246
5383.96 79.9429 13.8367
5386.84 73.5381 19.2626
5389.72 66.7145 -11.6378
5392.61 67.5998 11.4689
5395.49 50.9153 16.8421
5398.38 60.7153 -8.2476
5401.26 63.024 26.4014
5404.14 73.9318 6.05996
5407.03 90.695 12.9591
5409.91 80.2726 11.1053
5412.79 77.4714 27.2036
5415.68 80.5524 15.5646
5418.56 71.8134 16.5831
5421.44 88.2048 9.68734
5424.32 66.0964 4.22028
5427.21 46.8618 12.482
5430.09 61.1476 8.29644
5432.97 62.8169 24.037
5435.85 78.9393 3.29931
5438.74 55.9147 25.0968
5441.62 44.2132 12.6002
5444.5 82.6311 8.81806
5447.38 73.3052 19.0645
5450.27 72.9564 17.934
5453.15 83.605 -5.48895
5456.03 54.2799 9.43082
5458.91 74.8061 11.2388
5461.79 65.944 -0.219365
5464.67 77.0782 11.5006
5467.55 67.642 2.42682
5470.44 79.3219 26.0915
5473.32 62.124 -14.4772
5476.2 79.632 9.45632
5479.08 57.0899 17.8656
5481.96 72.7811 3.94238
5484.84 72.6785 24.6855
5487.72 30.0485 -7.11564
5490.6 75.5098 11.8394
5493.48 75.1009 24.9377
5496.36 69.8436 21.0534
5499.24 62.2949 14.5128
5502.12 85.1625 13.0025
5505 80.7171 16.6592
5507.88 53.0059 20.2157
5510.76 82.6139 2.2569
5513.64 64.5161 15.3777
5516.52 84.5779 17.6993
5519.4 74.382 2.75285
5522.28 80.4761 9.61266
5525.16 67.5494 2.78084
5528.04 75.9199 10.5656
5530.92 61.616 1.89808
5533.8 78.6657 4.27049
5536.68 84.6072 -4.52181
5539.55 68.894 15.0263
5542.43 58.0759 2.17734
5545.31 46.7008 22.0127
5548.19 73.5113 22.7299
5551.07 78.0449 3.6954
5553.95 60.1832 9.70008
5556.82 57.6306 14.967
5559.7 73.2645 28.6765
5562.58 66.693 9.12314
5565.46 63.5721 25.3039
5568.34 45.381 5.52047
5571.21 66.375 -2.51733
5574.09 56.8055 52.5508
5576.97 73.2954 -2.80357
5579.85 78.111 20.9119
5582.72 57.1312 -2.94623
5585.6 60.4614 16.1251
5588.48 51.9305 5.70833
5591.35 60.9426 16.1635
5594.23 53.4637 11.7069
5597.11 65.2589 15.9731
5599.98 61.0561 38.056
5602.86 74.4304 5.04784
5605.74 61.8334 8.40245
5608.61 62.1278 8.63179
5611.49 65.0223 6.23818
5614.37 42.1659 5.45989
5617.24 58.2232 16.3166
5620.12 78.7754 8.63212
5622.99 45.2327 12.7235
5625.87 81.5086 3.45704
5628.74 73.8495 17.2911
5631.62 57.0213 17.4211
5634.49 63.4577 22.3685
5637.37 54.1099 19.4668
5640.24 83.3268 24.2795
5643.12 53.7571 2.21037
5645.99 52.4973 -4.07228
5648.87 73.9418 12.8946
5651.74 75.004 23.985
5654.62 69.4712 25.5216
5657.49 72.7472 12.1145
5660.37 67.1114 4.91746
5663.24 58.6569 25.0109
5666.12 69.1909 15.5118
5668.99 72.5667 -3.45787
5671.86 54.2862 4.89568
5674.74 55.0376 20.6851
5677.61 80.4741 18.4494
5680.48 76.016 10.8677
5683.36 72.9969 3.30663
5686.23 66.2766 14.6929
5689.1 52.9002 9.90637
5691.98 72.3504 4.71265
5694.85 74.8469 5.80354
5697.72 67.6095 -3.13391
5700.6 67.6516 18.615
5703.47 73.6285 -5.42633
5706.34 73.2523 12.9109
5709.21 93.3731 4.48507
5712.09 64.3156 21.9788
5714.96 57.8133 3.22125
5717.83 92.5317 17.0054
5720.7 72.8334 10.4677
5723.57 59.3216 12.9977
5726.45 66.0676 20.2371
5729.32 78.9873 14.4242
5732.19 63.3538 3.17746
5735.06 48.4647 8.15396
5737.93 69.1593 -4.75054
5740.8 66.8866 15.3286
5743.67 58.6064 -11.3922
5746.54 81.4061 23.0001
5749.42 52.8872 15.5
5752.29 68.9558 31.6271
5755.16 66.3434 11.9954
5758.03 68.7015 14.8371
5760.9 50.0319 37.2335
5763.77 43.5717 25.9345
5766.64 73.2662 -0.962979
5769.51 62.5234 10.9674
5772.38 70.2849 11.6176
5775.25 83.335 0.134005
5778.12 61.4951 -0.313896
5780.99 68.4172 17.859
5783.86 83.0665 17.1716
5786.73 58.0575 5.78844
5789.6 70.7555 3.91989
5792.46 67.8464 5.69227
5795.33 81.557 -3.77552
5798.2 86.5913 15.9817
5801.07 47.2828 9.9008
5803.94 62.7776 9.60536
5806.81 66.8667 10.8502
5809.68 66.1213 10.9628
5812.55 58.6514 -4.5716
5815.41 70.957 7.43134
5818.28 74.1821 12.1211
5821.15 49.5964 8.71204
5824.02 83.9289 15.3595
5826.89 57.6331 15.4388
5829.75 74.125 24.7943
5832.62 48.5316 26.1521
5835.49 59.0179 -11.0084
5838.36 64.3612 10.5105
5841.22 76.0665 13.9858
5844.09 54.6163 6.56261
5846.96 54.0717 16.2312
5849.82 52.7957 14.5032
5852.69 60.1771 11.0131
5855.56 58.2078 13.3318
5858.42 46.9136 18.1256
5861.29 63.3007 1.32394
5864.16 61.0681 8.74711
5867.02 38.278 19.5992
5869.89 65.5715 17.302
5872.75 60.7318 11.1922
5875.62 75.6204 8.41823
5878.49 64.3468 25.3714
5881.35 72.3055 2.23553
5884.22 54.9417 7.17718
5887.08 56.0496 0.391026
5889.95 60.537 11.7911
5892.81 50.8504 15.5149
5895.68 63.4544 1.95195
5898.54 47.0813 10.5641
5901.41 51.3618 25.8176
5904.27 45.2303 8.36754
5907.13 54.9008 5.29304
5910 70.9644 7.45893
5912.86 79.1478 1.25294
5915.73 58.681 19.2245
5918.59 72.8094 11.4521
5921.46 46.4327 20.8644
5924.32 55.3133 -1.17892
5927.18 74.803 13.3275
5930.05 51.4296 22.9397
5932.91 84.5911 13.0335
5935.77 54.2141 18.9488
5938.64 49.4641 26.6931
5941.5 57.5394 14.0554
5944.36 51.0108 7.20271
5947.22 74.7309 9.0584
5950.09 63.8518 0.371877
5952.95 57.9137 13.8822
5955.81 51.8501 11.603
5958.67 74.0757 9.81252
5961.54 66.4028 13.4663
5964.4 53.9306 3.73157
5967.26 71.3801 -5.83431
5970.12 76.6742 6.85326
5972.98 71.9274 8.74637
5975.84 49.7221 -2.02338
5978.71 65.4355 19.0908
5981.57 63.3413 1.90656
5984.43 54.3956 6.36249
5987.29 67.8458 19.6335
5990.15 40.9094 15.1793
5993.01 51.8706 9.68403
5995.87 57.0888 2.23315
5998.73 67.2355 7.83165
6001.59 47.7629 6.07905
6004.45 77.5889 13.2138
6007.31 60.2027 11.1794
6010.17 48.1491 6.28836
6013.03 58.9515 20.0919
6015.89 66.438 3.24203
6018.75 62.812 10.002
6021.61 66.6047 9.47414
6024.47 68.8522 13.4001
6027.33 64.0995 12.2126
6030.19 53.1362 13.9208
6033.05 48.8052 2.8678
6035.91 65.9255 16.3076
6038.77 61.3694 26.8106
6041.63 64.0111 -2.27524
6044.48 56.7964 9.81626
6047.34 66.2533 19.1533
6050.2 63.1604 14.6508
6053.06 44.0895 12.9352
6055.92 63.48 13.2291
6058.77 51.4027 9.28018
6061.63 53.0482 14.281
6064.49 51.7132 8.96055
6067.35 61.6818 19.361
6070.2 66.6647 9.99024
6073.06 61.8304 17.8077
6075.92 46.7787 13.3548
6078.78 55.4898 9.82986
6081.63 57.041 16.9211
6084.49 54.3355 10.994
6087.35 53.5798 7.80499
6090.2 56.8708 6.24194
6093.06 45.6057 16.2338
6095.91 54.9608 14.1578
6098.77 60.2683 28.6432
6101.63 46.1408 17.3663
6104.48 56.479 12.6273
6107.34 56.2691 9.72176
6110.19 60.5653 6.66314
6113.05 45.8014 10.4489
6115.9 57.4312 10.2919
6118.76 38.9341 -1.92103
6121.61 48.5411 16.7769
6124.47 76.373 1.5566
6127.32 54.4753 13.1593
6130.18 45.279 4.60451
6133.03 61.9649 5.4884
6135.89 68.0463 10.0954
6138.74 52.343 6.70568
6141.6 56.4633 2.5795
6144.45 43.3344 6.3772
6147.3 63.2536 19.9793
6150.16 62.9865 5.61637
6153.01 48.1442 11.588
6155.86 60.7383 -2.27844
6158.72 53.0627 25.5199
6161.57 65.5031 6.46528
6164.42 76.5381 13.2376
6167.28 62.5708 22.6194
6170.13 67.8874 -4.37502
6172.98 57.635 8.17264
6175.84 52.0252 10.8622
6178.69 44.1152 11.7839
6181.54 49.7126 9.4892
6184.39 67.2311 4.35968
6187.24 48.2669 20.8869
6190.1 61.3238 12.1965
6192.95 55.9881 24.5208
6195.8 70.3591 14.2979
6198.65 55.4294 23.9546
6201.5 72.9685 18.7626
6204.35 61.4555 19.0652
6207.2 42.9983 6.57346
6210.05 49.9299 17.8019
6212.91 56.6216 26.1051
6215.76 47.8346 18.3898
6218.61 52.1608 10.8375
6221.46 62.9157 9.2757
6224.31 56.7353 16.1126
6227.16 53.3631 5.59195
6230.01 46.362 13.4553
6232.86 54.3786 8.89521
6235.71 37.5616 22.9007
6238.56 61.1271 13.0786
6241.41 64.3291 10.2051
6244.25 67.7799 21.0257
6247.1 60.4731 22.3555
6249.95 66.848 11.3316
6252.8 48.3637 15.3864
6255.65 53.7705 0.852312
6258.5 61.5684 24.7955
6261.35 44.149 16.6227
6264.2 68.1332 8.89086
6267.04 48.1329 11.7538
6269.89 54.9095 12.0139
6272.74 50.7084 2.20906
6275.59 78.5578 7.31994
6278.44 53.6787 19.8956
6281.28 63.0908 16.5139
6284.13 51.5167 3.51735
6286.98 69.4214 21.0218
6289.82 49.7075 4.85316
6292.67 76.0315 10.141
6295.52 76.2813 32.8374
6298.36 60.435 10.9997
6301.21 74.5557 17.6903
6304.06 57.5197 -0.415299
6306.9 50.9649 12.9716
6309.75 81.3099 6.73462
6312.6 51.6679 10.6377
6315.44 45.8885 5.87988
6318.29 52.5443 14.7292
6321.13 65.7905 17.7133
6323.98 36.2966 0.49756
6326.82 41.471 10.7794
6329.67 60.3168 8.97998
6332.51 45.323 3.1225
6335.36 45.5657 6.49034
6338.2 68.1805 14.4598
6341.05 57.3828 -8.70855
6343.89 62.9085 6.06087
6346.74 30.7163 7.2094
6349.58 65.2422 8.04449
6352.42 55.6218 15.7526
6355.27 63.4718 26.1373
6358.11 48.9879 9.5945
6360.95 41.6485 14.9618
6363.8 70.1601 17.9111
6366.64 55.7933 13.2801
6369.48 48.835 15.4641
6372.33 59.8448 20.2644
6375.17 46.0526 6.42615
6378.01 54.2304 6.85337
6380.86 50.1481 16.981
6383.7 42.2728 11.1508
6386.54 38.9559 19.8933
6389.38 52.0915 2.68283
6392.22 34.953 14.0923
6395.07 57.1107 17.225
6397.91 40.1215 0.356735
6400.75 65.997 9.499
6403.59 61.9426 3.76222
6406.43 56.9466 11.0257
6409.27 39.8512 -3.96511
6412.11 48.3319 12.7524
6414.95 50.9102 3.82494
6417.79 40.9323 7.4521
6420.64 39.8351 6.3713
6423.48 49.5088 5.54322
6426.32 37.428 12.2533
6429.16 46.4214 0.848058
6432 41.8198 -6.60648
6434.84 56.2873 19.2108
6437.67 40.4966 4.79691
6440.51 17.2056 16.5273
6443.35 40.3585 7.75779
6446.19 33.5456 11.6575
6449.03 29.1047 1.96168
6451.87 29.5811 9.34922
6454.71 31.1244 8.01113
6457.55 53.0184 10.3539
6460.39 24.3048 14.6218
6463.22 34.3215 -8.20158
6466.06 37.1803 5.22752
6468.9 37.0606 -6.71066
6471.74 48.3662 -6.04168
6474.58 32.9871 0.30684
6477.41 23.4058 -0.0907325
6480.25 37.9706 2.75608
6483.09 52.0677 -6.85368
6485.93 37.7934 -3.5077
6488.76 39.6179 10.2868
6491.6 29.9203 16.079
6494.44 27.0587 10.4247
6497.27 20.3542 10.2266
6500.11 35.4702 8.92196
6502.94 36.3767 -7.57963
6505.78 33.5382 16.0467
6508.62 25.3205 1.89416
6511.45 27.0854 8.06788
6514.29 40.5476 18.7077
6517.12 33.1793 6.38913
6519.96 27.251 8.36576
6522.79 38.4306 3.43509
6525.63 33.1659 15.2651
6528.46 37.3156 17.5056
6531.3 30.8966 15.6952
6534.13 40.708 4.57675
6536.97 45.3649 9.63755
6539.8 45.827 7.95771
6542.63 41.9405 2.97993
6545.47 48.0835 13.5306
6548.3 27.8537 10.8788
6551.14 48.1364 9.31186
6553.97 51.6342 13.9302
6556.8 45.6665 17.3888
6559.64 55.2279 10.3418
6562.47 51.5911 4.56456
6565.3 56.5243 19.3018
6568.13 62.403 8.24764
6570.97 76.568 7.46571
6573.8 83.7662 10.7999
6576.63 65.2933 12.8688
6579.46 81.6441 23.0709
6582.29 71.9072 23.9615
6585.13 79.4543 26.703
6587.96 69.9417 17.2806
6590.79 76.872 22.654
6593.62 78.2922 21.6105
6596.45 80.2291 19.0691
6599.28 88.087 16.9528
6602.11 81.3984 21.1841
6604.94 95.2569 14.3959
6607.77 87.1048 30.0427
6610.61 100.548 28.1177
6613.44 93.7837 18.4792
6616.27 107.074 32.8886
6619.1 111.58 22.0473
6621.92 96.6493 33.2131
6624.75 88.7603 22.9316
6627.58 97.9702 23.5938
6630.41 103.338 26.7404
6633.24 101.756 31.5835
6636.07 88.9509 25.2372
6638.9 99.913 20.3722
6641.73 90.6178 27.8486
6644.56 87.9236 34.7879
6647.38 115.153 23.9076
6650.21 108.222 22.9984
6653.04 118.499 35.4623
6655.87 115.209 29.7943
6658.7 81.8706 31.8626
6661.52 88.0624 24.6321
6664.35 99.7329 27.3623
6667.18 92.9286 31.6075
6670.01 81.8312 30.5421
6672.83 79.3643 18.8625
6675.66 82.3339 29.5416
6678.49 104.301 24.6135
6681.31 87.1516 27.5789
6684.14 106.726 24.1061
6686.96 79.3671 15.6368
6689.79 90.0154 14.573
6692.62 79.8459 19.0261
6695.44 103.309 16.2059
6698.27 94.4883 22.3745
6701.09 89.0058 15.1463
6703.92 74.1559 21.3672
6706.74 82.8459 15.037
6709.57 90.3707 16.1533
6712.39 88.7321 17.6978
6715.22 76.8954 29.7195
6718.04 86.5531 19.5341
6720.86 67.1292 21.2316
6723.69 67.2947 19.308
6726.51 77.3868 23.4497
6729.33 70.296 7.1765
6732.16 76.141 15.4132
6734.98 70.459 12.9856
6737.8 68.9415 27.7428
6740.63 73.2375 9.68418
6743.45 70.7614 21.5448
6746.27 71.959 11.3303
6749.1 71.4192 11.6347
6751.92 71.1517 12.7156
6754.74 54.147 15.0363
6757.56 64.2782 33.6135
6760.38 69.7867 25.4378
6763.2 55.0076 17.868
6766.03 53.0959 10.7444
6768.85 56.3824 12.8717
6771.67 64.2807 8.77353
6774.49 81.4244 19.8633
6777.31 59.2366 20.3759
6780.13 48.3335 6.22135
6782.95 74.3205 19.6565
6785.77 79.8039 11.7203
6788.59 58.9968 19.8207
6791.41 60.3304 8.15003
6794.23 58.9787 13.4973
6797.05 61.0366 16.176
6799.87 70.167 21.4081
6802.69 55.907 9.00056
6805.51 66.6652 5.88923
6808.33 58.3133 6.71532
6811.15 65.9772 20.1619
6813.97 70.119 5.97009
6816.78 49.5977 7.80484
6819.6 45.0902 6.49748
6822.42 66.1213 6.16707
6825.24 61.7613 7.78978
6828.06 55.9977 20.0637
6830.87 59.4698 16.0999
6833.69 41.6536 13.2899
6836.51 57.4969 15.1349
6839.33 57.642 9.41164
6842.14 50.1386 5.02451
6844.96 46.135 11.682
6847.78 58.4708 18.5552
6850.59 55.2942 16.4186
6853.41 42.7686 27.4782
6856.22 46.5307 6.08742
6859.04 54.6076 8.44769
6861.86 62.1669 3.91621
6864.67 45.8549 6.9242
6867.49 35.2072 0.685043
6870.3 32.5505 14.3024
6873.12 48.1981 11.4677
6875.93 37.0077 4.9917
6878.75 37.3141 10.7151
6881.56 44.3541 4.54631
6884.37 47.3465 18.2899
6887.19 40.3468 5.88306
6890 37.7958 21.6747
6892.82 49.1912 11.5254
6895.63 38.9337 12.6493
6898.44 34.8438 1.5013
6901.26 57.8259 7.0775
6904.07 49.4247 7.99542
6906.88 41.6827 2.71208
6909.7 61.0715 16.4226
6912.51 40.9525 14.896
6915.32 45.8371 5.48883
6918.13 55.5925 7.7755
6920.95 55.6405 7.80948
6923.76 67.1787 2.54684
6926.57 53.3344 19.2787
6929.38 49.4191 6.0578
6932.19 35.9623 17.1891
6935 40.4839 11.0864
6937.81 36.9572 11.3792
6940.63 57.0918 16.7572
6943.44 55.0227 8.2565
6946.25 45.7955 23.7638
6949.06 42.0347 0.0260077
6951.87 50.1776 9.47386
6954.68 50.7263 3.92244
6957.49 42.3692 12.2983
6960.3 32.6211 13.4852
6963.11 58.3661 6.26472
6965.91 38.0116 14.0748
6968.72 36.7249 7.57055
6971.53 42.4601 9.65756
6974.34 41.279 7.13267
6977.15 53.3976 11.4942
6979.96 48.3538 1.12948
6982.77 32.6532 11.1849
6985.57 31.1038 12.8113
6988.38 50.1862 15.8594
6991.19 41.7015 9.3195
6994 28.0168 10.8604
6996.8 48.197 11.6148
6999.61 31.1149 8.4605
7002.42 37.974 14.0331
7005.23 40.8454 8.86781
7008.03 49.0349 17.0021
7010.84 45.6385 11.1757
7013.64 44.7278 12.8961
7016.45 44.0293 10.8842
7019.26 52.7735 3.42124
7022.06 46.1415 7.06729
7024.87 46.954 7.95295
7027.67 46.8189 4.4367
7030.48 44.3965 10.9745
7033.28 40.8616 -0.138494
7036.09 44.8074 3.75563
7038.89 55.4784 11.6429
7041.7 47.2107 -2.71158
7044.5 43.4866 15.5943
7047.31 64.1711 -1.17234
7050.11 48.3336 20.1165
7052.91 77.3177 3.37935
7055.72 45.3467 12.0828
7058.52 66.1791 15.0043
7061.32 49.3264 6.70039
7064.13 52.7839 23.7751
7066.93 38.1021 10.1272
7069.73 35.8524 6.25428
7072.53 43.1414 22.1715
7075.34 50.5488 5.99884
7078.14 41.5789 15.4083
7080.94 37.2934 0.118387
7083.74 33.3602 18.8111
7086.54 55.7808 9.25626
7089.34 55.5093 9.05116
7092.14 51.754 9.76264
7094.95 55.1094 7.95762
7097.75 51.3379 3.91387
7100.55 46.613 14.1279
7103.35 42.8941 10.7306
7106.15 57.2524 6.73643
7108.95 52.8211 9.18147
7111.75 45.5851 17.0726
7114.55 43.1675 12.95
7117.35 44.4819 8.01905
7120.15 48.5864 14.6175
7122.94 40.0651 1.50441
7125.74 44.3023 9.37917
7128.54 37.0788 14.4281
7131.34 47.7839 11.4036
7134.14 41.1093 16.4221
7136.94 45.0305 4.68762
7139.73 39.0487 18.1043
7142.53 55.189 4.56937
7145.33 49.1295 16.4031
7148.13 50.1981 12.383
7150.92 52.1602 16.7757
7153.72 44.7243 -1.15373
7156.52 34.1359 13.8821
7159.31 29.9546 8.73657
7162.11 46.6186 12.1627
7164.91 57.6901 11.7206
7167.7 42.8037 6.36907
7170.5 43.1414 15.7663
7173.29 47.0137 16.4994
7176.09 31.0377 3.13274
7178.89 45.4204 14.7815
7181.68 36.0904 5.84584
7184.48 40.1428 5.61617
7187.27 43.9973 6.95254
7190.06 38.9227 4.57807
7192.86 34.89 6.05447
7195.65 36.7448 10.0276
7198.45 46.0261 5.25601
7201.24 43.3346 0.148558
7204.03 36.696 2.34015
7206.83 38.9997 10.9091
7209.62 52.46 -1.20274
7212.41 50.8902 14.6035
7215.21 50.931 4.51211
7218 44.9963 8.14096
7220.79 29.6052 9.02922
7223.58 42.6698 11.1683
7226.37 51.0657 5.82727
7229.17 51.3242 9.80081
7231.96 35.0076 8.14299
7234.75 45.9398 8.30747
7237.54 33.5464 6.4589
7240.33 60.8887 3.94729
7243.12 45.946 4.69513
7245.91 57.8069 6.47133
7248.7 30.7689 -0.344434
7251.49 32.2186 7.40654
7254.28 43.1119 14.1326
7257.07 22.7242 6.78608
7259.86 32.4042 17.4686
7262.65 41.979 8.72593
7265.44 28.6785 9.16641
7268.23 48.2445 25.8424
7271.02 29.7598 17.9196
7273.81 49.9928 -3.67125
7276.6 38.7361 22.1565
7279.39 31.2157 -1.95064
7282.17 46.2287 -5.16478
7284.96 46.9271 -2.32335
7287.75 31.9472 12.9493
7290.54 40.1465 -3.88828
7293.32 41.8103 2.23967
7296.11 50.7738 12.5623
7298.9 48.1613 -6.19749
7301.68 41.5988 16.5246
7304.47 48.0501 2.37772
7307.26 28.8108 11.4936
7310.04 43.2678 11.4494
7312.83 38.341 5.02984
7315.61 42.7429 26.6455
7318.4 39.894 17.7345
7321.19 48.9045 21.2601
7323.97 41.2672 23.0525
7326.76 29.4507 27.1482
7329.54 50.5117 9.19211
7332.32 47.921 15.1555
7335.11 42.3111 21.778
7337.89 54.1366 4.68845
7340.68 42.1714 19.4234
7343.46 36.7516 22.7973
7346.24 32.0298 2.37734
7349.03 33.2692 25.6814
7351.81 51.0345 -0.561233
7354.59 39.5382 11.3987
7357.38 64.1177 3.88983
7360.16 57.6534 22.3918
7362.94 37.1513 4.47654
7365.72 62.0061 9.15631
7368.5 57.4462 -0.519129
7371.29 30.8982 6.29253
7374.07 47.1656 11.2629
7376.85 51.7973 -2.64225
7379.63 58.5979 8.4724
7382.41 38.1268 12.7827
7385.19 28.9514 7.52017
7387.97 46.1619 13.3215
7390.75 43.5087 5.08097
7393.53 32.512 22.4354
7396.31 50.566 2.989
7399.09 41.8571 14.1976
7401.87 34.5662 10.1526
7404.65 37.8901 2.78121
7407.43 33.4641 17.7624
7410.21 39.7176 11.1512
7412.99 39.0352 5.99199
7415.76 41.7471 10.4587
7418.54 39.9801 11.8026
7421.32 50.4395 -4.49749
7424.1 56.6484 13.7353
7426.88 50.9506 3.87244
7429.65 36.9447 18.3235
7432.43 54.9378 6.57435
7435.21 30.6658 14.2731
7437.98 41.1454 -0.357603
7440.76 34.5907 -0.560006
7443.54 34.1684 11.27
7446.31 37.4333 5.42089
7449.09 37.603 3.76349
7451.86 35.9974 10.2122
7454.64 28.8293 7.86399
7457.42 49.9583 13.3511
7460.19 47.4039 -1.99582
7462.97 40.1581 21.6935
7465.74 34.8879 6.47934
7468.51 30.7003 19.0521
7471.29 45.5857 11.9821
7474.06 48.8981 0.513392
7476.84 30.6512 -0.53396
7479.61 33.9174 7.55076
7482.38 48.9542 3.14141
7485.16 41.1299 6.91736
7487.93 34.3742 6.92267
7490.7 34.6776 8.61886
7493.47 40.7224 10.7183
7496.25 34.5885 -4.57427
7499.02 42.497 9.37746
7501.79 40.3191 13.2091
7504.56 55.8396 8.55122
7507.33 37.4032 -1.93002
7510.1 43.1764 9.2566
7512.88 44.9717 4.46676
7515.65 43.504 11.0246
7518.42 37.3868 21.5687
7521.19 54.1514 5.68476
7523.96 42.8615 6.9716
7526.73 29.2331 17.2501
7529.5 38.2882 15.727
7532.27 41.9647 11.8454
7535.04 50.4484 15.6196
7537.81 45.3275 17.8818
7540.57 36.0114 3.17306
7543.34 43.3485 14.3587
7546.11 31.3765 -7.78655
7548.88 38.0464 7.44513
7551.65 51.2083 5.75946
7554.42 44.2681 6.12204
7557.18 38.1305 -2.89544
7559.95 44.7736 12.948
7562.72 51.4872 -8.68814
7565.48 41.2432 6.69031
7568.25 31.8668 17.6768
7571.02 45.1768 2.84217
7573.78 37.5184 10.6091
7576.55 34.7391 11.927
7579.32 42.4186 13.7212
7582.08 33.6008 -8.95514
7584.85 38.0051 10.4618
7587.61 41.5751 11.7146
7590.38 32.8628 8.92876
7593.14 26.8257 7.18832
7595.91 30.4738 1.39932
7598.67 17.0059 -2.82558
7601.44 10.3544 3.16739
7604.2 8.37361 -7.95378
7606.96 12.7533 -0.127804
7609.73 7.75088 -2.70933
7612.49 22.1322 0.247314
7615.25 12.2098 -0.388315
7618.02 27.9139 13.1866
7620.78 30.4115 1.21188
7623.54 16.1908 11.2717
7626.3 33.5066 0.757876
7629.06 22.9558 3.18786
7631.83 20.5322 -8.56106
7634.59 13.07 -0.575296
7637.35 27.3364 5.26839
7640.11 38.2993 -1.86941
7642.87 9.20458 -1.69629
7645.63 37.1783 4.58334
7648.39 21.8133 15.884
7651.15 35.8971 1.40602
7653.91 19.3649 12.4106
7656.67 25.5668 6.26034
7659.43 28.2749 2.04861
7662.19 30.088 12.5251
7664.95 32.2498 7.3123
7667.71 33.3832 7.81515
7670.47 38.283 20.6205
7673.22 30.4714 6.60842
7675.98 38.1524 3.84851
7678.74 41.5648 20.4216
7681.5 30.5042 13.7547
7684.26 48.8477 6.60272
7687.01 24.2538 14.3006
7689.77 28.7282 18.7113
7692.53 34.8093 13.3475
7695.28 27.6941 17.3841
7698.04 36.9704 9.2916
7700.8 39.1428 15.2308
7703.55 37.645 14.4439
7706.31 31.0849 21.8269
7709.06 48.3299 14.4049
7711.82 39.9511 25.9125
7714.57 40.8838 25.9203
7717.33 48.3422 9.11609
7720.08 26.0167 42.9795
7722.84 21.3553 8.75413
7725.59 35.473 17.4683
7728.34 39.9619 9.93798
7731.1 47.9469 18.1196
7733.85 31.2375 -0.284518
7736.6 40.7799 8.96478
7739.36 36.5484 20.3615
7742.11 32.7232 14.9518
7744.86 38.0787 19.3785
7747.62 66.842 27.4897
7750.37 46.6835 6.28956
7753.12 34.7169 5.79423
7755.87 46.9865 2.99543
7758.62 46.5609 5.9197
7761.37 45.1147 2.33399
7764.12 32.3635 1.48253
7766.87 45.8481 6.55834
7769.62 55.0077 4.75596
7772.37 12.8187 7.81047
7775.12 34.6086 6.98699
7777.87 44.034 17.379
7780.62 24.2851 18.043
7783.37 38.1267 5.14637
7786.12 26.7719 19.7798
7788.87 45.1105 12.554
7791.62 41.1057 0.625725
7794.37 56.3293 3.61916
7797.12 33.9128 10.0733
7799.86 35.6794 -3.38069
7802.61 10.5607 -3.05417
7805.36 34.2804 18.5404
7808.11 22.9604 -3.3048
7810.85 48.6781 9.25711
7813.6 23.4295 -2.23759
7816.35 43.1182 35.8732
7819.09 51.5118 2.88217
7821.84 71.266 9.59689
7824.58 39.3625 12.957
7827.33 33.9801 21.9496
7830.07 33.0487 -0.654577
7832.82 26.6817 19.224
7835.56 38.5994 13.0213
7838.31 39.3966 3.9765
7841.05 48.5252 19.7337
7843.8 29.2028 31.0478
7846.54 32.7925 4.64898
7849.28 39.1382 5.95549
7852.03 48.7503 3.48057
7854.77 34.8043 -1.16962
7857.51 64.6246 30.3837
7860.26 44.8944 13.1822
7863 30.4269 12.1656
7865.74 47.3283 30.1172
7868.48 34.443 3.03053
7871.23 50.6448 7.03421
7873.97 15.506 22.4665
7876.71 26.3627 -4.34314
7879.45 22.6741 21.4591
7882.19 41.9984 0.689629
7884.93 59.987 8.56308
7887.67 39.822 7.61858
7890.41 36.9822 13.5499
7893.15 46.178 11.2929
7895.89 37.4815 10.95
7898.63 39.9763 23.2617
7901.37 38.242 4.06994
7904.11 25.3553 14.5184
7906.85 47.4787 12.2461
7909.58 60.1983 6.70391
7912.32 41.5807 6.35929
7915.06 45.3733 10.0999
7917.8 25.28 -9.82186
7920.53 31.197 18.9037
7923.27 17.0881 5.71213
7926.01 49.9924 -1.09376
7928.75 27.4408 2.30528
7931.48 25.6727 20.0408
7934.22 15.8172 4.41238
7936.95 28.6966 -5.3272
7939.69 27.4283 12.8356
7942.43 26.4318 1.72281
7945.16 24.2774 -1.98156
7947.9 33.6157 -8.9715
7950.63 24.3958 9.1553
7953.36 38.1421 17.1352
7956.1 12.2277 18.3545
7958.83 37.5022 8.62085
7961.57 37.1273 18.5662
7964.3 51.1863 -7.46
7967.03 52.5258 16.1815
7969.77 8.84332 -7.4107
7972.5 17.731 -1.25011
7975.23 38.9931 10.0803
7977.96 39.7038 11.5931
7980.7 43.1124 4.82463
7983.43 27.6723 16.0658
7986.16 41.2364 16.7693
7988.89 43.2447 2.44753
7991.62 53.2337 12.4771
7994.35 55.4779 11.0744
7997.08 27.0968 13.9874
7999.81 27.7099 7.07691
8002.54 25.1125 12.2436
8005.27 23.8499 5.41403
8008 22.9862 -8.85073
8010.73 42.6827 -5.21648
8013.46 58.1014 3.1511
8016.19 38.4194 18.5449
8018.92 38.2543 -13.0872
8021.65 34.4262 4.88505
8024.37 45.973 10.5005
8027.1 24.4226 2.2873
8029.83 36.0635 7.08103
8032.56 21.727 13.9572
8035.28 17.0401 16.3943
8038.01 29.2439 27.3506
8040.74 27.8997 7.14799
8043.46 31.5936 8.6349
8046.19 37.6648 13.8641
8048.92 32.5637 9.36238
8051.64 27.6085 4.22675
8054.37 22.4627 -10.4375
8057.09 49.0916 15.6192
8059.82 29.0048 17.8285
8062.54 22.0888 -2.53378
8065.27 40.1591 2.64443
8067.99 48.7939 17.0123
8070.71 33.4318 13.9881
8073.44 29.5597 7.20691
8076.16 40 6.5769
8078.88 21.164 19.9492
8081.61 39.6216 9.31166
8084.33 37.971 24.3017
8087.05 31.7961 4.63749
8089.77 39.6781 6.84456
8092.49 41.9876 17.315
8095.22 34.2539 -1.06307
8097.94 34.522 16.3191
8100.66 34.0657 -0.931762
8103.38 30.3255 6.07388
8106.1 24.8096 7.5735
8108.82 28.5236 4.55782
8111.54 16.0019 -0.614659
8114.26 24.0751 5.33031
8116.98 32.2247 -3.86635
8119.7 33.921 9.69181
8122.42 39.4056 7.64364
8125.14 31.9784 38.2548
8127.85 24.3816 5.62952
8130.57 41.4825 32.8245
8133.29 29.8153 16.015
8136.01 37.2324 8.33642
8138.72 30.2454 24.6022
8141.44 29.0934 11.8249
8144.16 21.1172 11.206
8146.88 35.0208 18.9863
8149.59 37.1821 3.112
8152.31 40.4693 3.62125
8155.02 19.4811 12.6724
8157.74 16.2266 14.2946
8160.45 26.3513 12.5759
8163.17 39.0474 14.5695
8165.88 33.0842 11.0866
8168.6 21.934 -1.00516
8171.31 35.4201 17.2592
8174.03 32.4778 -4.4587
8176.74 30.2754 1.09308
8179.45 30.7185 2.1693
8182.17 43.6967 25.3801
8184.88 21.2408 -2.91051
8187.59 32.2241 -6.3704
8190.31 26.4889 0.190465
8193.02 25.2371 0.896351
8195.73 25.8158 25.6853
8198.44 36.5763 5.44002
8201.15 47.7406 21.3923
8203.86 31.1299 25.9025
8206.57 39.3604 17.8144
8209.28 33.4365 18.653
8212 38.1142 16.188
8214.71 53.6886 7.9135
8217.42 48.8385 8.16365
8220.12 22.2617 -4.17266
8222.83 34.7521 12.1144
8225.54 42.5748 -0.699981
8228.25 21.0504 6.27014
8230.96 40.3427 8.6978
8233.67 30.1315 6.66072
8236.38 48.2207 20.4635
8239.08 35.0988 13.9905
8241.79 27.1696 -4.04294
8244.5 39.9325 32.7305
8247.21 31.244 8.24404
8249.91 42.06 22.8276
8252.62 30.2273 13.3408
8255.32 32.986 -1.86308
8258.03 33.0653 0.719208
8260.74 21.7453 0.260313
8263.44 34.1847 1.00543
8266.15 27.1609 15.1385
8268.85 17.863 5.48865
8271.56 13.8917 12.3706
8274.26 32.897 8.07927
8276.96 40.5536 21.2016
8279.67 38.2408 17.411
8282.37 10.7985 20.2706
8285.07 29.7257 5.62788
8287.78 37.0563 12.614
8290.48 30.5335 4.79472
8293.18 21.9354 12.2403
8295.88 46.8867 24.6872
8298.58 41.4153 25.8436
8301.29 35.7152 -7.21728
8303.99 20.3391 36.9309
8306.69 16.1362 26.7147
8309.39 29.4308 12.4835
8312.09 25.6239 19.0352
8314.79 30.604 10.3996
8317.49 18.7857 0.981799
8320.19 35.257 4.19535
8322.89 31.8829 20.7452
8325.59 28.669 9.75036
8328.29 29.9814 8.32911
8330.98 49.8678 24.0393
8333.68 30.657 14.6238
8336.38 10.8425 9.50479
8339.08 59.7905 3.1891
8341.78 50.4875 24.0383
8344.47 49.641 -1.28107
8347.17 58.8733 6.68284
8349.87 -1.64389 31.0926
8352.56 25.1819 -4.31119
8355.26 26.4704 34.5825
8357.95 -16.553 -15.1673
8360.65 28.7311 20.7981
8363.35 34.3621 4.04139
8366.04 28.3715 6.15249
8368.73 30.9863 -1.9789
8371.43 32.698 20.35
8374.12 26.3591 -4.63092
8376.82 46.5503 15.4626
8379.51 38.9757 18.1216
8382.2 40.6674 0.862713
8384.9 47.2988 12.3871
8387.59 3.75223 -19.9507
8390.28 26.6958 24.2284
8392.97 18.887 -4.36509
8395.67 56.9216 -11.8221
8398.36 40.9864 0.679281
8401.05 55.1354 -4.64275
8403.74 27.2673 10.5039
8406.43 13.1311 -6.57733
8409.12 10.5083 22.7786
8411.81 36.9645 14.0533
8414.5 33.3447 15.4301
8417.19 37.1185 33.2022
8419.88 26.7966 3.39189
8422.57 6.11418 -6.39757
8425.26 33.1012 29.6838
8427.95 60.6108 -35.1068
8430.63 61.5407 8.32719
8433.32 22.3356 9.05684
8436.01 -17.7107 2.01515
8438.7 24.6594 32.6205
8441.38 19.3132 -0.641446
8444.07 8.84949 7.11452
8446.76 19.0029 1.94476
8449.44 27.8511 30.0197
8452.13 28.0525 0.490794
8454.82 37.2404 18.0722
8457.5 12.3873 8.00167
8460.19 20.7241 3.7195
8462.87 26.4137 -2.68455
8465.56 40.2252 -16.219
8468.24 12.1595 22.3008
8470.92 7.66966 6.38823
8473.61 21.1137 7.81269
8476.29 12.4215 16.8948
8478.97 7.76697 -5.31704
8481.66 11.8129 12.4409
8484.34 15.878 21.1637
8487.02 11.0021 1.80872
8489.7 23.4709 1.85986
8492.39 38.1181 15.6383
8495.07 30.8827 -1.68254
8497.75 34.4659 -0.0526076
8500.43 22.2091 19.5532
8503.11 26.5067 -5.39195
8505.79 37.1384 -0.561795
8508.47 19.0193 4.36222
8511.15 5.13468 6.48166
8513.83 11.5562 4.18984
8516.51 4.54228 -25.9624
8519.19 23.9378 -1.57934
8521.87 25.5589 5.74244
8524.54 22.0881 8.46403
8527.22 14.502 23.6917
8529.9 20.8617 36.072
8532.58 13.0857 0.0754574
8535.25 17.9924 40.4953
8537.93 20.8172 4.74362
8540.61 17.0871 14.9624
8543.28 34.6682 -4.20541
8545.96 8.05634 37.4113
8548.63 42.7302 -1.30613
8551.31 46.2242 22.556
8553.98 28.4763 20.6368
8556.66 29.7075 8.38851
8559.33 26.9031 8.73664
8562.01 23.6473 -4.28769
8564.68 23.3346 26.3265
8567.36 29.0535 3.91481
8570.03 26.5991 10.8339
8572.7 15.7712 20.8692
8575.37 15.0708 11.3604
8578.05 23.2821 24.945
8580.72 22.6807 19.4844
8583.39 21.8275 14.9189
8586.06 37.3201 -1.55244
8588.73 35.4723 1.58112
8591.4 35.549 17.907
8594.07 29.966 1.03424
8596.75 48.7049 22.6535
8599.42 34.1788 16.8558
8602.08 18.2665 21.5082
8604.75 10.3621 1.53453
8607.42 28.6506 21.6599
8610.09 30.5203 18.3437
8612.76 23.2866 13.5087
8615.43 24.8775 12.8458
8618.1 18.48 17.7906
8620.76 38.4547 27.8419
8623.43 22.0945 8.8068
8626.1 31.7081 12.228
8628.77 27.6094 -8.87622
8631.43 26.3351 2.40146
8634.1 14.6924 3.34245
8636.76 26.6156 13.9008
8639.43 26.2778 13.0626
8642.1 6.62478 -10.947
8644.76 17.523 10.58
8647.43 25.4097 2.71235
8650.09 26.0171 4.20707
8652.75 14.4433 14.0551
8655.42 24.7405 12.5598
8658.08 39.4549 28.2223
8660.74 12.6443 -1.99896
8663.41 18.7329 8.19027
8666.07 25.3962 -8.82237
8668.73 36.3153 12.1534
8671.39 33.458 -10.4153
8674.06 41.8532 12.0047
8676.72 32.5799 21.1873
8679.38 40.6808 15.0405
8682.04 50.9029 20.4228
8684.7 29.745 11.4397
8687.36 24.917 1.73008
8690.02 25.8985 15.2973
8692.68 27.9113 -5.75451
8695.34 48.7171 7.33085
8698 36.6842 -3.173
8700.66 33.719 14.2199
8703.31 25.272 1.89663
8705.97 40.9385 9.84463
8708.63 22.0813 22.7994
8711.29 25.8827 -14.5599
8713.94 43.3132 30.2131
8716.6 42.4812 15.0463
8719.26 21.557 13.4399
8721.91 36.9301 8.44745
8724.57 28.7351 10.0044
8727.22 35.1909 2.07175
8729.88 31.922 11.1567
8732.53 33.0051 6.07012
8735.19 29.9837 19.4929
8737.84 29.757 18.397
8740.5 26.0213 -13.0565
8743.15 22.1948 16.5724
8745.81 28.401 3.97557
8748.46 32.0566 10.1141
8751.11 28.1165 6.45523
8753.76 24.4431 13.4994
8756.42 8.9225 -5.82
8759.07 44.2765 12.019
8761.72 17.994 11.8817
8764.37 29.5208 16.4858
8767.02 35.1409 20.4707
8769.67 37.7618 26.7153
8772.32 14.5727 5.31766
8774.97 25.458 30.7602
8777.62 66.2467 33.5565
8780.27 48.8591 22.7255
8782.92 47.3687 26.3484
8785.57 11.9679 11.7024
8788.22 30.5289 6.48623
8790.87 35.3086 29.4872
8793.51 42.1576 36.9838
8796.16 33.3155 8.23222
8798.81 39.9789 24.3141
8801.46 30.4043 11.7828
8804.1 38.4303 21.7509
8806.75 31.4278 -13.2424
8809.39 37.0638 24.9013
8812.04 30.675 3.41997
8814.69 22.8281 4.07661
8817.33 14.4216 7.397
8819.97 -8.62712 -24.7806
8822.62 54.1437 20.2912
8825.26 28.2014 23.3948
8827.91 71.8271 44.5459
8830.55 48.0925 15.0081
8833.19 -9.79581 -7.80085
8835.84 25.9839 3.96432
8838.48 17.7995 -11.6275
8841.12 13.355 4.277
8843.76 13.8297 13.8598
8846.4 31.7841 11.7511
8849.05 17.9817 4.58644
8851.69 32.2057 6.35515
8854.33 16.5924 -5.53221
8856.97 8.61679 15.0673
8859.61 15.3296 1.29145
8862.25 38.4409 17.9773
8864.89 43.0566 9.70537
8867.53 42.3578 21.9735
8870.16 45.3334 4.41033
8872.8 13.4729 12.48
8875.44 12.855 28.2638
8878.08 13.331 18.2463
8880.72 39.0518 9.23348
8883.35 57.357 45.1615
8885.99 34.2368 17.6555
8888.63 66.9988 15.877
8891.26 12.7484 5.5665
8893.9 -9.29774 -5.6769
8896.53 21.0798 16.0736
8899.17 39.5821 -0.185345
8901.8 56.9274 30.579
8904.44 9.72863 14.7011
8907.07 48.4143 28.4172
8909.71 20.1645 28.6558
8912.34 0.558874 5.58587
8914.97 18.0124 17.8166
8917.61 90.5232 34.6417
8920.24 12.0784 23.9354
8922.87 82.973 81.7791
8925.5 12.2612 23.7885
8928.13 15.4845 36.1857
8930.76 17.04 25.2818
8933.4 23.4101 17.7087
8936.03 26.516 15.8652
8938.66 23.0537 -12.5449
8941.29 37.5725 -8.08334
8943.92 31.5372 31.5149
8946.55 12.9487 28.268
8949.17 12.4568 18.0202
8951.8 10.1637 26.0558
8954.43 16.9567 22.7407
8957.06 52.9394 16.6742
8959.69 52.8141 -8.81347
8962.31 46.3205 21.2729
8964.94 -19.0537 -56.987
