wavelength spectrum_sum 3smoothed_sum spectrum_optimal 3smoothed_optimal
3402.44 -18.3527 -6.71231 -104.731 -25.0414
3405.37 -1.78419 -22.2733 29.6072 -139.594
3408.3 -46.6828 -17.2227 -343.657 62.4556
3411.23 -3.20105 -11.5407 501.417 -45.7105
3414.16 15.2616 5.77416 -294.891 307.851
3417.09 5.26189 18.8831 717.028 294.012
3420.02 36.1257 9.56291 459.899 402.299
3422.95 -12.6989 8.61228 29.9705 473.846
3425.88 2.41 3.46356 931.669 600.511
3428.8 20.6796 14.1185 839.894 603.107
3431.73 19.2658 9.0914 37.7578 265.828
3434.66 -12.6712 0.658064 -80.1692 14.9475
3437.59 -4.62046 8.90627 87.2538 121.018
3440.52 44.0104 26.7695 355.969 247.568
3443.45 40.9186 42.8989 299.482 74.9606
3446.38 43.7676 18.2947 -430.57 47.9167
3449.3 -29.8023 -2.88709 274.838 33.0878
3452.23 -22.6266 -15.051 254.995 124.174
3455.16 7.27585 -16.4734 -157.31 -139.846
3458.09 -34.0695 -13.7697 -517.222 -122.599
3461.02 -14.5155 -8.66227 306.734 -89.7392
3463.95 22.5982 -0.0409251 -58.7297 2.69403
3466.88 -8.20549 -5.98668 -239.923 -130.649
3469.8 -32.3528 -1.07752 -93.294 -76.7172
3472.73 37.3257 -22.1832 103.065 -19.9216
3475.66 -71.5225 -37.3363 -69.5359 -61.2108
3478.59 -77.8121 -55.1965 -217.162 26.3951
3481.52 -16.2551 -26.8282 365.883 -3.7666
3484.44 13.5825 3.87507 -160.021 76.7427
3487.37 14.2977 -6.45794 24.366 51.8812
3490.3 -47.2541 -31.1074 291.299 282.92
3493.23 -60.3658 -67.2313 533.096 391.764
3496.16 -94.0741 -50.989 350.896 248.004
3499.08 1.47296 -35.4157 -139.981 46.6695
3502.01 -13.6459 -4.00915 -70.9065 -0.927545
3504.94 0.14549 -9.98038 208.105 70.702
3507.87 -16.4407 -2.91855 74.9077 24.1039
3510.8 7.53959 4.70529 -210.701 -31.7683
3513.72 23.017 26.6686 40.488 -239.973
3516.65 49.4492 40.4617 -549.707 -257.629
3519.58 48.919 47.3467 -263.667 -267.218
3522.51 43.6719 38.8069 11.7217 -77.7169
3525.43 23.8297 39.1333 18.7948 -46.9091
3528.36 49.8982 41.6198 -171.244 168.7
3531.29 51.1315 63.1125 658.549 247.28
3534.22 88.3077 87.0743 254.535 763.685
3537.14 121.784 95.6675 1377.97 700.701
3540.07 76.9113 81.2023 469.598 597.264
3543 44.9121 59.7376 -55.7751 398.889
3545.92 57.3893 43.8026 782.843 327.24
3548.85 29.1065 48.7232 254.653 122.85
3551.78 59.6738 26.286 -668.946 -371.185
3554.71 -9.92233 36.3145 -699.263 -394.995
3557.63 59.1922 42.1822 183.226 -62.8945
3560.56 77.2766 18.2846 327.354 46.2956
3563.49 -81.6148 -11.2525 -371.693 -11.4281
3566.41 -29.4194 -11.6357 10.0543 -160.156
3569.34 76.1271 20.0431 -118.831 27.3246
3572.27 13.4215 37.9858 190.75 -39.0991
3575.19 24.4089 -4.50813 -189.217 -218.446
3578.12 -51.3548 -17.419 -656.873 -75.3255
3581.05 -25.3112 -17.2989 620.113 42.8463
3583.97 24.7692 8.75488 165.299 299.752
3586.9 26.8067 28.263 113.845 292.968
3589.83 33.2131 -4.03633 599.761 344.737
3592.75 -72.1287 8.56295 320.604 358.576
3595.68 64.6045 23.4277 155.363 67.0074
3598.61 77.8072 54.9341 -274.945 -57.6116
3601.53 22.3906 24.3969 -53.2527 39.1015
3604.46 -27.0071 -17.1031 445.502 233.759
3607.38 -46.6929 3.61583 309.028 348.08
3610.31 84.5475 27.9013 289.709 227.666
3613.24 45.8492 61.6476 84.2621 227.055
3616.16 54.5459 44.9715 307.195 241.655
3619.09 34.5194 62.0828 333.508 455.998
3622.01 97.1831 40.1922 727.29 329.943
3624.94 -11.126 50.9307 -70.9689 239.876
3627.87 66.7349 39.9353 63.3078 179.411
3630.79 64.1971 96.892 545.895 294.804
3633.72 159.744 93.6881 275.208 726.499
3636.64 57.1232 142.506 1358.39 907.925
3639.57 210.649 119.633 1090.17 1005.17
3642.49 91.1262 124.319 566.928 657.326
3645.42 71.1801 88.53 314.876 562.211
3648.35 103.284 107.319 804.828 628.375
3651.27 147.494 109.991 765.42 693.188
3654.2 79.1966 112.858 509.318 529.899
3657.12 111.882 65.0631 314.96 327.428
3660.05 4.11088 21.6146 158.007 -21.7096
3662.97 -51.1489 23.6363 -538.096 -280.663
3665.9 117.947 -3.52179 -461.899 -426.213
3668.82 -77.3633 -10.7068 -278.643 -399.557
3671.75 -72.7038 -49.4464 -458.129 -371.944
3674.67 1.72799 -24.622 -379.061 -822.419
3677.6 -2.89008 -16.4873 -1630.07 -910.506
3680.52 -48.2999 -25.9395 -722.391 -988.807
3683.45 -26.6284 -54.9499 -613.962 -571.598
3686.37 -89.9214 -52.9018 -378.443 -305.506
3689.3 -42.1557 -16.1524 75.8869 168.284
3692.22 83.6199 15.2138 807.406 267.685
3695.15 4.17726 27.3909 -80.2372 276.39
3698.07 -5.62451 -2.35833 101.999 85.4713
3701 -5.62774 27.5609 234.651 285.273
3703.92 93.9349 29.0163 519.169 390.64
3706.85 -1.25827 41.7942 418.101 252.658
3709.77 32.7061 -4.546 -179.295 108.525
3712.7 -45.0858 -26.721 86.7697 -54.8989
3715.62 -67.7834 -25.9261 -72.1712 127.238
3718.55 35.091 -8.82677 367.116 463.24
3721.47 6.21203 30.0722 1094.77 548.093
3724.39 48.9134 44.4291 182.39 444.402
3727.32 78.1618 23.4755 56.0415 385.774
3730.24 -56.6486 16.7562 918.891 249.555
3733.17 28.7553 13.4932 -226.267 185.803
3736.09 68.3729 70.4115 -135.215 17.4468
3739.02 114.106 98.4432 413.823 74.3769
3741.94 112.85 104.882 -55.477 -1.71056
3744.86 87.6895 97.1497 -363.478 -115.516
3747.79 90.9092 59.8731 72.4064 -50.7972
3750.71 1.02074 62.4571 138.68 363.93
3753.64 95.4413 30.5103 880.706 162.382
3756.56 -4.93107 36.6002 -532.239 306.16
3759.48 19.2903 10.3062 570.014 -61.137
3762.41 16.5593 -46.1567 -221.186 99.8163
3765.33 -174.32 -49.9395 -49.3792 -53.4893
3768.25 7.94186 3.25209 110.097 182.511
3771.18 176.134 33.1708 486.815 330.596
3774.1 -84.5635 57.8572 394.877 291.977
3777.02 82.0011 -0.790972 -5.7611 -181.026
3779.95 0.189415 -13.4308 -932.194 -564.598
3782.87 -122.483 -29.1937 -755.838 -294.705
3785.79 34.7125 -33.0511 803.917 -142.387
3788.72 -11.3828 42.0628 -475.239 119.467
3791.64 102.859 15.5812 29.7228 -346.721
3794.56 -44.7323 25.7108 -594.648 -258.52
3797.49 19.006 0.626649 -210.635 -81.9048
3800.41 27.6062 34.3757 559.569 117.427
3803.33 56.515 35.7063 3.34707 506.212
3806.26 22.9978 77.9873 955.719 442.941
3809.18 154.449 79.8167 369.758 614.833
3812.1 62.0034 86.7384 519.022 479.233
3815.03 43.7627 68.1121 548.919 278.151
3817.95 98.5702 85.6871 -233.489 360.759
3820.87 114.728 81.8111 766.845 80.3074
3823.79 32.1348 79.3022 -292.434 285.601
3826.72 91.0432 83.0462 382.391 214.006
3829.64 125.96 94.2709 552.06 505.302
3832.56 65.8091 73.1976 581.456 439.533
3835.48 27.8234 37.806 185.082 274.365
3838.41 19.7855 36.3567 56.5584 30.1756
3841.33 61.4612 34.4469 -151.113 343.08
3844.25 22.094 41.5047 1123.8 288.897
3847.17 40.959 21.5517 -105.992 41.5411
3850.1 1.60197 -7.96045 -893.181 -340.042
3853.02 -66.4423 21.3497 -20.9545 -252.618
3855.94 128.889 38.2899 156.281 433.74
3858.86 52.4226 54.6581 1165.89 451.953
3861.78 -17.3379 48.2185 33.6846 586.643
3864.71 109.571 41.7223 560.351 2.48547
3867.63 32.9341 43.2114 -586.579 114.503
3870.55 -12.8707 30.9198 369.738 309.543
3873.47 72.6959 40.8566 1145.47 377.388
3876.39 62.7446 14.4839 -383.046 109.833
3879.31 -91.9887 -52.7277 -432.928 -439.708
3882.24 -128.939 -68.3621 -503.149 -183.671
3885.16 15.8414 -70.9323 385.064 -226.465
3888.08 -99.6993 -70.3481 -561.308 188.58
3891 -127.187 -50.2562 741.985 -45.9511
3893.92 76.1173 -23.5197 -318.53 158.598
3896.84 -19.4898 7.5257 52.3401 388.241
3899.77 -34.0505 -23.9159 1430.91 -71.0562
3902.69 -18.2075 -16.008 -1696.42 -1.94504
3905.61 4.23406 19.7681 259.673 -572.853
3908.53 73.2777 38.12 -281.812 -45.7929
3911.45 36.8482 16.0964 -115.24 -503.922
3914.37 -61.8368 -32.7552 -1114.71 -22.4646
3917.29 -73.277 -59.3558 1162.56 -264.3
3920.21 -42.9535 -34.6674 -840.746 509.191
3923.13 12.2282 0.169206 1205.76 192.424
3926.06 31.2328 60.3528 212.259 857.298
3928.98 137.597 86.3496 1153.88 35.3953
3931.9 90.2186 62.8571 -1259.95 -83.7399
3934.82 -39.2445 24.1747 -145.146 -171.184
3937.74 21.5501 -11.7528 891.545 335.963
3940.66 -17.5641 3.8397 261.491 439.155
3943.58 7.5331 53.7854 164.431 189.607
3946.5 171.387 48.2962 142.901 409.05
3949.42 -34.0319 34.3064 919.817 203.114
3952.34 -34.4361 -20.864 -453.376 322.305
3955.26 5.87586 -17.3933 500.473 -189.575
3958.18 -23.6195 7.44711 -615.822 224.097
3961.1 40.085 33.8837 787.639 -75.2004
3964.02 85.1858 67.2047 -397.418 -11.8846
3966.94 76.3435 67.6647 -425.875 -206.334
3969.86 41.4647 64.3685 204.292 -96.3858
3972.78 75.2973 70.8324 -67.5744 -68.665
3975.7 95.7352 46.9079 -342.713 -14.7452
3978.62 -30.3087 59.3218 366.051 249.433
3981.54 112.539 50.8044 724.96 48.9949
3984.46 70.1828 93.189 -944.026 -315.535
3987.38 96.8452 116.934 -727.539 -354.696
3990.3 183.775 157.381 607.476 5.2145
3993.22 191.524 165.364 135.707 432.22
3996.14 120.792 118.719 553.477 -183.368
3999.06 43.842 95.7568 -1239.29 -816.77
4001.98 122.636 116.869 -1764.5 -670.536
4004.9 184.128 179.177 992.178 -605.345
4007.82 230.768 130.708 -1043.71 41.3133
4010.74 -22.7719 156.715 175.476 -261.261
4013.66 262.15 101.112 84.4546 -620.972
4016.58 63.9573 138.431 -2122.85 -758.518
4019.5 89.1863 72.1642 -237.162 -550.177
4022.42 63.3491 125.589 709.478 276.763
4025.33 224.231 145.845 357.973 -89.0398
4028.25 149.954 179.983 -1334.57 -312.207
4031.17 165.763 146.814 39.9756 -781.773
4034.09 124.724 140.798 -1050.72 -160.788
4037.01 131.906 131.99 528.383 81.4892
4039.93 139.338 148.478 766.808 102.813
4042.85 174.189 138.644 -986.753 472.614
4045.77 102.404 139.698 1637.79 -109.514
4048.69 142.499 161.126 -979.577 24.7687
4051.6 238.473 177.676 -583.904 -402.812
4054.52 152.054 188.669 355.046 -349.174
4057.44 175.481 124.686 -818.663 -98.1424
4060.36 46.5221 108.757 169.19 -19.1858
4063.28 104.267 91.9073 591.915 -144.472
4066.2 124.933 113.924 -1194.52 -97.6937
4069.11 112.571 132.932 309.526 -282.199
4072.03 161.292 90.5028 38.3999 -38.5745
4074.95 -2.3545 123.739 -463.649 188.313
4077.87 212.281 102.962 990.187 57.1749
4080.79 98.9608 172.248 -355.013 -8.59875
4083.7 205.501 84.503 -660.97 -596.996
4086.62 -50.9529 75.7578 -775.004 43.5202
4089.54 72.7251 1.41323 1566.54 -284.801
4092.46 -17.5325 55.4898 -1645.93 -101.463
4095.38 111.277 81.8324 -224.989 -147.299
4098.29 151.753 145.905 1429.03 -286.25
4101.21 174.684 117.906 -2062.79 -296.28
4104.13 27.2804 89.3302 -255.079 -240.67
4107.05 66.0259 42.6594 1595.85 470.779
4109.96 34.6719 72.7931 71.5596 520.811
4112.88 117.682 165.398 -104.981 245.27
4115.8 343.841 218.058 769.23 -130.533
4118.72 192.652 227.128 -1055.85 -92.1279
4121.63 144.89 149.207 10.2346 -278.796
4124.55 110.079 135.341 209.226 206.999
4127.47 151.055 197.147 401.535 282.276
4130.38 330.308 208.577 236.067 468.386
4133.3 144.367 242.631 767.556 790.826
4136.22 253.218 255.529 1368.86 717.336
4139.14 369.001 276.958 15.5957 695.384
4142.05 208.655 234.592 701.7 -256.654
4144.97 126.121 215.701 -1487.26 85.3421
4147.89 312.328 233.488 1041.58 -235.917
4150.8 262.014 236.243 -262.078 -233.179
4153.72 134.389 207.598 -1479.04 -427.126
4156.64 226.391 206.518 459.741 -576.649
4159.55 258.773 230.985 -710.644 -603.926
4162.47 207.792 246.312 -1560.87 266.11
4165.39 272.37 229.455 3069.85 334.814
4168.3 208.203 246.354 -504.534 770.424
4171.22 258.487 226.877 -254.043 -577.062
4174.13 213.941 232.778 -972.61 -774.276
4177.05 225.905 168.422 -1096.18 -36.0591
4179.97 65.419 176.9 1960.61 394.972
4182.88 239.374 188.372 320.484 1065.77
4185.8 260.322 208.915 916.204 155.791
4188.71 127.049 192.268 -769.315 0.0610663
4191.63 189.434 210.728 -146.706 -349.871
4194.55 315.7 252.993 -133.592 -545.445
4197.46 253.844 290.913 -1356.04 -630.908
4200.38 303.196 249.082 -403.094 -324.716
4203.29 190.205 282.589 784.984 85.0911
4206.21 354.366 271.38 -126.616 -12.5634
4209.12 269.569 317.217 -696.058 353.63
4212.04 327.715 255.684 1883.56 214.154
4214.96 169.77 240.062 -545.043 -355.609
4217.87 222.701 148.789 -2405.35 -769.419
4220.79 53.898 144.497 642.133 245.506
4223.7 156.891 162.616 2499.73 -48.7651
4226.62 277.06 212.378 -3288.16 -618.432
4229.53 203.183 247.744 -1066.87 -1337.83
4232.45 262.99 152.345 341.551 -285.805
4235.36 -9.13949 149.765 -132.101 -251.146
4238.28 195.444 99.773 -962.889 -657.876
4241.19 113.014 185.342 -878.638 -539.308
4244.11 247.567 177.882 223.605 540.94
4247.02 173.066 221.098 2277.85 671.19
4249.94 242.661 250.919 -487.889 779.428
4252.85 337.03 315.645 548.32 -7.81993
4255.76 367.243 273.324 -83.8908 -12.6637
4258.68 115.7 206.314 -502.421 -191.798
4261.59 135.998 82.0303 10.9183 -439.757
4264.51 -5.60732 198.006 -827.768 -366.85
4267.42 463.627 228.957 -283.701 -375.179
4270.34 228.851 378.641 -14.0674 110.805
4273.25 443.446 283.228 630.184 -472.001
4276.16 177.389 282.267 -2032.12 -324.584
4279.08 225.968 188.206 428.183 -730.098
4281.99 161.262 202.471 -586.361 151.256
4284.91 220.184 201.926 611.947 359.112
4287.82 224.332 232.099 1051.75 -76.4658
4290.73 251.78 249.123 -1893.1 269.127
4293.65 271.257 221.703 1648.73 -467.202
4296.56 142.071 141.804 -1157.24 -136.674
4299.48 12.0837 78.0161 -901.511 -789.253
4302.39 79.8931 52.6053 -309.01 -576.539
4305.3 65.8391 117.752 -519.098 225.367
4308.22 207.525 121.504 1504.21 71.807
4311.13 91.1471 92.2336 -769.688 390.355
4314.04 -21.9713 48.8854 436.546 -1015.43
4316.96 77.4804 48.8842 -2713.13 -29.6724
4319.87 91.1435 66.5726 2187.57 -480.648
4322.78 31.094 24.576 -916.381 262.758
4325.7 -48.5096 20.0066 -482.914 -282.996
4328.61 77.4354 46.1853 550.307 -199.288
4331.52 109.63 71.6133 -665.257 -280.868
4334.43 27.7744 41.1174 -727.655 -757.235
4337.35 -14.0523 5.13263 -878.792 -186.833
4340.26 1.67572 44.2385 1045.95 -345.89
4343.17 145.092 70.0101 -1204.83 -261.858
4346.09 63.2626 87.5473 -626.698 -572.563
4349 54.2874 63.4539 113.834 -1115.95
4351.91 72.8115 102.577 -2835 -977.77
4354.82 180.632 154.053 -212.145 -1032.09
4357.74 208.715 179.864 -49.122 -127.068
4360.65 150.244 134.891 -119.936 123.381
4363.56 45.7143 144.235 539.2 131.277
4366.47 236.747 170.214 -25.4331 329.11
4369.38 228.181 262.494 473.562 -196.057
4372.3 322.553 265.182 -1036.3 -80.4175
4375.21 244.811 247.833 321.486 -305.87
4378.12 176.135 205.38 -202.797 -71.5724
4381.03 195.195 190.53 -333.406 -355.202
4383.94 200.261 195.024 -529.403 -450.357
4386.86 189.615 257.608 -488.262 125.273
4389.77 382.948 280.298 1393.49 -291.48
4392.68 268.329 355.359 -1779.66 472.976
4395.59 414.8 307.365 1805.11 -834.566
4398.5 238.964 317.171 -2529.14 -0.147038
4401.41 297.748 220.23 723.593 -624.753
4404.33 123.979 211.214 -68.7103 794.372
4407.24 211.916 165.798 1728.23 -111.448
4410.15 161.498 221.265 -1993.87 -462.76
4413.06 290.38 226.097 -1122.65 -526.716
4415.97 226.412 283.868 1536.36 439.462
4418.88 334.811 239.734 904.668 1020.58
4421.79 157.979 307.948 620.717 517.764
4424.7 431.053 281.259 27.9084 -216.324
4427.61 254.746 284.382 -1297.6 -478.436
4430.52 167.347 184.137 -165.617 -547.703
4433.44 130.319 167.145 -179.893 374.664
4436.35 203.769 214.701 1469.5 183.166
4439.26 310.014 203.852 -740.112 1139.66
4442.17 97.7741 225.96 2689.59 656.456
4445.08 270.092 190.21 19.8915 805.833
4447.99 202.763 214.213 -291.982 -582.869
4450.9 169.785 256.652 -1476.52 -712.603
4453.81 397.41 258.467 -369.309 298.474
4456.72 208.205 331.456 2741.25 676.565
4459.63 388.752 282.71 -342.245 422.527
4462.54 251.174 312.954 -1131.42 682.379
4465.45 298.935 223.073 3520.8 -135.085
4468.36 119.109 193.78 -2794.64 369.301
4471.27 163.295 140.757 381.734 -742.876
4474.18 139.868 192.311 184.273 447.687
4477.09 273.771 262.159 777.054 413.129
4480 372.838 261.143 278.059 369.986
4482.91 136.821 273.235 54.8459 783.907
4485.82 310.048 224.994 2018.82 -372.56
4488.73 228.114 262.797 -3191.34 -354.162
4491.64 250.229 270.317 110.04 -251.919
4494.55 332.609 256.995 2325.55 -400.429
4497.46 188.146 245.096 -3636.87 985.593
4500.36 214.533 196.42 4268.11 -203.788
4503.27 186.582 253.597 -1242.6 720.067
4506.18 359.677 295.258 -865.305 -1704.28
4509.09 339.517 334.597 -3004.93 -291.823
4512 304.598 260.923 2994.77 -101.31
4514.91 138.653 263.509 -293.764 1003.57
4517.82 347.275 274.149 309.71 -105.195
4520.73 336.517 248.405 -331.531 -333.631
4523.64 61.421 191.548 -979.073 -355.949
4526.54 176.706 161.544 242.757 495.931
4529.45 246.506 293.162 2224.11 -131.468
4532.36 456.274 310.761 -2861.27 355.737
4535.27 229.505 310.498 1704.37 -627.224
4538.18 245.715 240.129 -724.773 692.688
4541.09 245.166 299.77 1098.47 -329.665
4543.99 408.427 311.565 -1362.69 520.511
4546.9 281.1 282.607 1825.76 210.826
4549.81 158.293 153.152 169.411 228.005
4552.72 20.0637 121.522 -1311.15 499.754
4555.63 186.21 106.421 2641 -308.115
4558.53 112.989 226.099 -2254.19 348.829
4561.44 379.1 225.438 659.679 -577.333
4564.35 184.224 240.378 -137.485 206.614
4567.26 157.811 163.499 97.6463 -155.428
4570.17 148.461 205.598 -426.445 283.773
4573.07 310.521 275.713 1180.12 112.723
4575.98 368.157 295.063 -415.503 203.637
4578.89 206.512 271.478 -153.704 9.77672
4581.79 239.765 265.397 598.537 116.432
4584.7 349.913 277.782 -95.5379 84.5084
4587.61 243.666 266.817 -249.474 551.873
4590.52 206.871 274.781 2000.63 1213.28
4593.42 373.807 239.395 1888.69 584.246
4596.33 137.508 300.376 -2136.58 -66.905
4599.24 389.812 326.969 47.1797 -490.881
4602.14 453.588 361.678 616.761 -134.236
4605.05 241.635 388.932 -1066.65 1415.3
4607.96 471.573 341.584 4695.8 824.515
4610.86 311.543 366.548 -1155.61 344.104
4613.77 316.528 346.191 -2507.88 -1296.87
4616.68 410.504 391.163 -227.113 -138.046
4619.58 446.458 437.918 2320.86 288.239
4622.49 456.792 384.607 -1229.02 1244.92
4625.4 250.57 346.157 2642.93 991.426
4628.3 331.109 322.492 1560.38 949.574
4631.21 385.796 397.236 -1354.58 -53.0549
4634.11 474.803 387.223 -364.962 -30.5182
4637.02 301.071 394.914 1627.99 1146.64
4639.93 408.866 421.349 2176.9 843.986
4642.83 554.11 466.183 -1272.93 430.456
4645.74 435.572 511.526 387.395 147.503
4648.64 544.897 455.844 1328.04 1250.13
4651.55 387.064 425.578 2034.96 1191.68
4654.45 344.773 357.017 212.041 662.615
4657.36 339.213 388.558 -259.157 790.503
4660.27 481.686 345.539 2418.62 220.3
4663.17 215.717 322.378 -1498.57 -210.573
4666.08 269.73 317.169 -1551.77 -106.185
4668.98 466.06 393.523 2731.79 -24.6531
4671.89 444.779 396.298 -1253.97 1821.39
4674.79 278.054 416.534 3986.36 929.5
4677.7 526.768 349.376 56.1113 1046.9
4680.6 243.307 342.547 -901.773 173.531
4683.51 257.567 287.819 1366.26 451.677
4686.41 362.584 324.489 890.549 965.385
4689.32 353.316 380.436 639.349 962.054
4692.22 425.408 370.787 1356.26 1064.62
4695.12 333.638 437.726 1198.25 287.574
4698.03 554.133 441.024 -1691.79 177.617
4700.93 435.301 480.374 1026.39 -93.9595
4703.84 451.688 411.26 383.516 -173.266
4706.74 346.789 411.723 -1929.71 -502.498
4709.65 436.693 382.91 38.6979 -410.561
4712.55 365.248 369.57 659.326 990.625
4715.45 306.769 336.6 2273.85 657.699
4718.36 337.781 314.37 -960.08 -46.4876
4721.26 298.558 419.59 -1453.23 -541.136
4724.17 622.429 430.18 789.907 -1085.73
4727.07 369.552 486.193 -2593.86 -418.036
4729.97 466.598 432.95 549.841 386.071
4732.88 462.7 538.117 3202.23 1785.27
4735.78 685.053 549.624 1603.76 2389.65
4738.68 501.121 531.834 2362.96 727.28
4741.59 409.33 405.369 -1784.88 953.45
4744.49 305.656 354.236 2282.27 -338
4747.39 347.721 357.298 -1511.39 1220.72
4750.3 418.517 398.383 2891.28 657.658
4753.2 428.909 434.991 593.084 2127.96
4756.1 457.547 453.056 2899.52 1396.42
4759 472.711 443.412 696.66 1167.87
4761.91 399.978 413.799 -92.5748 646.277
4764.81 368.707 319.347 1334.75 -438.175
4767.71 189.354 329.444 -2556.7 96.2584
4770.62 430.271 273.176 1510.73 -348.859
4773.52 199.902 323.427 -0.608051 1475.55
4776.42 340.108 306.638 2916.53 -21.2625
4779.32 379.904 302.27 -2979.71 418.221
4782.23 186.798 313.131 1317.84 -81.8701
4785.13 372.69 253.886 1416.25 990.186
4788.03 202.169 295.013 236.464 46.379
4790.93 310.179 291.487 -1513.58 -464.972
4793.83 362.114 285.349 -117.799 -503.451
4796.74 183.753 235.452 121.028 1310.35
4799.64 160.49 208.345 3927.81 618.383
4802.54 280.792 205.077 -2193.69 1235.86
4805.44 173.95 189.833 1973.46 1068.79
4808.34 114.756 150.332 3426.61 886.943
4811.24 162.29 143.544 -2739.24 100.089
4814.15 153.585 188.969 -387.097 -273.515
4817.05 251.033 210.548 2305.8 -47.293
4819.95 227.027 146.988 -2060.58 363.519
4822.85 -37.0945 76.4959 845.34 -810.644
4825.75 39.5552 66.6713 -1216.69 -528.065
4828.65 197.553 113.522 -1212.84 -446.356
4831.55 103.457 122.138 1090.47 730.912
4834.45 65.4041 91.7001 2315.11 499.627
4837.35 106.24 25.744 -1906.7 1541.89
4840.25 -94.4117 94.9557 4217.26 1039.6
4843.16 273.039 41.3959 808.245 1555.01
4846.06 -54.4401 95.6381 -360.469 181.577
4848.96 68.3151 44.4551 96.9543 808.276
4851.86 119.49 98.966 2688.34 -141.509
4854.76 109.092 178.631 -3209.82 831.636
4857.66 307.31 203.648 3016.39 86.6882
4860.56 194.542 224.4 453.499 43.9742
4863.46 171.35 218.899 -3337.96 -104.931
4866.36 290.805 297.585 2569.67 -339.868
4869.26 430.6 324.62 -251.313 881.27
4872.16 252.454 383.355 325.449 1256.87
4875.06 467.01 360.294 3696.46 628.945
4877.96 361.417 427.547 -2135.07 827.667
4880.86 454.215 445.343 921.615 334.643
4883.76 520.398 466.761 2217.39 1150.29
4886.66 425.671 472.941 311.855 1318.58
4889.56 472.753 503.242 1426.49 760.732
4892.45 611.3 558.84 543.847 884.664
4895.35 592.466 530.177 683.651 -21.9411
4898.25 386.764 514.943 -1293.32 759.024
4901.15 565.601 489.198 2886.74 29.5392
4904.05 515.231 536.173 -1504.8 1011.74
4906.95 527.688 527.298 1653.27 564.885
4909.85 538.974 544.875 1546.19 1119.1
4912.75 567.963 544.148 157.842 606.158
4915.65 525.508 611.323 114.444 1415.05
4918.55 740.498 637.27 3972.87 210.251
4921.44 645.803 674.416 -3456.56 1184.7
4924.34 636.947 666.899 3037.8 926.987
4927.24 717.947 697.04 3199.73 2065.84
4930.14 736.227 665.226 -39.9968 2020.5
4933.04 541.503 630.899 2901.77 1100.68
4935.94 614.966 573.163 440.279 1174.78
4938.83 563.019 648.894 182.301 1977.33
4941.73 768.696 688.429 5309.42 774.468
4944.63 733.573 716.824 -3168.32 769.206
4947.53 648.204 674.779 166.516 565.688
4950.42 642.56 614.513 4698.87 1530.84
4953.32 552.774 653.353 -272.86 1940.47
4956.22 764.724 594.483 1395.39 -78.289
4959.12 465.951 580.435 -1357.39 281.148
4962.01 510.63 548.237 805.452 170.055
4964.91 668.131 566.789 1062.11 225.002
4967.81 521.606 559.204 -1192.55 494.932
4970.71 487.875 546.106 1615.24 659.371
4973.6 628.837 602.192 1555.42 1152.04
4976.5 689.866 577.731 285.443 215.226
4979.4 414.49 537.456 -1195.19 -43.9395
4982.29 508.011 478.655 777.929 763.431
4985.19 513.464 519.752 2707.55 2035.14
4988.09 537.78 541.082 2619.93 2398.45
4990.98 572.001 587.522 1867.85 1347.62
4993.88 652.785 607.156 -444.912 1505.45
4996.78 596.684 659.053 3093.4 707.681
4999.67 727.69 586.368 -525.449 325.368
5002.57 434.73 594.629 -1591.85 1335.59
5005.47 621.468 606.589 6124.06 2197.35
5008.36 763.57 586.441 2059.84 1982.12
5011.26 374.286 524.578 -2237.55 574.432
5014.15 435.88 447.681 1901 -125.574
5017.05 532.877 437.821 -40.1815 -165.36
5019.94 344.707 403.502 -2356.9 -563.709
5022.84 332.922 331.735 705.957 638.759
5025.74 317.575 355.899 3567.22 1598.52
5028.63 417.2 401.949 522.393 2320.78
5031.53 471.071 500.047 2872.72 1278.61
5034.42 611.87 522.513 440.712 557.343
5037.32 484.598 488.79 -1641.4 -407.468
5040.21 369.902 426.466 -21.712 -27.5875
5043.11 424.899 474.317 1580.35 1880.92
5046 628.151 506.115 4084.11 1662.09
5048.9 465.296 497.867 -678.179 807.607
5051.79 400.153 482.882 -983.11 -203.862
5054.69 583.196 493.732 1049.7 918.174
5057.58 497.846 549.113 2687.93 1637.17
5060.48 566.296 512.651 1173.89 1855.42
5063.37 473.811 509.531 1704.43 903.082
5066.26 488.485 438.543 -169.078 603.45
5069.16 353.332 465.186 274.996 1784.48
5072.05 553.741 459.49 5247.51 271.037
5074.95 471.397 586.65 -4709.4 2722.52
5077.84 734.813 517.77 7629.45 -899.211
5080.74 347.1 532.808 -5617.68 1351.59
5083.63 516.512 474.634 2043 -177.532
5086.52 560.289 535.187 3042.08 1771.93
5089.42 528.759 578.625 230.72 1995.36
5092.31 646.828 538.768 2713.29 1609.34
5095.2 440.718 534.059 1884 1118.59
5098.1 514.631 506.686 -1241.52 476.529
5100.99 564.71 505.611 787.11 902.244
5103.88 437.491 514.578 3161.14 613.218
5106.78 541.531 527.574 -2108.59 680.038
5109.67 603.698 546.131 987.57 792.71
5112.56 493.164 538.342 3499.16 2100.93
5115.46 518.163 484.612 1816.06 2756.52
5118.35 442.509 514.724 2954.34 1148.75
5121.24 583.501 509.002 -1324.16 740.451
5124.13 500.996 531.523 591.173 1433.56
5127.03 510.071 545.155 5033.66 1785.43
5129.92 624.398 519.696 -268.548 352.792
5132.81 424.619 552.113 -3706.74 -312.366
5135.7 607.321 509.629 3038.19 -407.663
5138.6 496.948 562.336 -554.438 287.791
5141.49 582.74 536.094 -1620.38 1021.17
5144.38 528.596 531.138 5238.33 2220.52
5147.27 482.08 492.049 3043.62 2032.48
5150.16 465.473 524.215 -2184.5 -214.936
5153.06 625.092 487.236 -1503.92 178.077
5155.95 371.143 484.94 4222.66 1699.72
5158.84 458.586 408.73 2380.41 1831.2
5161.73 396.461 405.266 -1109.48 416.712
5164.62 360.75 371.206 -20.8025 836.233
5167.51 356.406 362.087 3638.98 650.334
5170.4 369.105 353.288 -1667.17 72.8686
5173.3 334.354 337.644 -1753.2 659.048
5176.19 309.474 330.706 5397.52 2168.32
5179.08 348.291 297.839 2860.65 717.001
5181.97 235.752 334.391 -6107.16 461.261
5184.86 419.131 405.295 4630.3 -279.767
5187.75 561.003 455.638 637.567 1927.04
5190.64 386.78 483.009 513.262 -11.371
5193.53 501.243 443.639 -1184.94 -306.103
5196.42 442.895 463.487 -246.629 1786.4
5199.31 446.324 393.962 6790.76 707.157
5202.2 292.668 390.927 -4422.66 2007.49
5205.09 433.79 407.27 3654.38 369.353
5207.98 495.351 467.13 1876.33 1491.93
5210.87 472.248 494.975 -1054.92 -438.879
5213.76 517.325 467.316 -2138.05 293.719
5216.65 412.375 475.544 4074.13 2599.43
5219.54 496.933 478.187 5862.2 1538.29
5222.43 525.254 511.347 -5321.45 760.793
5225.32 511.852 486.668 1741.64 1132.24
5228.21 422.898 487.622 6976.55 2327.44
5231.1 528.117 447.307 -1735.88 577.248
5233.99 390.905 469.44 -3508.93 -371.818
5236.88 489.298 439.886 4129.35 1753.4
5239.77 439.455 465.056 4639.79 2602.17
5242.65 466.413 461.797 -962.631 1541.4
5245.54 479.522 483.671 947.047 458.312
5248.43 505.076 511.167 1390.52 -246.532
5251.32 548.904 576.524 -3077.16 1318.61
5254.21 675.592 638.732 5642.46 1195.3
5257.1 691.699 643.397 1020.59 2815.22
5259.99 562.899 658.271 1782.6 1312.63
5262.87 720.216 595.292 1134.7 83.8444
5265.76 502.761 615.773 -2665.77 -278.761
5268.65 624.342 573.447 694.788 1647.65
5271.54 593.238 598.162 6913.94 1954.33
5274.43 576.905 563.645 -1745.73 2074.37
5277.31 520.79 565.698 1054.89 -81.821
5280.2 599.4 585.331 445.375 -660.913
5283.09 635.802 604.619 -3483 -304.525
5285.98 578.656 576.517 2124.05 -18.1027
5288.87 515.091 549.179 1304.64 3422.54
5291.75 553.789 576.881 6838.94 2351.87
5294.64 661.761 623.974 -1087.98 2145.6
5297.53 656.372 634.419 685.836 -695.817
5300.41 585.124 551.854 -1685.31 1209.57
5303.3 414.067 504.782 4628.17 739.505
5306.19 515.156 489.334 -724.346 1302.35
5309.07 538.779 515.352 3.22576 211.647
5311.96 492.122 483.625 1356.06 535.71
5314.85 419.975 453.327 247.843 1186.29
5317.73 447.883 448.965 1954.96 1309.38
5320.62 479.036 498.858 1725.34 1964.91
5323.51 569.654 542.19 2214.43 430.44
5326.39 577.879 557.815 -2648.46 1826.13
5329.28 525.912 546.392 5912.42 1308.75
5332.17 535.385 516.704 662.301 982.174
5335.05 488.816 558.52 -3628.2 -10.4157
5337.94 651.359 544.85 2934.65 832.237
5340.82 494.375 541.654 3190.26 1348.91
5343.71 479.227 435.149 -2078.19 1078.83
5346.59 331.846 475.594 2124.41 214.388
5349.48 615.709 464.233 596.947 1744.31
5352.36 445.144 464.483 2511.58 1444.17
5355.25 332.595 446.938 1223.99 2250.7
5358.14 563.077 467.601 3016.52 1112.46
5361.02 507.132 509.256 -903.136 340.762
5363.91 457.56 463.601 -1091.1 1348.83
5366.79 426.11 480.293 6040.74 1088.7
5369.67 557.208 502.348 -1683.54 1872.71
5372.56 523.727 494.92 1260.94 -157.53
5375.44 403.826 492.683 -49.9862 1627.62
5378.33 550.497 488.648 3671.91 1293.95
5381.21 511.622 519.261 259.912 1259.92
5384.1 495.664 515.052 -152.05 340.47
5386.98 537.87 493.088 913.548 2018.71
5389.87 445.731 487.073 5294.65 2190.12
5392.75 477.617 467.531 362.166 703.614
5395.63 479.244 470.406 -3545.97 -155.446
5398.52 454.358 510.693 2717.47 949.546
5401.4 598.477 492.74 3677.14 1462.84
5404.28 425.385 560.962 -2006.09 595.622
5407.17 659.025 569.689 115.812 756.786
5410.05 624.657 603.62 4160.63 513.594
5412.93 527.18 531.021 -2735.66 1586.71
5415.82 441.227 456.786 3335.18 255.93
5418.7 401.952 510.485 168.278 2098.88
5421.58 688.276 521.581 2793.2 1544.37
5424.47 474.516 533.58 1671.63 1513.98
5427.35 437.949 427.524 77.1082 980.323
5430.23 370.107 414.774 1192.23 487.145
5433.11 436.265 385.774 192.094 1676.37
5436 350.951 435.94 3644.77 2275.84
5438.88 520.604 433.368 2990.65 2128.69
5441.76 428.549 476.419 -249.372 1460.62
5444.64 480.103 476.94 1640.59 578.113
5447.53 522.168 488.382 343.125 318.914
5450.41 462.875 513.102 -1026.97 1152.05
5453.29 554.261 520.943 4139.99 2362.89
5456.17 545.693 519.311 3975.66 1663.44
5459.05 457.979 491.819 -3125.34 328.527
5461.94 471.786 476.856 135.256 -82.1244
5464.82 500.802 500.564 2743.71 2504.86
5467.7 529.105 525.342 4635.62 836.663
5470.58 546.119 485.612 -4869.34 777.918
5473.46 381.613 459.985 2567.48 575.67
5476.34 452.224 447.221 4028.88 1873.83
5479.22 507.828 483.253 -974.85 1282.13
5482.1 489.707 573.299 792.365 528.496
5484.98 722.363 495.234 1767.97 1555.62
5487.86 273.632 451.442 2106.52 609.5
5490.75 358.332 335.711 -2045.99 -317.4
5493.63 375.17 402.12 -1012.73 117.175
5496.51 472.856 468.704 3410.24 1936.18
5499.39 558.086 505.084 3411.03 2929.93
5502.27 484.31 525.674 1968.5 1330.52
5505.15 534.626 492.411 -1387.99 625.119
5508.03 458.295 480.324 1294.84 1752.92
5510.91 448.051 444.533 5351.92 1017.35
5513.79 427.252 514.175 -3594.69 420.317
5516.67 667.221 533.908 -496.271 305.764
5519.55 507.251 560.016 5008.26 2964.19
5522.42 505.574 499.961 4380.59 2238.01
5525.3 487.056 519.199 -2674.82 267.976
5528.18 564.967 499.843 -901.842 431.398
5531.06 447.507 473.549 4870.86 1184.96
5533.94 408.173 442.133 -414.141 1369.67
5536.82 470.721 490.314 -347.711 -827.509
5539.7 592.05 543.82 -1720.67 458.317
5542.58 568.689 530.593 3443.34 981.161
5545.46 431.039 503.663 1220.82 2143.75
5548.34 511.26 530.283 1767.08 1561.8
5551.21 648.551 513.218 1697.5 937.612
5554.09 379.843 501.891 -651.743 681.603
5556.97 477.277 446.981 999.053 -564.087
5559.85 483.823 485.807 -2039.57 2118.71
5562.73 496.32 467.787 7396.66 1913.39
5565.6 423.218 465.639 383.084 2007.89
5568.48 477.378 436.114 -1756.07 1073.69
5571.36 407.747 497.081 4594.07 240.745
5574.24 606.119 484.501 -2115.76 1366.11
5577.11 439.638 538.979 1620.03 1345.43
5579.99 571.18 539.479 4532.03 2935.13
5582.87 607.621 563.411 2653.33 2954.74
5585.75 511.433 463.376 1678.85 984.21
5588.62 271.074 469.376 -1379.55 700.581
5591.5 625.621 389.237 1802.44 424.844
5594.38 271.015 442.576 851.636 1240.45
5597.25 431.091 348.99 1067.27 725.627
5600.13 344.863 395.552 257.977 1778.79
5603.01 410.701 383.035 4011.13 1821.79
5605.88 393.54 449.618 1196.26 2338.37
5608.76 544.613 482.256 1807.72 688.48
5611.64 508.613 524.016 -938.541 711.12
5614.51 518.82 472.176 1264.18 108.173
5617.39 389.095 491.912 -1.12237 1368.54
5620.26 567.822 480.698 2842.57 1372.73
5623.14 485.178 488.348 1276.75 1673.77
5626.01 412.046 432.9 902.003 98.1639
5628.89 401.477 446.208 -1884.26 -100.502
5631.77 525.101 477.026 680.751 211.118
5634.64 504.5 465.775 1836.86 2434.73
5637.52 367.724 452.813 4786.57 2322.81
5640.39 486.216 424.303 345 1988.06
5643.27 418.969 425.935 832.618 1237.52
5646.14 372.619 441.929 2534.95 896.792
5649.02 534.198 472.752 -677.188 12.1122
5651.89 511.44 525.626 -1821.42 441.318
5654.76 531.24 509.529 3822.56 1179.24
5657.64 485.908 462.222 1536.59 3098.45
5660.51 369.517 458.968 3936.19 2101.1
5663.39 521.48 499.697 830.509 884.99
5666.26 608.093 534.411 -2111.73 582.981
5669.14 473.66 491.644 3030.16 1390.2
5672.01 393.18 446.171 3252.17 1613.2
5674.88 471.673 507.451 -1442.72 835.287
5677.76 657.5 543.214 696.413 453.623
5680.63 500.47 520.375 2107.17 1773.22
5683.5 403.156 484.393 2516.07 1305.21
5686.38 549.552 462.197 -707.6 1234.58
5689.25 433.883 481.493 1895.28 1023.93
5692.12 461.043 422.727 1884.1 1216.53
5695 373.254 419.282 -129.809 1719.9
5697.87 423.548 440.125 3405.42 549.957
5700.74 523.573 469.095 -1625.74 790.883
5703.62 460.162 485.982 592.968 -9.60817
5706.49 474.211 471.656 1003.95 1434.06
5709.36 480.596 485.087 2705.28 516.345
5712.23 500.455 461.703 -2160.19 875.736
5715.1 404.059 483.477 2082.12 649.878
5717.98 545.916 476.691 2027.71 952.751
5720.85 480.097 504.618 -1251.57 619.168
5723.72 487.841 482.472 1081.37 1457.19
5726.59 479.477 506.751 4541.77 2292.84
5729.46 552.936 482.767 1255.37 1593.38
5732.34 415.889 465.805 -1016.99 297.59
5735.21 428.59 406.257 654.383 676.339
5738.08 374.293 441.171 2391.62 883.922
5740.95 520.631 457.639 -394.238 1525.4
5743.82 477.993 519.637 2578.81 -548.989
5746.69 560.287 485.704 -3831.54 355.757
5749.56 418.832 490.121 2320 -53.9353
5752.43 491.244 476.682 1349.74 1787
5755.3 519.97 496.663 1691.26 2345.88
5758.17 478.774 488.351 3996.64 2422.95
5761.05 466.31 485.049 1580.93 1630.75
5763.92 510.064 477.356 -685.339 1755.34
5766.79 455.694 464.332 4370.42 2188.02
5769.66 427.238 467.744 2878.97 2153.93
5772.53 520.299 481.604 -787.605 408.349
5775.4 497.274 469.046 -866.32 321.9
5778.27 389.565 454.787 2619.63 667.891
5781.13 477.521 463.38 250.368 852.544
5784 523.054 499.246 -312.36 697.796
5786.87 497.164 511.85 2155.38 1786.03
5789.74 515.333 466.007 3515.08 1321.58
5792.61 385.524 440.942 -1705.72 725.207
5795.48 421.97 454.367 366.255 -814.095
5798.35 555.607 472.115 -1102.82 256.415
5801.22 438.766 535.633 1505.81 1257.05
5804.09 612.527 500.061 3368.17 2488.85
5806.96 448.891 518.551 2592.56 1266.51
5809.82 494.233 483.365 -2161.2 985.384
5812.69 506.971 472.994 2524.79 359.082
5815.56 417.777 461.973 713.655 1042.37
5818.43 461.171 412.64 -111.319 -94.5933
5821.3 358.973 466.743 -886.115 -447.46
5824.17 580.087 463.912 -344.946 732.392
5827.03 452.675 492.25 3428.24 1489.69
5829.9 443.987 461.214 1385.79 1806.1
5832.77 486.981 444.531 604.284 2273.6
5835.64 402.626 479.164 4830.73 2130.92
5838.5 547.886 480.143 957.73 644.538
5841.37 489.918 489.775 -3854.85 -253.774
5844.24 431.521 438.894 2135.8 553.441
5847.1 395.242 435.166 3379.38 1907.77
5849.97 478.737 441.305 208.145 1076.29
5852.84 449.935 447.074 -358.641 670.468
5855.7 412.55 447.075 2161.9 744.729
5858.57 478.74 438.032 430.928 959.554
5861.44 422.806 462.91 285.834 1307.94
5864.3 487.184 418.475 3207.05 1310.07
5867.17 345.435 400.187 437.324 997.543
5870.04 367.942 409.058 -651.74 103.436
5872.9 513.795 478.854 524.723 1098.46
5875.77 554.825 500.603 3422.38 1260.5
5878.63 433.189 469.099 -165.608 1383.07
5881.5 419.283 398.427 892.435 482.355
5884.36 342.81 395.671 720.238 1200.46
5887.23 424.919 408.116 1988.72 1399
5890.09 456.619 411.156 1488.05 1451.43
5892.96 351.93 398.988 877.532 1369.58
5895.82 388.416 332.007 1743.15 928.489
5898.69 255.676 378.144 164.783 1069.71
5901.55 490.339 359.413 1301.21 716.161
5904.42 332.222 418.487 682.491 1680.74
5907.28 432.9 425.152 3058.52 1430.6
5910.15 510.335 527.812 550.794 1647.02
5913.01 640.202 531.612 1331.76 185.986
5915.87 444.299 566.999 -1324.59 619.048
5918.74 616.495 512.333 1849.98 399.543
5921.6 476.204 471.505 673.244 1888.51
5924.47 321.815 429.219 3142.32 1668.07
5927.33 489.637 381.372 1188.64 122.309
5930.19 332.662 464.135 -3964.03 -708.847
5933.06 570.104 499.343 648.851 633.892
5935.92 595.263 538.071 5216.86 2786.07
5938.78 448.847 535.872 2492.49 3250.95
5941.65 563.505 526.806 2043.49 2170.63
5944.51 568.066 580.155 1975.92 751.481
5947.37 608.895 545.335 -1764.96 308.852
5950.23 459.044 491.751 715.6 346.285
5953.1 407.316 407.858 2088.22 1158.32
5955.96 357.214 442.591 671.133 1589.26
5958.82 563.243 467.766 2008.43 634.173
5961.68 482.841 515.342 -777.049 872.224
5964.55 499.943 483.096 1385.29 1327.59
5967.41 466.505 510.856 3374.53 1779.07
5970.27 566.12 504.04 577.391 443.219
5973.13 479.496 496.311 -2622.26 -358.484
5975.99 443.318 491.25 969.418 -2.22576
5978.85 550.934 525.34 1646.16 1220.24
5981.71 581.766 529.208 1045.15 1729.51
5984.58 454.924 542.962 2497.21 774.853
5987.44 592.196 548.599 -1217.81 844.453
5990.3 598.678 549.78 1253.95 696.85
5993.16 458.466 498.961 2054.4 1389.4
5996.02 439.74 466.88 859.837 912.768
5998.88 502.433 452.887 -175.936 667.592
6001.74 416.488 468.937 1318.87 827.106
6004.6 487.891 419.038 1338.38 1040.94
6007.46 352.736 428.524 465.577 1322.27
6010.32 444.947 469.293 2162.85 939.763
6013.18 610.197 544.558 190.86 956.516
6016.04 578.531 547.537 515.836 822.137
6018.9 453.884 510.878 1759.72 892.325
6021.76 500.218 491.267 401.422 866.302
6024.62 519.699 532.602 437.769 898.263
6027.48 577.889 513.938 1855.6 617.036
6030.34 444.226 483.677 -442.259 1131.16
6033.2 428.916 452.596 1980.14 1432.85
6036.05 484.646 490.314 2760.66 910.344
6038.91 557.381 469.011 -2009.76 884.352
6041.77 365.006 482.48 1902.16 675.474
6044.63 525.053 440.107 2134.02 1440.5
6047.49 430.262 462.158 285.302 695.953
6050.35 431.16 428.02 -331.466 1046.65
6053.2 422.638 476.813 3186.12 1706.48
6056.06 576.64 508.081 2264.79 2046.9
6058.92 524.965 484.798 689.789 830.28
6061.78 352.79 471.76 -463.745 1061.4
6064.64 537.526 452.373 2958.15 1162.74
6067.49 466.804 513.76 993.815 2012.66
6070.35 536.949 561.082 2086.02 1386.75
6073.21 679.492 553.161 1080.43 912.55
6076.07 443.041 530.437 -428.794 771.613
6078.92 468.778 477.898 1663.21 1478.19
6081.78 521.876 500.372 3200.15 1493.27
6084.64 510.461 479.308 -383.539 1549.61
6087.49 405.587 457.468 1832.22 1068.72
6090.35 456.356 422.388 1757.47 1053.65
6093.2 405.221 439.281 -428.753 230.488
6096.06 456.266 501.314 -637.251 484.781
6098.92 642.453 525.288 2520.35 1560.19
6101.77 477.143 506.889 2797.47 2021.84
6104.63 401.071 461.716 747.689 1834.41
6107.48 506.935 459.502 1958.08 1521.6
6110.34 470.501 490.792 1859.04 1238.81
6113.2 494.94 484.2 -100.675 -107.16
6116.05 487.16 481.492 -2079.84 -81.2749
6118.91 462.376 465.793 1936.69 375.511
6121.76 447.844 482.748 1269.68 1786.29
6124.62 538.025 453.416 2152.5 845.805
6127.47 374.378 451.552 -884.77 549.233
6130.32 442.251 455.997 379.969 746.179
6133.18 551.361 508.447 2743.34 1349.54
6136.03 531.729 512.429 925.313 680.433
6138.89 454.198 492.901 -1627.35 -325.948
6141.74 492.777 431.925 -275.806 94.0236
6144.6 348.799 498.118 2185.23 867.056
6147.45 652.778 498.204 691.748 1352.84
6150.3 493.035 559.774 1181.54 876.974
6153.16 533.51 509.577 757.631 1583.15
6156.01 502.185 490.453 2810.27 162.722
6158.86 435.663 491.789 -3079.74 -4.71048
6161.72 537.518 522.617 255.335 624.282
6164.57 594.669 546.536 4697.25 1847.39
6167.42 507.421 542.738 589.57 1848.05
6170.28 526.124 499.2 257.316 215.755
6173.13 464.056 483.341 -199.62 -55.2934
6175.98 459.844 462.261 -223.576 503.985
6178.83 462.882 438.165 1935.15 471.981
6181.69 391.769 451.125 -295.632 1323.72
6184.54 498.724 401.921 2331.64 170.267
6187.39 315.27 459.696 -1525.21 1057.35
6190.24 565.093 464.544 2365.61 629.638
6193.09 513.27 538.104 1048.51 1516.63
6195.94 535.949 534.285 1135.78 1334.45
6198.8 553.636 550.186 1819.07 1383.72
6201.65 560.973 557.881 1196.31 1206.2
6204.5 559.033 495.148 603.235 1330.91
6207.35 365.439 463.14 2193.18 1340.78
6210.2 464.949 460.395 1225.93 958.075
6213.05 550.798 501.037 -544.887 870.243
6215.9 487.364 485.926 1929.68 1259.4
6218.75 419.615 470.566 2393.39 2353.26
6221.6 504.72 481.227 2736.72 1644.31
6224.45 519.346 515.848 -197.188 938.643
6227.3 523.476 497.809 276.396 -53.4323
6230.15 450.603 490.58 -239.505 780.55
6233 497.661 427.867 2304.76 865.972
6235.85 335.338 413.722 532.662 981.381
6238.7 408.166 455.832 106.723 903.289
6241.55 623.991 511.461 2070.48 850.158
6244.4 502.228 534.327 373.267 564.484
6247.25 476.763 517.655 -750.297 1294.02
6250.1 573.975 523.82 4259.1 1550.3
6252.95 520.721 509.21 1142.11 2294.28
6255.8 432.935 493.513 1481.63 838.373
6258.64 526.882 459.011 -108.619 228.41
6261.49 417.216 515.924 -687.778 501.894
6264.34 603.673 535.477 2302.08 1439.16
6267.19 585.543 548.987 2703.16 1877.07
6270.04 457.746 486.596 625.956 714.948
6272.88 416.501 440.157 -1184.28 -319.473
6275.73 446.223 461.786 -400.097 -185.947
6278.58 522.633 481.624 1026.53 434.708
6281.43 476.016 438.539 677.687 1797.77
6284.27 316.969 445.389 3689.1 1135.81
6287.12 543.183 436.024 -959.363 736.442
6289.97 447.92 496.488 -520.412 515.05
6292.82 498.359 521.617 3024.92 1036.52
6295.66 618.572 492.27 605.052 1842.32
6298.51 359.88 540.492 1896.98 1548.76
6301.36 643.023 471.953 2144.24 2304.49
6304.2 412.955 484.655 2872.25 1340.77
6307.05 397.985 448.856 -994.191 290.365
6309.89 535.628 457.409 -1006.97 -411.308
6312.74 438.612 478.828 767.235 789.362
6315.59 462.243 466.757 2607.82 1587.47
6318.43 499.414 468.544 1387.35 1296.37
6321.28 443.976 412.732 -106.051 643.865
6324.12 294.806 368.65 650.299 328.139
6326.97 367.169 378.662 440.17 603.935
6329.81 474.012 428.077 721.336 742.922
6332.66 443.051 445.197 1067.26 1223.37
6335.5 418.53 441.217 1881.51 480.026
6338.35 462.07 420.109 -1508.69 212.338
6341.19 379.728 458.039 264.198 177.598
6344.04 532.319 454.116 1777.29 709.521
6346.88 450.302 483.204 87.0803 585.419
6349.72 466.992 472.484 -108.108 345.424
6352.57 500.159 506.759 1057.3 589.205
6355.41 553.126 481.011 818.425 1187.09
6358.25 389.748 448.434 1685.54 1817.56
6361.1 402.43 454.999 2948.71 1519.84
6363.94 572.82 470.442 -74.7176 1046.55
6366.78 436.075 474.188 265.648 861.803
6369.63 413.669 450.718 2394.48 973.803
6372.47 502.41 443.428 261.28 1611.9
6375.31 414.203 474.016 2179.93 1384.16
6378.16 505.436 451.081 1711.26 1130.98
6381 433.604 417.678 -498.244 742.708
6383.84 313.995 405.199 1015.11 761.989
6386.68 467.998 422.261 1769.1 1706.57
6389.53 484.791 452.774 2335.49 1825.22
6392.37 405.533 474.868 1371.06 967.811
6395.21 534.279 430.917 -803.12 486.756
6398.05 352.939 448.131 892.327 554.046
6400.89 457.175 382.573 1572.93 1172.5
6403.73 337.603 412.348 1052.23 484.595
6406.57 442.264 361.947 -1171.38 268.105
6409.42 305.974 388.361 923.463 86.8707
6412.26 416.845 328.22 508.529 519.854
6415.1 261.841 337.703 127.57 314.787
6417.94 334.422 290.818 308.263 138.636
6420.78 276.191 277.253 -19.9236 500.312
6423.62 221.146 208.883 1212.6 650.175
6426.46 129.311 217.944 757.851 868.31
6429.3 303.376 172.284 634.481 694.928
6432.14 84.1659 236.929 692.453 57.0207
6434.98 323.246 184.429 -1155.87 179.726
6437.82 145.875 239.688 1002.6 325.965
6440.66 249.942 200.13 1131.17 1005.63
6443.5 204.572 210.984 883.111 690.432
6446.34 178.44 170.935 57.0153 600.706
6449.17 129.794 166.406 861.993 532.273
6452.01 190.985 126.068 677.81 367.904
6454.85 57.4245 144.023 -436.092 416.362
6457.69 183.659 112.71 1007.37 221.028
6460.53 97.0471 147.313 91.8082 1099.33
6463.37 161.232 84.9536 2198.81 659.383
6466.21 -3.41798 72.856 -312.474 279.849
6469.04 60.7542 55.4386 -1046.79 -255.012
6471.88 108.979 132.39 594.229 102.085
6474.72 227.436 146.534 758.818 660.682
6477.56 103.187 159.312 628.999 353.882
6480.39 147.313 136.739 -326.171 -174.335
6483.23 159.718 157.834 -825.833 -454.708
6486.07 166.471 159.075 -212.119 -365.197
6488.9 151.036 219.386 -57.6392 416.211
6491.74 340.652 169.144 1518.39 1226.45
6494.58 15.7432 140.276 2218.6 1462.6
6497.41 64.4321 63.0897 650.817 690.902
6500.25 109.094 63.0869 -796.715 710.108
6503.09 15.7348 92.3683 2276.22 658.063
6505.92 152.276 107.554 494.683 1049.18
6508.76 154.651 168.485 376.636 619.329
6511.59 198.528 186.823 986.668 355.554
6514.43 207.292 189.41 -296.643 825.641
6517.27 162.411 190.632 1786.9 631.592
6520.1 202.192 178.37 404.522 1007.04
6522.94 170.507 214.666 829.694 665.791
6525.77 271.298 241.073 763.156 551.52
6528.61 281.416 287.096 61.7087 742.858
6531.44 308.574 296.68 1403.71 1063.71
6534.27 300.051 292.799 1725.72 1582.25
6537.11 269.773 275.707 1617.32 1168.4
6539.94 257.298 253.644 162.152 429.763
6542.78 233.861 288.099 -490.18 -44.9718
6545.61 373.138 313.973 193.112 166.944
6548.44 334.92 343.892 797.899 935.995
6551.28 323.617 347.57 1816.98 1305.27
6554.11 384.173 369.319 1300.94 924.97
6556.94 400.169 440.784 -343.007 355.79
6559.78 538.009 510.71 109.434 984.679
6562.61 593.952 575.158 3187.61 1379.68
6565.44 593.512 597.504 842.005 1198.86
6568.28 605.049 627.681 -433.04 424.601
6571.11 684.482 685.516 864.84 718.351
6573.94 767.018 704.691 1723.25 1204.86
6576.77 662.574 728.134 1026.5 888.902
6579.6 754.812 745.072 -83.0449 820.048
6582.44 817.829 826.636 1516.69 1223.51
6585.27 907.267 839.8 2236.88 2116.64
6588.1 794.304 851.968 2596.34 1970.39
6590.93 854.334 837.175 1077.93 1562.82
6593.76 862.886 895.451 1014.17 1436.99
6596.59 969.134 938.402 2218.88 1759.44
6599.42 983.187 968.411 2045.27 1468.35
6602.26 952.913 987.547 140.886 1533.12
6605.09 1026.54 1011.09 2413.19 1516.45
6607.92 1053.8 1058.1 1995.26 1478.75
6610.75 1093.96 1052.04 27.8059 1886.83
6613.58 1008.35 1092.43 3637.41 1997.42
6616.41 1174.98 1115.1 2327.06 2621.89
6619.24 1161.95 1111.16 1901.2 1638.98
6622.07 996.556 1065.16 688.676 1164.38
6624.9 1036.96 1010.51 903.255 1323.52
6627.73 998.024 1060.36 2378.63 2085.51
6630.55 1146.11 1090.24 2974.66 2181.14
6633.38 1126.58 1095.93 1190.13 1502.34
6636.21 1015.1 1045.64 342.22 797.519
6639.04 995.239 1045.72 860.206 1479.5
6641.87 1126.84 1044.15 3236.07 2043.82
6644.7 1010.38 1098.54 2035.18 2462.66
6647.53 1158.41 1077.49 2116.73 2154.08
6650.35 1063.68 1128.65 2310.34 1479.28
6653.18 1163.85 1132.38 10.7713 1378.57
6656.01 1169.59 1141.48 1814.6 1459.65
6658.84 1090.99 1097.52 2553.59 2430.06
6661.66 1031.99 1062.98 2922 2369.78
6664.49 1065.96 1060.31 1633.77 1918.69
6667.32 1083 1044.87 1200.31 1380.61
6670.15 985.659 1013.11 1307.74 1662.54
6672.97 970.662 992.617 2479.58 2148.05
6675.8 1021.53 1007.48 2656.83 2116.56
6678.63 1030.24 1012.98 1213.27 1601.95
6681.45 987.152 1015.47 935.755 1119.66
6684.28 1029.01 950.363 1209.96 1384.23
6687.1 834.927 954.451 2006.96 1995.22
6689.93 999.416 896.046 2768.74 2076.82
6692.76 853.795 932.867 1454.76 1413.13
6695.58 945.39 899.408 15.882 554.406
6698.41 899.04 891.138 192.579 735.41
6701.23 828.983 848.64 1997.77 1493.73
6704.06 817.897 843.108 2290.86 1648.4
6706.88 882.445 851.037 656.569 1041.52
6709.71 852.77 849.542 177.124 758.677
6712.53 813.412 782.996 1442.34 594.254
6715.36 682.806 777.279 163.299 1177.51
6718.18 835.62 757.707 1926.88 1557.36
6721 754.696 775.355 2581.9 2419.54
6723.83 735.75 746.554 2749.82 1771.98
6726.65 749.216 753.32 -15.7799 1177.57
6729.48 774.994 744.796 798.665 678.237
6732.3 710.178 704.875 1251.82 1140.02
6735.12 629.453 700.002 1369.57 587.553
6737.94 760.374 676.04 -858.733 707.258
6740.77 638.293 710.516 1610.94 1001.4
6743.59 732.88 702.413 2251.98 1810.65
6746.41 736.067 695.756 1569.03 1225.24
6749.24 618.322 672.6 -145.295 273.935
6752.06 663.412 633.384 -601.932 439.387
6754.88 618.417 648.956 2065.39 798.462
6757.7 665.039 668.206 931.929 1317.22
6760.52 721.162 665.581 954.355 1544.59
6763.35 610.544 610.499 2747.48 1630.4
6766.17 499.791 542.515 1189.37 1219.15
6768.99 517.21 534.294 -279.407 339.799
6771.81 585.88 587.832 109.432 453.934
6774.63 660.406 627.273 1531.78 659.693
6777.45 635.532 565.478 337.871 1277.93
6780.27 400.497 555.195 1964.13 1092.71
6783.09 629.557 574.824 976.117 1431.95
6785.91 694.419 639.261 1355.6 1286.59
6788.73 593.807 596.066 1528.05 1528.79
6791.55 499.971 560.29 1702.72 1227.96
6794.37 587.092 559.078 453.11 873.84
6797.19 590.169 577.809 465.693 730.496
6800.01 556.165 600.368 1272.68 1163.5
6802.83 654.77 604.06 1752.12 1140.38
6805.65 601.246 563.769 396.326 843.483
6808.47 435.29 539.661 382.006 318.193
6811.29 582.445 506.289 176.246 579.239
6814.11 501.132 518.577 1179.47 757.551
6816.92 472.155 484.313 916.94 965.021
6819.74 479.653 462.721 798.658 902.099
6822.56 436.356 446.876 990.698 508.508
6825.38 424.617 456.759 -263.831 83.0304
6828.2 509.303 431.375 -477.776 195.364
6831.01 360.205 494.116 1327.7 1131.12
6833.83 612.84 494.74 2543.43 1651.55
6836.65 511.174 517.719 1083.53 1308.91
6839.47 429.143 490.589 299.759 760.101
6842.28 531.452 449.688 897.018 541.671
6845.1 388.468 449.686 428.236 297.605
6847.92 429.138 434.842 -432.438 559.68
6850.73 486.921 488.863 1683.24 1047.32
6853.55 550.53 495.521 1891.14 1822.87
6856.36 449.111 470.815 1894.22 1009.49
6859.18 412.805 432.703 -756.891 480.236
6862 436.193 421.772 303.377 -74.3911
6864.81 416.316 388.733 230.34 487.218
6867.63 313.691 329.866 927.937 474.44
6870.44 259.592 307.089 265.042 319.383
6873.26 347.985 312.354 -234.83 331.895
6876.07 329.486 335.827 965.474 382.217
6878.89 330.011 351.34 416.009 772.741
6881.7 394.522 391.984 936.741 411.083
6884.51 451.42 394.713 -119.501 947.196
6887.33 338.198 384.626 2024.35 950.944
6890.14 364.259 383.332 947.987 1200.87
6892.96 447.539 377.815 630.28 747.701
6895.77 321.646 372.761 664.838 918.258
6898.58 349.098 395.859 1459.66 1058.52
6901.4 516.833 427.182 1051.07 837.672
6904.21 415.615 428.412 2.2899 55.0547
6907.02 352.789 409.599 -888.196 -137.121
6909.84 460.393 400.225 474.544 359.991
6912.65 387.495 407.582 1493.63 1195.49
6915.46 374.858 406.636 1618.29 1438.8
6918.27 457.555 412.331 1204.5 952.951
6921.09 404.581 434.958 36.0659 843.984
6923.9 442.736 432.208 1291.39 353.172
6926.71 449.308 435.519 -267.94 614.009
6929.52 414.513 412.138 818.577 443.872
6932.33 372.594 385.292 780.98 655.106
6935.14 368.769 372.048 365.762 696.384
6937.95 374.78 403.319 942.41 699.251
6940.76 466.41 423.279 789.583 1309.62
6943.58 428.648 439.256 2196.86 1039.21
6946.39 422.711 421.084 131.197 637.436
6949.2 411.893 403.621 -415.749 210.734
6952.01 376.26 392.714 916.754 544.124
6954.82 389.99 398.95 1131.37 917.894
6957.63 430.601 373.4 705.561 502.837
6960.44 299.61 380.367 -328.415 404.315
6963.25 410.891 353.4 835.8 529.383
6966.05 349.7 359.507 1080.76 966.199
6968.86 317.929 381.013 982.033 1069.43
6971.67 475.411 402.397 1145.49 944.363
6974.48 413.852 421.241 705.566 523.445
6977.29 374.461 380.265 -280.721 303.503
6980.1 352.483 373.321 485.663 490.122
6982.91 393.019 349.227 1265.42 780.488
6985.71 302.18 361.629 590.376 634.329
6988.52 389.689 384.807 47.187 565.765
6991.33 462.553 372.967 1059.73 836.179
6994.14 266.659 363.302 1401.62 1135.69
6996.94 360.694 297.594 945.724 953.073
6999.75 265.43 318.616 511.878 339.448
7002.56 329.723 337.774 -439.259 379.884
7005.37 418.168 380.53 1067.03 520.378
7008.17 393.7 412.895 933.359 1210.19
7010.98 426.816 384.081 1630.19 1223.66
7013.78 331.726 388.388 1107.42 1220.8
7016.59 406.622 356.835 924.797 785.105
7019.4 332.157 351.75 323.097 498.342
7022.2 316.471 338.874 247.132 452.935
7025.01 367.995 365.657 788.577 880.643
7027.81 412.505 412.235 1606.22 793.157
7030.62 456.205 397.305 -15.325 647.013
7033.42 323.203 379.411 350.146 212.896
7036.23 358.824 364.94 303.868 -56.3237
7039.03 412.792 372.085 -822.985 70.5028
7041.84 344.64 340.088 730.625 22.775
7044.64 262.831 360.466 160.685 704.129
7047.44 473.927 393.59 1221.08 550.064
7050.25 444.013 471.753 268.433 893.082
7053.05 497.319 443.68 1189.74 1113.31
7055.86 389.707 422.602 1881.76 1156.02
7058.66 380.779 400.268 396.551 1072.05
7061.46 430.316 426.173 937.846 603.086
7064.27 467.423 426.543 474.859 873.917
7067.07 381.891 389.671 1209.05 1112.35
7069.87 319.699 378.861 1653.14 878.886
7072.67 434.994 378.704 -225.53 739.437
7075.48 381.419 382.636 790.7 504.768
7078.28 331.495 347.98 949.134 1245.66
7081.08 331.027 343.71 1997.14 848.89
7083.88 368.609 373.49 -399.605 518.243
7086.68 420.834 399.663 -42.8055 260.03
7089.48 409.546 393.188 1222.5 581.535
7092.28 349.184 382.013 564.91 643.058
7095.09 387.309 355.931 141.763 472.514
7097.89 331.299 353.932 710.868 467.856
7100.69 343.189 364.52 550.938 449.395
7103.49 419.071 411.109 86.3795 298.734
7106.29 471.069 432.526 258.884 443.384
7109.09 407.438 430.549 984.888 500.373
7111.89 413.141 392.839 257.346 417.311
7114.69 357.939 405.272 9.6987 748.592
7117.49 444.735 404.597 1978.73 1125.86
7120.29 411.117 379.663 1389.14 1243.7
7123.08 283.135 344.005 363.226 852.173
7125.88 337.763 285.998 804.153 471.633
7128.68 237.097 302.824 247.522 549.888
7131.48 333.612 314.369 597.989 487.052
7134.28 372.399 347.824 615.645 707.574
7137.08 337.462 331.602 909.088 747.216
7139.87 284.944 325.07 716.915 699.585
7142.67 352.804 318.146 472.751 410.413
7145.47 316.691 342.541 41.5747 469.526
7148.27 358.128 356.497 894.253 248.564
7151.06 394.672 389.971 -190.137 591.287
7153.86 417.114 381.789 1069.74 663.143
7156.66 333.581 328.679 1109.82 901.567
7159.45 235.341 301.761 525.135 547.876
7162.25 336.362 364.217 8.6694 354.3
7165.05 520.95 447.605 529.095 467.289
7167.84 485.505 480.529 864.101 786.3
7170.64 435.132 426.011 965.704 847.954
7173.43 357.395 362.739 714.056 795.089
7176.23 295.688 350.515 705.506 870.423
7179.03 398.463 316.603 1191.71 1006.48
7181.82 255.657 336.974 1122.23 849.006
7184.62 356.801 315.126 233.076 414.897
7187.41 332.92 317.608 -110.621 183.397
7190.2 263.104 290.911 427.736 562.554
7193 276.709 253.988 1370.55 727.032
7195.79 222.151 266.514 382.813 761.02
7198.59 300.682 254.685 529.7 401.584
7201.38 241.223 299.524 292.239 425.659
7204.17 356.668 306.733 455.038 141.85
7206.97 322.308 328.668 -321.727 223.291
7209.76 307.029 311.658 536.561 -45.4956
7212.55 305.637 319.168 -351.321 248.878
7215.35 344.838 328.895 561.395 387.004
7218.14 336.211 331.98 950.937 645.111
7220.93 314.891 323.786 423.001 583.33
7223.72 320.255 313.159 376.052 421.018
7226.52 304.331 338.253 463.999 664.204
7229.31 390.172 309.84 1152.56 628.218
7232.1 235.018 318.217 268.092 572.173
7234.89 329.461 290.826 295.866 568.948
7237.68 308 347.18 1142.88 781.12
7240.47 404.08 339.641 904.609 610.26
7243.26 306.843 384.066 -216.712 255.774
7246.05 441.275 333.983 79.4243 -9.25092
7248.84 253.83 345.863 109.535 269.542
7251.63 342.483 299.134 619.667 374.428
7254.42 301.09 282.441 394.081 621.74
7257.21 203.75 235.461 851.472 678.238
7260 201.542 230.132 789.16 671.15
7262.79 285.105 274.047 372.819 820.614
7265.58 335.494 294.904 1299.86 748.93
7268.37 264.113 279.133 574.109 670.121
7271.16 237.791 256.878 136.392 1014.46
7273.95 268.73 281.027 2332.89 1116.16
7276.74 336.561 287.036 879.205 903.442
7279.53 255.816 308.598 -501.769 138.895
7282.31 333.417 271.219 39.2501 -97.5983
7285.1 224.424 261.454 169.724 -19.25
7287.89 226.521 259.468 -266.724 304.963
7290.68 327.46 293.319 1011.89 569.176
7293.46 325.975 314.557 962.363 522.154
7296.25 290.235 285.391 -407.79 389.723
7299.04 239.964 273.683 614.595 116.609
7301.83 290.85 290.524 143.021 463.531
7304.61 340.758 288.694 632.977 275.295
7307.4 234.472 309.747 49.8871 519.562
7310.18 354.012 309.04 875.822 944.387
7312.97 338.635 325.927 1907.45 1078.06
7315.76 285.135 286.805 450.913 899.428
7318.54 236.646 295.042 339.918 582.946
7321.33 363.346 312.989 958.007 1036.32
7324.11 338.973 369.306 1811.03 1125.92
7326.9 405.598 383.819 608.739 1231.44
7329.68 406.885 382.403 1274.54 1121.03
7332.47 334.725 377.915 1479.81 979.861
7335.25 392.136 364.307 185.236 677.119
7338.03 366.06 337.662 366.317 535.778
7340.82 254.789 305.725 1055.78 758.445
7343.6 296.325 280.542 853.235 1168.77
7346.39 290.512 305.447 1597.28 884.998
7349.17 329.504 317.178 204.48 778.878
7351.95 331.518 355.304 534.876 247.883
7354.73 404.889 395.436 4.29365 555.103
7357.52 449.902 411.408 1126.14 560.335
7360.3 379.433 366.199 550.571 519.23
7363.08 269.262 372.669 -119.019 334.67
7365.86 469.312 378.682 572.458 478.613
7368.65 397.472 376.568 982.401 767.665
7371.43 262.919 340.964 748.137 369.496
7374.21 362.501 333.452 -622.049 146.724
7376.99 374.937 369.695 314.084 256.786
7379.77 371.648 337.192 1078.32 563.515
7382.55 264.992 302.785 298.138 481.425
7385.33 271.715 302.299 67.815 324.758
7388.11 370.188 322.23 608.32 645.99
7390.89 324.786 316.448 1261.83 759.785
7393.67 254.369 284.066 409.202 508.962
7396.45 273.042 277.643 -144.151 265.951
7399.23 305.518 320.815 532.803 526.977
7402.01 383.885 316.901 1192.28 1024.46
7404.79 261.299 317.269 1348.31 954.234
7407.57 306.623 285.99 322.11 427.257
7410.35 290.048 318.741 -388.651 275.278
7413.13 359.553 323.7 892.374 629.287
7415.91 321.501 324.879 1384.14 739.249
7418.68 293.584 297.518 -58.7654 599.459
7421.46 277.47 309.098 473.005 151.317
7424.24 356.239 320.782 39.7126 562.419
7427.02 328.636 296.568 1174.54 713.644
7429.8 204.828 301.449 926.678 1058.89
7432.57 370.883 280.963 1075.47 580.926
7435.35 267.177 300.686 -259.367 119.324
7438.13 264 274.037 -458.127 49.4136
7440.9 290.934 303.409 865.735 224.927
7443.68 355.295 299.402 267.172 356.506
7446.46 251.976 307.216 -63.3881 324.312
7449.23 314.376 296.708 769.153 463.921
7452.01 323.771 307.829 685.996 750.743
7454.78 285.342 303.275 797.078 434.465
7457.56 300.713 305.365 -179.681 313.155
7460.33 330.041 286.148 322.068 117.711
7463.11 227.689 290.634 210.744 720.552
7465.88 314.172 298.006 1628.84 1000.62
7468.66 352.156 334.293 1162.26 1018.8
7471.43 336.551 336.685 265.291 745.772
7474.2 321.349 277.534 809.767 650.643
7476.98 174.702 238.722 876.872 412.078
7479.75 220.113 239.925 -450.404 47.9495
7482.53 324.96 260.898 -282.619 -151.217
7485.3 237.622 262.693 279.372 91.3436
7488.07 225.498 235.646 277.278 494.688
7490.84 243.819 249.063 927.414 614.102
7493.62 277.873 256.993 637.612 861.64
7496.39 249.288 266.961 1019.89 668.633
7499.16 273.722 259.562 348.392 348.813
7501.93 255.675 277.851 -321.849 104.352
7504.71 304.155 263.741 286.511 96.6889
7507.48 231.393 275.568 325.404 396.458
7510.25 291.156 262 577.459 352.595
7513.02 263.45 274.903 154.922 473.339
7515.79 270.102 266.97 687.636 252.854
7518.56 267.357 282.729 -83.996 469.795
7521.33 310.729 268.7 805.744 474.728
7524.1 228.016 231.695 702.436 856.744
7526.87 156.341 234.74 1062.05 516.206
7529.64 319.862 229.602 -215.872 334.137
7532.41 212.601 276.799 156.229 452.195
7535.18 297.933 278.365 1416.23 707.817
7537.95 324.56 282.257 550.992 1009.96
7540.72 224.278 275.266 1062.65 551.512
7543.49 276.961 250.11 40.8893 427.909
7546.26 249.091 250.257 180.185 255.593
7549.02 224.717 265.681 545.705 271.964
7551.79 323.235 278.176 90.0017 274.758
7554.56 286.578 278.258 188.567 265.159
7557.33 224.961 227.454 516.909 229.263
7560.09 170.824 235.362 -17.6864 261.642
7562.86 310.3 224.329 285.703 236.021
7565.63 191.863 227.682 440.047 360.026
7568.4 180.884 220.149 354.327 273.567
7571.16 287.701 238.315 26.3263 481.153
7573.93 246.361 267.678 1062.81 614.532
7576.69 268.971 266.454 754.464 553.725
7579.46 284.03 269.102 -156.095 398.598
7582.23 254.305 263.291 597.426 250.267
7584.99 251.538 241.258 309.47 557.071
7587.76 217.931 221.31 764.318 486.434
7590.52 194.459 197.383 385.514 559.336
7593.29 179.757 184.15 528.175 297.309
7596.05 178.232 144.077 -21.7639 404.997
7598.82 74.2407 120.997 708.581 155.572
7601.58 110.519 83.4658 -220.101 40.7644
7604.34 65.6381 77.1671 -366.186 -258.67
7607.11 55.3446 81.5789 -189.724 -257.564
7609.87 123.754 89.5398 -216.781 -77.8138
7612.63 89.5209 122.832 173.063 93.4717
7615.4 155.22 147.055 324.133 231.617
7618.16 196.423 192.402 197.657 376.998
7620.92 225.561 175.336 609.205 506.784
7623.68 104.024 155.546 713.49 513.601
7626.45 137.053 100.484 218.108 297.213
7629.21 60.3756 119.95 -39.9588 109.25
7631.97 162.422 111.896 149.6 123.527
7634.73 112.89 131.076 260.938 68.5561
7637.49 117.914 136.874 -204.87 8.36724
7640.25 179.817 134.228 -30.9663 -101.297
7643.02 104.952 162.589 -68.0557 78.4435
7645.78 202.999 161.46 334.353 12.587
7648.54 176.429 189.918 -228.536 196.146
7651.3 190.326 171.93 482.622 376.611
7654.06 149.036 184.095 875.749 623
7656.82 212.925 180.338 510.63 541.847
7659.58 179.054 202.42 239.164 290.565
7662.33 215.282 190.722 121.902 261.767
7665.09 177.83 195.698 424.236 483.356
7667.85 193.984 195.1 903.931 416.679
7670.61 213.487 179.057 -78.1296 438.905
7673.37 129.701 198.376 490.914 483.213
7676.13 251.941 216.5 1036.85 655.289
7678.89 267.857 232.62 438.099 590.43
7681.64 178.062 244.991 296.339 596.597
7684.4 289.052 211.66 1055.35 721.318
7687.16 167.865 207.895 812.262 732.453
7689.92 166.767 178.902 329.743 509.552
7692.67 202.074 160.274 386.65 573.792
7695.43 111.982 175.638 1004.98 905.097
7698.19 212.857 186.872 1323.66 926.86
7700.94 235.778 226.166 451.936 693.551
7703.7 229.863 211.911 305.057 378.915
7706.45 170.092 236.44 379.751 556.578
7709.21 309.365 234.921 984.926 641.756
7711.96 225.306 211.027 560.592 556.033
7714.72 98.4105 200.621 122.582 901.376
7717.47 278.148 204.03 2020.95 1282.02
7720.23 235.531 230.702 1702.51 1395.98
7722.98 178.427 228.98 464.481 929.475
7725.74 272.981 244.469 621.433 505.358
7728.49 282 279.717 430.158 550.7
7731.24 284.17 256.965 600.51 473.185
7734 204.726 246.898 388.886 505.936
7736.75 251.798 241.059 528.412 410.348
7739.5 266.654 228.169 313.744 576.429
7742.26 166.057 221.81 887.132 782.907
7745.01 232.72 245.768 1147.84 1029.68
7747.76 338.527 290.081 1054.07 936.84
7750.51 298.995 277.463 608.608 860.172
7753.26 194.869 242.081 917.839 675.32
7756.02 232.379 237.847 499.513 417.873
7758.77 286.295 250.182 -163.733 197.366
7761.52 231.871 215.95 256.317 -34.2969
7764.27 129.684 184.867 -195.474 119.933
7767.02 193.047 188.264 298.958 267.326
7769.77 242.062 182.168 698.493 445.673
7772.52 111.396 159.989 339.569 525.189
7775.27 126.51 151.511 537.505 544.226
7778.02 216.627 182.918 755.603 515.402
7780.77 205.616 202.599 253.098 667.451
7783.52 185.556 190.215 993.65 637.529
7786.27 179.475 186.361 665.837 621.634
7789.02 194.052 206.973 205.414 343.203
7791.77 247.391 242.009 158.358 235.498
7794.51 284.585 239.941 342.723 106.565
7797.26 187.846 197.008 -181.387 21.057
7800.01 118.592 167.384 -98.1651 167.727
7802.76 195.715 158.156 782.732 287.889
7805.51 160.161 172.42 179.1 274.437
7808.25 161.386 171.239 -138.519 -28.9851
7811 192.17 165.236 -127.536 247.61
7813.75 142.152 184.482 1008.89 491.567
7816.49 219.125 218.552 593.351 712.754
7819.24 294.379 256.239 536.026 689.104
7821.98 255.212 278.91 937.934 676.798
7824.73 287.138 263.263 556.436 536.539
7827.48 247.44 240.862 115.247 419.91
7830.22 188.009 198.064 588.047 365.978
7832.97 158.744 175.594 394.641 513.708
7835.71 180.031 192.776 558.436 387.359
7838.46 239.553 233.279 209 464.044
7841.2 280.254 236.321 624.696 379.511
7843.94 189.155 215.61 304.837 616.296
7846.69 177.42 172.2 919.354 626.583
7849.43 150.027 172.291 655.558 571.883
7852.18 189.426 188.451 140.738 620.603
7854.92 225.9 206.348 1065.51 539.854
7857.66 203.719 195.812 413.311 593.865
7860.4 157.816 175.66 302.771 661.681
7863.15 165.444 196.282 1268.96 798.675
7865.89 265.585 200.387 824.295 803.275
7868.63 170.13 230.555 316.57 544.065
7871.37 255.949 193.654 491.331 274.906
7874.11 154.883 190.571 16.8173 548.846
7876.86 160.883 166.911 1138.39 535.388
7879.6 184.966 185.74 450.957 646.171
7882.34 211.37 229.529 349.164 402.998
7885.08 292.251 242.402 408.874 249.891
7887.82 223.585 213.922 -8.36418 346.08
7890.56 125.93 197.264 637.73 489.024
7893.3 242.277 211.479 837.707 823.275
7896.04 266.229 225.216 994.387 609.532
7898.78 167.142 224.83 -3.49916 506.07
7901.52 241.119 213.726 527.323 306.302
7904.26 232.918 224.12 395.081 482.723
7906.99 198.323 238.574 525.764 519.299
7909.73 284.481 242.574 637.051 410.969
7912.47 244.918 239.787 70.0915 314.355
7915.21 189.961 225.181 235.923 229.675
7917.95 240.664 189.986 383.009 463.499
7920.68 139.335 185.847 771.566 351.29
7923.42 177.543 177.817 -100.706 242.845
7926.16 216.574 189.45 57.675 176.406
7928.89 174.234 183.879 572.25 373.105
7931.63 160.828 158.579 489.391 221.703
7934.37 140.676 174.477 -396.534 71.9015
7937.1 221.928 179.139 122.847 125.484
7939.84 174.813 192.55 650.139 445.806
7942.57 180.907 165.51 564.432 476.113
7945.31 140.811 195.486 213.769 291.286
7948.04 264.738 188.593 95.6569 19.1901
7950.78 160.231 204.448 -251.855 -95.1402
7953.51 188.375 167.768 -129.222 -24.8851
7956.25 154.698 201.025 306.422 352.497
7958.98 260.002 209.941 880.291 639.994
7961.72 215.124 225.703 733.269 690.957
7964.45 201.983 210.14 459.312 387.454
7967.18 213.312 162.403 -30.2192 231.73
7969.92 71.9137 122.576 266.096 341.602
7972.65 82.5012 116.638 788.929 395.245
7975.38 195.498 153.61 130.709 170.43
7978.11 182.833 170.413 -408.348 87.8969
7980.84 132.908 149.634 541.329 115.245
7983.58 133.161 168.86 212.753 336.705
7986.31 240.51 197.238 256.034 453.436
7989.04 218.042 243.029 891.521 604.261
7991.77 270.535 236.119 665.229 571.537
7994.5 219.78 229.579 157.86 214.353
7997.23 198.422 219.445 -180.031 170.38
7999.96 240.133 219.554 533.312 403.082
8002.69 220.107 193.052 855.964 675.174
8005.42 118.916 177.289 636.244 566.57
8008.15 192.845 169.423 207.501 220.219
8010.88 196.507 188.303 -183.088 157.908
8013.61 175.558 174.785 449.312 -25.6336
8016.34 152.291 165.077 -343.125 77.1908
8019.07 167.383 159.77 125.385 60.625
8021.8 159.634 188.057 399.615 60.6875
8024.52 237.153 168.723 -342.938 63.6506
8027.25 109.381 192.242 134.275 -3.38288
8029.98 230.191 157.582 198.514 370.406
8032.71 133.175 165.289 778.428 524.964
8035.43 132.5 139.258 597.949 454.028
8038.16 152.1 136.85 -14.2933 367.363
8040.89 125.95 164.26 518.434 396.223
8043.61 214.73 177.072 684.527 569.565
8046.34 190.536 173.539 505.735 589.376
8049.07 115.35 150.65 577.867 242.527
8051.79 146.064 139.017 -356.021 128.515
8054.52 155.638 169.782 163.7 195.322
8057.24 207.643 156.628 778.287 290.751
8059.97 106.603 169.404 -69.7337 296.157
8062.69 193.966 156.954 179.917 225.454
8065.41 170.293 198.439 566.18 448.301
8068.14 231.059 169.413 598.806 408.085
8070.86 106.889 156.035 59.2694 281.281
8073.59 130.157 154.645 185.767 219.49
8076.31 226.888 167.933 413.434 313.332
8079.03 146.753 180.965 340.794 399.851
8081.76 169.254 175.908 445.325 403.959
8084.48 211.717 166.19 425.757 444.206
8087.2 117.6 178.812 461.537 467.019
8089.92 207.119 170.57 513.762 224.494
8092.64 186.991 194.239 -301.817 41.2893
8095.37 188.608 199.695 -88.0765 -62.8636
8098.09 223.488 187.674 201.303 214.962
8100.81 150.926 169.736 531.66 386.339
8103.53 134.794 134.527 426.054 359.2
8106.25 117.86 150.685 119.884 123.651
8108.97 199.399 145.844 -174.984 159.707
8111.69 120.273 140.359 534.221 171.341
8114.41 101.405 102.62 154.786 190.642
8117.13 86.1825 104.812 -117.082 -59.977
8119.85 126.848 126.641 -217.635 47.6094
8122.57 166.893 165.106 477.545 229.506
8125.29 201.577 165.271 428.606 447.436
8128 127.342 148.371 436.157 527.315
8130.72 116.194 157.661 717.183 497.25
8133.44 229.448 186.158 338.411 482.878
8136.16 212.833 196.608 393.04 311.556
8138.87 147.542 178.461 203.218 296.815
8141.59 175.008 164.741 294.186 430.192
8144.31 171.673 189.934 793.172 543.557
8147.03 223.121 200.573 543.312 373.585
8149.74 206.926 210.862 -215.73 147.67
8152.46 202.54 168.759 115.428 97.9008
8155.17 96.8116 154.047 394.004 298.647
8157.89 162.788 134.347 386.508 457.506
8160.6 143.441 152.301 592.007 498.404
8163.32 150.673 156.98 516.697 473.017
8166.03 176.825 159.987 310.348 357.806
8168.75 152.464 170.371 246.373 144.314
8171.46 181.824 156.641 -123.778 -30.2939
8174.18 135.635 166.155 -213.477 -17.4663
8176.89 181.007 138.3 284.856 205.335
8179.6 98.2589 151.416 544.625 305.693
8182.32 174.982 120.149 87.5971 120.341
8185.03 87.2068 146.629 -271.2 16.3544
8187.74 177.698 149.987 232.666 15.1063
8190.46 185.056 159.354 83.8529 119.281
8193.17 115.308 143.93 41.3256 -38.6624
8195.88 131.425 127.099 -241.166 23.4508
8198.59 134.564 138.595 270.193 286.912
8201.3 149.797 139.022 831.708 422.4
8204.01 132.706 145.568 165.298 501.317
8206.72 154.202 156.174 506.945 398.107
8209.44 181.613 187.296 522.078 546.314
8212.15 226.073 190.519 609.919 480.274
8214.86 163.872 202.793 308.825 385.31
8217.57 218.435 170.128 237.187 166.271
8220.28 128.077 163.069 -47.1976 67.7612
8222.98 142.697 136.956 13.2943 73.3048
8225.69 140.093 121.458 253.818 110.905
8228.4 81.5856 110.226 65.6025 130.052
8231.11 109 124.944 70.7353 182.387
8233.82 184.246 147.149 410.824 278.33
8236.53 148.201 160.52 353.429 278.9
8239.23 149.115 147.1 72.4466 322.635
8241.94 143.984 149.255 542.03 252.611
8244.65 154.665 140.35 143.357 360.999
8247.36 122.401 152.815 397.61 376.099
8250.06 181.379 155.642 587.329 429.091
8252.77 163.146 169.167 302.333 311.5
8255.48 162.976 147.199 44.8368 203.24
8258.18 115.476 135.274 262.549 103.487
8260.89 127.369 141.912 3.07571 114.693
8263.59 182.89 154.218 78.4549 -12.3184
8266.3 152.394 139.18 -118.486 28.9208
8269 82.2555 116.12 126.793 140.431
8271.71 113.711 110.163 412.985 338.877
8274.41 134.521 139.835 476.852 322.176
8277.11 171.273 127.782 76.6928 394.492
8279.82 77.552 104.796 629.933 358.143
8282.52 65.5633 96.4511 367.802 538.318
8285.22 146.238 85.1463 617.219 352.477
8287.93 43.6376 103.034 72.4106 245.36
8290.63 119.226 92.5351 46.4508 208.562
8293.33 114.742 123.932 506.826 433.686
8296.03 137.827 141.416 747.782 468.579
8298.74 171.681 154.117 151.129 513.096
8301.44 152.843 147.69 640.378 393.56
8304.14 118.545 118.769 389.172 333.783
8306.84 84.9193 116.214 -28.2003 467.414
8309.54 145.178 135.508 1041.27 610.876
8312.24 176.425 162.091 819.559 727.254
8314.94 164.671 142.488 320.933 350.314
8317.64 86.3683 121.924 -89.5485 43.525
8320.34 114.732 97.7423 -100.81 -45.3032
8323.04 92.1262 115.145 54.4483 105.18
8325.74 138.576 126.42 361.902 370.264
8328.44 148.559 164.05 694.441 535.585
8331.14 205.015 159.268 550.412 499.536
8333.83 124.229 139.323 253.755 289.889
8336.53 88.7248 154.984 65.5003 266.66
8339.23 251.998 173.996 480.726 201.214
8341.93 181.264 201.936 57.4167 254.498
8344.62 172.545 150.838 225.352 323.738
8347.32 98.7067 128.476 688.444 234.636
8350.02 114.175 91.3743 -209.887 589.818
8352.71 61.2408 106.898 1290.9 404.659
8355.41 145.277 96.2491 132.969 526.56
8358.11 82.2293 120.575 155.814 119.235
8360.8 134.219 100.168 68.9234 160.023
8363.5 84.0567 119.698 255.333 136.974
8366.19 140.82 122.609 86.6673 143.387
8368.89 142.95 139.755 88.1597 17.5548
8371.58 135.494 127.285 -122.163 45.0656
8374.27 103.41 142.251 169.2 292.261
8376.97 187.847 151.397 829.747 392.91
8379.66 162.933 184.475 179.784 439.439
8382.35 202.644 160.55 308.787 177.082
8385.05 116.073 129.97 42.6744 199.655
8387.74 71.1938 91.1401 247.504 41.5195
8390.43 86.1539 95.2235 -165.619 -62.6842
8393.12 128.323 135.505 -269.937 38.8082
8395.82 192.038 166.61 551.981 -51.9084
8398.51 179.47 169.109 -437.769 -6.52914
8401.2 135.819 152.982 -133.799 -221.427
8403.89 143.656 140.424 -92.7119 -24.9829
8406.58 141.796 104.409 151.562 139.643
8409.27 27.774 96.0326 360.08 205.755
8411.96 118.528 88.4139 105.622 466.948
8414.65 118.94 109.231 935.142 527.861
8417.34 90.225 103.87 542.82 548.025
8420.03 102.446 83.0198 166.111 492.844
8422.72 56.3885 100.472 769.601 251.214
8425.41 142.583 83.9433 -182.07 297.1
8428.1 52.8589 123.069 303.771 141.436
8430.78 173.765 130.828 302.608 114.618
8433.47 165.861 96.2599 -262.525 176.948
8436.16 -50.8456 93.681 490.761 140.817
8438.85 166.028 63.7951 194.215 350.332
8441.53 76.2028 116.377 366.018 269.368
8444.22 106.9 80.7448 247.869 232.642
8446.91 59.1312 74.711 84.0388 68.4286
8449.59 58.1015 82.6057 -126.622 236.019
8452.28 130.584 92.033 750.639 490.233
8454.97 87.4132 101.008 846.683 573.96
8457.65 85.0261 89.0155 124.559 213.774
8460.34 94.6073 92.1923 -329.919 -126.843
8463.02 96.9435 66.5264 -175.17 -12.4188
8465.71 8.02849 61.5669 467.833 114.363
8468.39 79.7288 33.1729 50.4276 240.72
8471.07 11.7615 54.0719 203.899 243.313
8473.76 70.7254 44.9549 475.612 244.42
8476.44 52.3778 56.9187 53.7495 187.241
8479.12 47.653 46.7845 32.362 182.411
8481.81 40.3229 37.966 461.121 176.751
8484.49 25.9221 39.0636 36.7702 228.894
8487.17 50.9459 63.5025 188.79 197.402
8489.85 113.64 105.431 366.646 180.756
8492.53 151.709 103.197 -13.1671 153.055
8495.22 44.2429 82.3369 105.685 228.488
8497.9 51.0588 53.518 592.946 244.346
8500.58 65.2524 49.9815 34.4073 188.69
8503.26 33.6332 54.9579 -61.2824 -40.7716
8505.94 65.9881 55.5202 -95.4397 -123.976
8508.62 66.9392 50.0089 -215.207 -31.9551
8511.3 17.0996 39.0771 214.782 100.85
8513.98 33.1924 26.2247 302.975 130.72
8516.66 28.3821 40.7021 -125.596 2.73336
8519.34 60.5317 40.4112 -169.179 -175.771
8522.01 32.3197 60.8557 -232.54 -125.428
8524.69 89.7158 74.1018 25.4348 96.2753
8527.37 100.27 81.6868 495.931 327.599
8530.05 55.0748 57.1539 461.431 588.049
8532.72 16.1172 32.5687 806.785 531.523
8535.4 26.5142 37.2313 326.354 405.837
8538.08 69.0626 45.4841 84.3709 196.89
8540.75 40.8756 80.8434 179.946 186.195
8543.43 132.592 66.2256 294.268 174.305
8546.11 25.2093 98.2232 48.7016 155.111
8548.78 136.868 108.189 122.362 188.244
8551.46 162.488 147.535 393.669 227.618
8554.13 143.248 138.743 166.825 367.55
8556.81 110.493 119.834 542.156 237.843
8559.48 105.761 103.092 4.54761 265.899
8562.16 93.0204 96.9234 250.994 97.4427
8564.83 91.9886 83.1452 36.7863 197.372
8567.5 64.4267 102.541 304.334 206.328
8570.18 151.207 111.613 277.863 184.874
8572.85 119.204 118.729 -27.5755 197.513
8575.52 85.775 113.048 342.252 272.642
8578.19 134.164 119.017 503.248 391.917
8580.87 137.113 137.264 330.251 399.272
8583.54 140.517 144 364.317 259.751
8586.21 154.37 139.97 84.6849 221.235
8588.88 125.022 159.342 214.703 53.8965
8591.55 198.633 128.498 -137.698 124.085
8594.22 61.8373 153.04 295.25 203.631
8596.89 198.65 137.269 453.343 359.495
8599.56 151.321 154.106 329.891 306.62
8602.23 112.347 99.0711 136.627 280.441
8604.9 33.5446 80.9678 374.806 243.427
8607.57 97.0114 80.9476 218.85 318.168
8610.24 112.287 100.165 360.849 270.231
8612.91 91.1965 112.88 230.994 352.603
8615.58 135.158 99.9005 465.967 396.84
8618.24 73.3474 111.921 493.558 430.564
8620.91 127.259 108.555 332.169 340.21
8623.58 125.057 114.078 194.902 234.113
8626.25 89.9162 101.728 175.267 251.979
8628.91 90.2095 98.1349 385.767 157.062
8631.58 114.279 83.6134 -89.8482 108.102
8634.24 46.3516 87.9134 28.3861 -9.5976
8636.91 103.109 69.0048 32.6693 94.2296
8639.58 57.5532 69.5409 221.633 203.019
8642.24 47.9599 67.669 354.753 207.358
8644.91 97.494 94.4337 45.6867 15.1959
8647.57 137.847 111.648 -354.852 -86.2831
8650.23 99.603 99.463 50.3159 -104.325
8652.9 60.9389 72.7268 -8.43888 176.564
8655.56 57.6386 82.0174 487.814 287.021
8658.23 127.475 82.7126 381.687 479.295
8660.89 63.0243 90.8692 568.383 411.619
8663.55 82.1084 80.5605 284.788 284.972
8666.21 96.5487 92.3096 1.744 -66.597
8668.88 98.2716 91.4056 -486.323 -136.756
8671.54 79.3965 115.575 74.3122 -0.512898
8674.2 169.056 126.487 410.472 253.447
8676.86 131.01 138.117 275.556 322.173
8679.52 114.285 131.696 280.491 321.79
8682.18 149.794 119.387 409.323 285.948
8684.84 94.0818 136.748 168.03 230.975
8687.5 166.37 134.01 115.57 113.818
8690.16 141.58 144.984 57.8523 120.571
8692.82 127.004 151.341 188.29 134.722
8695.48 185.44 164.97 158.022 156.183
8698.14 182.466 184.059 122.236 44.851
8700.8 184.272 176.09 -145.705 -66.5268
8703.46 161.531 174.335 -176.111 36.3711
8706.11 177.203 167.552 430.93 93.3
8708.77 163.921 174.656 25.0815 265.597
8711.43 182.844 182.979 340.779 116.446
8714.09 202.172 187.747 -16.5223 185.698
8716.74 178.225 173.6 232.838 180.068
8719.4 140.404 161.702 323.888 243.232
8722.06 166.477 155.865 172.971 134.652
8724.71 160.713 170.233 -92.9032 44.6145
8727.37 183.508 177.761 53.7753 62.6889
8730.02 189.062 183.999 227.195 187.646
8732.68 179.427 180.124 281.968 146.047
8735.33 171.882 190.027 -71.0218 6.87459
8737.99 218.772 190.738 -190.322 46.9454
8740.64 181.56 194.844 402.18 64.0886
8743.29 184.202 202.79 -19.5921 98.6782
8745.95 242.609 197.299 -86.5536 26.8674
8748.6 165.087 188.869 186.748 80.8481
8751.25 158.913 176.063 142.35 156.552
8753.9 204.19 160.196 140.558 134.1
8756.56 117.484 179.816 119.392 64.8507
8759.21 217.775 170.123 -65.3977 95.9166
8761.86 175.112 186.194 233.755 102.436
8764.51 165.695 169.827 138.95 397.337
8767.16 168.674 165.754 819.306 448.519
8769.81 162.894 180.68 387.301 344.738
8772.46 210.47 187.059 -172.394 106.142
8775.11 187.813 220.593 103.52 325.075
8777.76 263.497 229.791 1044.1 677.732
8780.41 238.063 232.64 885.577 701.568
8783.06 196.359 189.83 175.028 363.295
8785.71 135.068 185.542 29.2807 30.6184
8788.36 225.199 169.033 -112.453 193.987
8791 146.831 191.764 665.134 387.923
8793.65 203.263 194.939 611.088 547.11
8796.3 234.723 202.893 365.109 441.381
8798.95 170.694 183.099 347.946 390.583
8801.59 143.88 171.977 458.695 288.66
8804.24 201.357 179.896 59.3384 186.765
8806.89 194.45 190.629 42.261 62.6066
8809.53 176.08 188.093 86.2204 64.4819
8812.18 193.75 188.853 64.9643 49.2484
8814.82 196.73 182.529 -3.43955 25.52
8817.47 157.107 149.622 15.0354 -58.8365
8820.11 95.0284 170.185 -188.105 -22.6172
8822.76 258.421 151.529 105.218 191.892
8825.4 101.137 151.676 658.564 549.85
8828.04 95.4691 132.919 885.768 726.405
8830.69 202.15 127.233 634.882 644.43
8833.33 84.0805 167.574 412.64 127.555
8835.97 216.491 150.885 -664.857 -270.776
8838.62 152.082 155.664 -560.11 -319.076
8841.26 98.4201 123.107 267.741 -63.0827
8843.9 118.818 123.747 103.122 191.175
8846.54 154.001 149.638 202.661 172.119
8849.18 176.094 166.997 210.574 118.363
8851.82 170.894 154.568 -58.1473 20.874
8854.46 116.717 140.854 -89.8051 -93.0868
8857.1 134.952 132.5 -131.308 -12.953
8859.74 145.831 150.797 182.254 68.8505
8862.38 171.609 153.864 155.606 170.139
8865.02 144.153 160.43 172.558 165.251
8867.66 165.529 145.859 167.589 213.136
8870.3 127.895 138.664 299.262 224.654
8872.94 122.567 132.312 207.112 290.344
8875.57 146.474 145.135 364.658 242.892
8878.21 166.364 150.574 156.906 428.626
8880.85 138.885 161.925 764.314 446.1
8883.49 180.527 138.183 417.079 535.643
8886.12 95.1374 141.869 425.536 361.316
8888.76 149.941 121.939 241.331 237.928
8891.39 120.737 108.064 46.9169 -39.4914
8894.03 53.5126 102.372 -406.723 -139.881
8896.67 132.866 110.735 -59.8387 48.4807
8899.3 145.827 137.874 612.003 184.761
8901.94 134.929 119.223 2.11956 405.899
8904.57 76.914 134.786 603.574 352.623
8907.2 192.515 130.173 452.174 454.576
8909.84 121.089 149.971 307.981 329.677
8912.47 136.308 130.381 228.876 295.827
8915.1 133.746 169.18 350.624 305.477
8917.74 237.486 172.516 336.933 371.341
8920.37 146.315 191.059 426.466 487.802
8923 189.377 152.137 700.008 514.706
8925.63 120.719 133.968 417.643 546.857
8928.26 91.8094 107.918 522.92 352.309
8930.89 111.225 123.338 116.365 310.144
8933.53 166.98 129.676 291.149 193.258
8936.16 110.823 140.715 172.262 58.4925
8938.79 144.34 133.213 -287.932 -29.3082
8941.42 144.475 138.538 27.7462 9.48967
8944.05 126.799 117.231 288.655 193.635
8946.67 80.4198 98.2276 264.502 203.923
8949.3 87.4639 98.7508 58.613 27.0747
8951.93 128.369 104.146 -241.891 196.48
8954.56 96.604 154.683 772.719 152.997
8957.19 239.078 167.816 -71.837 316.137
8959.82 167.767 170.113 247.529 29.1038
8962.44 103.496 104.054 -88.3804 -162.839
8965.07 40.9003 76.1882 -647.667 -326.954
8967.7 84.1686 66.2309 -244.816 -299.743
8970.32 73.6237 79.1336 -6.74471 -157.308
8972.95 79.6086 51.0774 -220.364 -75.7029
