wavelength spec_sum spec_optimal
3422.95 -11.2385 26.5238
3425.88 2.09914 811.497
3428.8 17.7582 721.244
3431.73 16.3342 32.0124
3434.66 -10.6206 -67.1952
3437.59 -3.83288 72.381
3440.52 36.1681 292.538
3443.45 33.3408 244.02
3446.38 35.3823 -348.078
3449.3 -23.9168 220.561
3452.23 -18.0324 203.22
3455.16 5.75995 -124.535
3458.09 -26.7956 -406.794
3461.02 -11.3423 239.679
3463.95 17.5417 -45.5884
3466.88 -6.3261 -184.971
3469.8 -24.7655 -71.4148
3472.73 28.356 78.2975
3475.66 -53.8948 -52.3978
3478.59 -58.1269 -162.224
3481.52 -12.0318 270.821
3484.44 9.95767 -117.315
3487.37 10.3778 17.6857
3490.3 -33.9472 209.268
3493.23 -42.911 378.951
3496.16 -66.1569 246.765
3499.08 1.02465 -97.3763
3502.01 -9.38874 -48.7856
3504.94 0.0990009 141.608
3507.87 -11.0644 50.4119
3510.8 5.01851 -140.247
3513.72 15.1548 26.6581
3516.65 32.2089 -358.054
3519.58 31.527 -169.926
3522.51 27.8539 7.47608
3525.43 15.0453 11.8664
3528.36 31.1939 -107.053
3531.29 31.6601 407.767
3534.22 54.1765 156.156
3537.14 74.0571 837.946
3540.07 46.376 283.158
3543 26.8647 -33.3625
3545.92 34.0704 464.752
3548.85 17.158 150.115
3551.78 34.9458 -391.744
3554.71 -5.7749 -406.978
3557.63 34.2517 106.024
3560.56 44.4715 188.387
3563.49 -46.7235 -212.79
3566.41 -16.7585 5.72733
3569.34 43.1559 -67.3645
3572.27 7.57281 107.627
3575.19 13.7088 -106.27
3578.12 -28.7102 -367.229
3581.05 -14.0853 345.084
3583.97 13.7198 91.5601
3586.9 14.7779 62.7601
3589.83 18.2202 329.019
3592.75 -39.3691 174.991
3595.68 35.0761 84.3521
3598.61 42.0105 -148.451
3601.53 12.0192 -28.5858
3604.46 -14.408 237.671
3607.38 -24.7483 163.792
3610.31 44.5022 152.49
3613.24 23.9557 44.026
3616.16 28.2779 159.257
3619.09 17.7472 171.464
3622.01 49.5253 370.633
3624.94 -5.61709 -35.8295
3627.87 33.3625 31.6492
3630.79 31.7675 270.133
3633.72 78.2116 134.743
3636.64 27.6632 657.831
3639.57 100.865 522.006
3642.49 43.1334 268.348
3645.42 33.2964 147.292
3648.35 47.7364 371.98
3651.27 67.3461 349.493
3654.2 35.718 229.704
3657.12 49.8371 140.297
3660.05 1.80836 69.5068
3662.97 -22.2198 -233.757
3665.9 50.5957 -198.141
3668.82 -32.7719 -118.036
3671.75 -30.4126 -191.639
3674.67 0.713848 -156.593
3677.6 -1.1791 -665.041
3680.52 -19.4635 -291.104
3683.45 -10.5994 -244.387
3686.37 -35.3616 -148.823
3689.3 -16.3795 29.4857
3692.22 32.1083 310.027
3695.15 1.58533 -30.4512
3698.07 -2.11024 38.2686
3701 -2.08769 87.0471
3703.92 34.4625 190.471
3706.85 -0.456621 151.727
3709.77 11.7431 -64.3756
3712.7 -16.0193 30.8298
3715.62 -23.8391 -25.3823
3718.55 12.2183 127.826
3721.47 2.14198 377.49
3724.39 16.7064 62.2953
3727.32 26.4493 18.964
3730.24 -18.9975 308.157
3733.17 9.55902 -75.2171
3736.09 22.5369 -44.5692
3739.02 37.3024 135.283
3741.94 36.5997 -17.9924
3744.86 28.2223 -116.983
3747.79 29.0424 23.1314
3750.71 0.323783 43.9899
3753.64 30.0681 277.46
3756.56 -1.54341 -166.589
3759.48 6.00037 177.306
3762.41 5.12041 -68.3943
3765.33 -53.6015 -15.1836
3768.25 2.42916 33.6751
3771.18 53.6042 148.156
3774.1 -25.614 119.607
3777.02 24.7255 -1.73712
3779.95 0.0568638 -279.852
3782.87 -36.6148 -225.948
3785.79 10.3339 239.326
3788.72 -3.37475 -140.898
3791.64 30.3711 8.77624
3794.56 -13.154 -174.862
3797.49 5.56557 -61.6807
3800.41 8.04959 163.163
3803.33 16.4068 0.971681
3806.26 6.64597 276.186
3809.18 44.4212 106.346
3812.1 17.744 148.533
3815.03 12.4581 156.262
3817.95 27.9049 -66.1
3820.87 32.2887 215.819
3823.79 8.98772 -81.7903
3826.72 25.2952 106.242
3829.64 34.7512 152.308
3832.56 18.0211 159.225
3835.48 7.55899 50.2826
3838.41 5.33012 15.2366
3841.33 16.4105 -40.3481
3844.25 5.84417 297.261
3847.17 10.7288 -27.7636
3850.1 0.415387 -231.6
3853.02 -17.0506 -5.3774
3855.94 32.7281 39.6836
3858.86 13.1696 292.895
3861.78 -4.3089 8.37146
3864.71 26.9374 137.759
3867.63 8.00988 -142.662
3870.55 -3.09699 88.9676
3873.47 17.3087 272.733
3876.39 14.7852 -90.2611
3879.31 -21.4575 -100.986
3882.24 -29.7802 -116.209
3885.16 3.624 88.0902
3888.08 -22.5992 -127.234
3891 -28.5773 166.715
3893.92 16.9601 -70.9735
3896.84 -4.30849 11.5705
3899.77 -7.47177 313.987
3902.69 -3.96809 -369.712
3905.61 0.917004 56.2394
3908.53 15.7811 -60.6911
3911.45 7.89619 -24.6947
3914.37 -13.1942 -237.846
3917.29 -15.5784 247.156
3920.21 -9.10409 -178.198
3923.13 2.58532 254.925
3926.06 6.58992 44.7853
3928.98 28.9852 243.068
3931.9 18.9808 -265.077
3934.82 -8.24854 -30.5073
3937.74 4.52613 187.25
3940.66 -3.68689 54.8897
3943.58 1.58057 34.5004
3946.5 35.9461 29.9715
3949.42 -7.13497 192.845
3952.34 -7.21653 -95.0108
3955.26 1.23068 104.822
3958.18 -4.94341 -128.888
3961.1 8.3815 164.69
3964.02 17.7896 -82.9941
3966.94 15.9178 -88.7958
3969.86 8.62832 42.5108
3972.78 15.6303 -14.0272
3975.7 19.8143 -70.9314
3978.62 -6.25104 75.4965
3981.54 23.1153 148.906
3984.46 14.3467 -192.977
3987.38 19.6889 -147.911
3990.3 37.1327 122.744
3993.22 38.4377 27.2356
3996.14 24.0662 110.273
3999.06 8.66751 -245.006
4001.98 24.0485 -346.013
4004.9 35.8029 192.925
4007.82 44.4829 -201.186
4010.74 -4.35066 33.5254
4013.66 49.6354 15.9906
4016.58 12.0002 -398.308
4019.5 16.5827 -44.0963
4022.42 11.6729 130.731
4025.33 40.9522 65.378
4028.25 27.1481 -241.614
4031.17 29.755 7.17576
4034.09 22.2039 -187.054
4037.01 23.2963 93.3191
4039.93 24.4224 134.402
4042.85 30.3119 -171.712
4045.77 17.7001 283.085
4048.69 24.4766 -168.259
4051.6 40.7286 -99.7245
4054.52 25.8357 60.3264
4057.44 29.6815 -138.471
4060.36 7.8385 28.5068
4063.28 17.5112 99.4098
4066.2 20.9265 -200.084
4069.11 18.8159 51.7363
4072.03 26.9148 6.40778
4074.95 -0.392405 -77.2726
4077.87 35.3478 164.88
4080.79 16.4688 -59.0802
4083.7 34.1876 -109.96
4086.62 -8.47552 -128.914
4089.54 12.0973 260.582
4092.46 -2.91672 -273.818
4095.38 18.5149 -37.4349
4098.29 25.253 237.803
4101.21 29.071 -343.291
4104.13 4.53983 -42.4486
4107.05 10.9853 265.514
4109.96 5.76615 11.9008
4112.88 19.5574 -17.4466
4115.8 57.0833 127.705
4118.72 31.9383 -175.041
4121.63 23.9762 1.69361
4124.55 18.1735 34.5422
4127.47 24.8676 66.1032
4130.38 54.1925 38.7307
4133.3 23.5904 125.423
4136.22 41.1858 222.644
4139.14 59.7065 2.52348
4142.05 33.5699 112.894
4144.97 20.1661 -237.806
4147.89 49.6109 165.447
4150.8 41.3302 -41.3403
4153.72 21.044 -231.603
4156.64 35.1818 71.445
4159.55 39.9003 -109.574
4162.47 31.7821 -238.738
4165.39 41.3179 465.689
4168.3 31.3219 -75.9016
4171.22 38.5594 -37.8965
4174.13 31.6451 -143.864
4177.05 33.1313 -160.766
4179.97 9.51316 285.11
4182.88 34.5176 46.2137
4185.8 37.2256 131.016
4188.71 18.019 -109.11
4191.63 26.6499 -20.6389
4194.55 44.0623 -18.6455
4197.46 35.1571 -187.81
4200.38 41.6785 -55.4109
4203.29 25.9582 107.131
4206.21 48.0263 -17.1599
4209.12 36.2917 -93.7093
4212.04 43.8386 251.965
4214.96 22.5718 -72.4662
4217.87 29.4374 -317.948
4220.79 7.08489 84.4084
4223.7 20.5148 326.86
4226.62 36.046 -427.796
4229.53 26.3092 -138.144
4232.45 33.9002 44.027
4235.36 -1.17313 -16.9563
4238.28 24.987 -123.103
4241.19 14.3948 -111.914
4244.11 31.4235 28.382
4247.02 21.8965 288.196
4249.94 30.6103 -61.5444
4252.85 42.3987 68.9792
4255.76 46.0852 -10.5274
4258.68 14.4867 -62.9077
4261.59 16.9944 1.36436
4264.51 -0.699474 -103.258
4267.42 57.7479 -35.3369
4270.34 28.4692 -1.74999
4273.25 55.1096 78.3167
4276.16 22.0285 -252.352
4279.08 28.0466 53.145
4281.99 20.0097 -72.7568
4284.91 27.3184 75.9247
4287.82 27.8352 130.502
4290.73 31.2478 -234.948
4293.65 33.6762 204.688
4296.56 17.6452 -143.729
4299.48 1.5015 -112.02
4302.39 9.93228 -38.416
4305.3 8.18909 -64.5656
4308.22 25.8239 187.18
4311.13 11.3466 -95.8158
4314.04 -2.73597 54.3607
4316.96 9.65001 -337.914
4319.87 11.3522 272.467
4322.78 3.8723 -114.122
4325.7 -6.03907 -60.119
4328.61 9.63452 68.4693
4331.52 13.6287 -82.7017
4334.43 3.44888 -90.3565
4337.35 -1.7424 -108.965
4340.26 0.207407 129.459
4343.17 17.9194 -148.801
4346.09 7.79305 -77.2003
4349 6.66746 13.9808
4351.91 8.91187 -346.994
4354.82 22.0235 -25.8657
4357.74 25.3392 -5.96369
4360.65 18.1569 -14.4942
4363.56 5.49753 64.8433
4366.47 28.3242 -3.04279
4369.38 27.1526 56.3519
4372.3 38.1683 -122.627
4375.21 28.8036 37.825
4378.12 20.6029 -23.7216
4381.03 22.6979 -38.7695
4383.94 23.149 -61.1958
4386.86 21.7879 -56.1043
4389.77 43.7436 159.176
4392.68 30.472 -202.102
4395.59 46.8353 203.816
4398.5 26.8303 -283.965
4401.41 33.2482 80.8005
4404.33 13.7712 -7.63211
4407.24 23.4203 190.999
4410.15 17.7628 -219.302
4413.06 31.7943 -122.921
4415.97 24.6862 167.512
4418.88 36.364 98.2565
4421.79 17.0981 67.1803
4424.7 46.5077 3.01113
4427.61 27.4103 -139.62
4430.52 17.9635 -17.7778
4433.44 13.96 -19.2705
4436.35 21.79 157.141
4439.26 33.1027 -79.0276
4442.17 10.4274 286.839
4445.08 28.7762 2.11929
4447.99 21.5858 -31.0839
4450.9 18.064 -157.092
4453.81 42.2626 -39.2742
4456.72 22.1344 291.424
4459.63 41.3194 -36.3763
4462.54 26.693 -120.239
4465.45 31.7662 374.136
4468.36 12.6565 -296.959
4471.27 17.3512 40.5618
4474.18 14.8612 19.5794
4477.09 29.0863 82.5568
4480 39.6059 29.5377
4482.91 14.531 5.82487
4485.82 32.9174 214.336
4488.73 24.2073 -338.663
4491.64 26.5377 11.6701
4494.55 35.2462 246.436
4497.46 19.9177 -385.01
4500.36 22.6839 451.295
4503.27 19.7011 -131.205
4506.18 37.9184 -91.2234
4509.09 35.7306 -316.237
4512 31.9947 314.568
4514.91 14.534 -30.7932
4517.82 36.3224 32.3934
4520.73 35.1152 -34.595
4523.64 6.39352 -101.915
4526.54 18.347 25.2049
4529.45 25.5259 230.309
4532.36 47.1174 -295.471
4535.27 23.6327 175.503
4538.18 25.2282 -74.4144
4541.09 25.097 112.447
4543.99 41.6834 -139.074
4546.9 28.6005 185.762
4549.81 16.0554 17.1831
4552.72 2.02865 -132.571
4555.63 18.7684 266.191
4558.53 11.3525 -226.488
4561.44 37.9694 66.0713
4564.35 18.3931 -13.7267
4567.26 15.7066 9.71856
4570.17 14.7301 -42.3114
4573.07 30.715 116.731
4575.98 36.3052 -40.9742
4578.89 20.3036 -15.1117
4581.79 23.5033 58.6724
4584.7 34.2005 -9.33788
4587.61 23.7475 -24.3136
4590.52 20.1046 194.43
4593.42 36.228 183.045
4596.33 13.2907 -206.509
4599.24 37.5771 4.54803
4602.14 43.6124 59.3015
4605.05 23.1747 -102.3
4607.96 45.117 449.264
4610.86 29.736 -110.3
4613.77 30.1425 -238.822
4616.68 39.0052 -21.5798
4619.58 42.3314 220.055
4622.49 43.2227 -116.293
4625.4 23.6632 249.592
4628.3 31.2111 147.085
4631.21 36.3019 -127.461
4634.11 44.6029 -34.2845
4637.02 28.2383 152.694
4639.93 38.2928 203.88
4642.83 51.8259 -119.057
4645.74 40.688 36.1877
4648.64 50.8411 123.912
4651.55 36.075 189.662
4654.45 32.1001 19.7421
4657.36 31.5509 -24.1047
4660.27 44.7592 224.743
4663.17 20.0258 -139.118
4666.08 25.0162 -143.919
4668.98 43.1833 253.117
4671.89 41.1707 -116.073
4674.79 25.7115 368.617
4677.7 48.6573 5.18297
4680.6 22.4484 -83.2009
4683.51 23.7349 125.901
4686.41 33.3683 81.9565
4689.32 32.469 58.7548
4692.22 39.0339 124.446
4695.12 30.5623 109.763
4698.03 50.6678 -154.691
4700.93 39.7238 93.6641
4703.84 41.1306 34.9229
4706.74 31.5052 -175.311
4709.65 39.5727 3.50677
4712.55 33.0084 59.585
4715.45 27.6422 204.891
4718.36 30.3411 -86.2389
4721.26 26.7296 -130.106
4724.17 55.5338 70.4764
4727.07 32.8555 -230.611
4729.97 41.3341 48.7083
4732.88 40.839 282.636
4735.78 60.2432 141.034
4738.68 43.9078 207.041
4741.59 35.7357 -155.825
4744.49 26.5905 198.546
4747.39 30.1463 -131.033
4750.3 36.1639 249.835
4753.2 36.9453 51.087
4756.1 39.2952 249.017
4759 40.4855 59.6657
4761.91 34.1694 -7.9085
4764.81 31.4266 113.767
4767.71 16.1075 -217.488
4770.62 36.54 128.296
4773.52 16.9538 -0.051569
4776.42 28.8168 247.113
4779.32 32.1702 -252.321
4782.23 15.8155 111.577
4785.13 31.5636 119.944
4788.03 17.135 20.0417
4790.93 26.3213 -128.44
4793.83 30.7784 -10.0125
4796.74 15.6497 10.3076
4799.64 13.7005 335.304
4802.54 24.0336 -187.763
4805.44 14.932 169.403
4808.34 9.88154 295.062
4811.24 14.0209 -236.655
4814.15 13.315 -33.5591
4817.05 21.8408 200.613
4819.95 19.824 -179.929
4822.85 -3.25094 74.0851
4825.75 3.47924 -107.019
4828.65 17.4389 -107.063
4831.55 9.16452 96.5969
4834.45 5.81308 205.766
4837.35 9.47243 -170.003
4840.25 -8.44251 377.117
4843.16 24.481 72.4681
4846.06 -4.89259 -32.3958
4848.96 6.15172 8.73065
4851.86 10.7769 242.464
4854.76 9.85016 -289.822
4857.66 27.7651 272.528
4860.56 17.5784 40.9772
4863.46 15.4762 -301.483
4866.36 26.2413 231.879
4869.26 38.8028 -22.6467
4872.16 22.7087 29.2748
4875.06 41.917 331.78
4877.96 32.3573 -191.151
4880.86 40.5495 82.2761
4883.76 46.3123 197.334
4886.66 37.754 27.6593
4889.56 41.7788 126.064
4892.45 53.819 47.8804
4895.35 51.9557 59.9521
4898.25 33.7795 -112.957
4901.15 49.1946 251.082
4904.05 44.6258 -130.336
4906.95 45.5123 142.592
4909.85 46.2903 132.796
4912.75 48.5769 13.5
4915.65 44.7617 9.74811
4918.55 62.8219 337.048
4921.44 54.5768 -292.114
4924.34 53.6282 255.77
4927.24 60.2343 268.451
4930.14 61.5625 -3.34449
4933.04 45.1398 241.892
4935.94 51.117 36.5967
4938.83 46.6756 15.1132
4941.73 63.5707 439.086
4944.63 60.5286 -261.425
4947.53 53.3725 13.7108
4950.42 52.8054 386.152
4953.32 45.3449 -22.3831
4956.22 62.6262 114.274
4959.12 38.0987 -110.988
4962.01 41.6907 65.7617
4964.91 54.4743 86.5963
4967.81 42.4716 -97.103
4970.71 39.6748 131.354
4973.6 51.0756 126.335
4976.5 55.9654 23.1566
4979.4 33.5856 -96.8448
4982.29 41.1149 62.9602
4985.19 41.5064 218.868
4988.09 43.4186 211.525
4990.98 46.1232 150.614
4993.88 52.5676 -35.828
4996.78 47.9831 248.76
4999.67 58.4324 -42.1928
5002.57 34.8536 -127.623
5005.47 49.7418 490.164
5008.36 61.0077 164.577
5011.26 29.8491 -178.444
5014.15 34.6941 151.311
5017.05 42.3294 -3.19184
5019.94 27.3256 -186.836
5022.84 26.3356 55.8444
5025.74 25.0675 281.576
5028.63 32.8598 41.1451
5031.53 37.0213 225.766
5034.42 47.9809 34.5592
5037.32 37.9169 -128.43
5040.21 28.8794 -1.69512
5043.11 33.1012 123.115
5046 48.8309 317.489
5048.9 36.0951 -52.6093
5051.79 30.9783 -76.1085
5054.69 45.059 81.1021
5057.58 38.3911 207.278
5060.48 43.5892 90.3572
5063.37 36.4067 130.965
5066.26 37.4723 -12.9702
5069.16 27.0625 21.0626
5072.05 42.3516 401.344
5074.95 36.0065 -359.716
5077.84 56.0609 582.071
5080.74 26.4534 -428.138
5083.63 39.3283 155.558
5086.52 42.6269 231.442
5089.42 40.1995 17.5407
5092.31 49.1458 206.155
5095.2 33.4683 143.072
5098.1 39.0641 -94.2401
5100.99 42.85 59.7256
5103.88 33.187 239.796
5106.78 41.0696 -159.915
5109.67 45.7762 74.8838
5112.56 37.3898 265.293
5115.46 39.2815 137.674
5118.35 33.5442 223.952
5121.24 44.2303 -100.373
5124.13 37.9755 44.8109
5127.03 38.663 381.547
5129.92 47.3285 -20.3556
5132.81 32.1851 -280.962
5135.7 46.0323 230.281
5138.6 37.6648 -42.0221
5141.49 44.164 -122.803
5144.38 40.0563 396.954
5147.27 36.526 230.608
5150.16 35.2609 -165.482
5153.06 47.3409 -113.898
5155.95 28.1001 319.708
5158.84 34.7092 180.167
5161.73 29.9959 -83.9424
5164.62 27.2829 -1.57326
5167.51 26.9423 275.087
5170.4 27.8889 -125.968
5173.3 25.2503 -132.401
5176.19 23.3588 407.399
5179.08 26.2738 215.797
5181.97 17.7738 -460.431
5184.86 31.5799 348.875
5187.75 42.2428 48.008
5190.64 29.1053 38.6231
5193.53 37.6938 -89.1082
5196.42 33.2837 -18.5342
5199.31 33.5186 509.981
5202.2 21.9641 -331.911
5205.09 32.5325 274.064
5207.98 37.1236 140.62
5210.87 35.3677 -79.0052
5213.76 38.7169 -160.013
5216.65 30.8412 304.701
5219.54 37.1401 438.133
5222.43 39.2306 -397.452
5225.32 38.2044 129.995
5228.21 31.5444 520.389
5231.1 39.3676 -129.398
5233.99 29.1209 -261.401
5236.88 36.4279 307.427
5239.77 32.6968 345.214
5242.65 34.6812 -71.5786
5245.54 35.6341 70.3767
5248.43 37.5102 103.269
5251.32 40.7405 -228.391
5254.21 50.1132 418.539
5257.1 51.277 75.6584
5259.99 41.7037 132.068
5262.87 53.327 84.0166
5265.76 37.2035 -197.263
5268.65 46.1724 51.3822
5271.54 43.8456 511.002
5274.43 42.6125 -128.946
5277.31 38.4441 77.8708
5280.2 44.2197 32.8568
5283.09 46.8761 -256.793
5285.98 42.6361 156.503
5288.87 37.9285 96.0665
5291.75 40.7519 503.26
5294.64 48.6657 -80.0098
5297.53 48.2378 50.4032
5300.41 42.9734 -123.775
5303.3 30.3902 339.682
5306.19 37.7844 -53.1275
5309.07 39.4908 0.236438
5311.96 36.0469 99.3286
5314.85 30.7419 18.1419
5317.73 32.7632 143.008
5320.62 35.0191 126.128
5323.51 41.6166 161.777
5326.39 42.1905 -193.362
5329.28 38.3722 431.389
5332.17 39.0392 48.2937
5335.05 35.6219 -264.401
5337.94 47.4389 213.732
5340.82 35.9849 232.215
5343.71 34.8627 -151.184
5346.59 24.128 154.463
5349.48 44.7439 43.3804
5352.36 32.3326 182.426
5355.25 24.1461 88.8607
5358.14 40.8603 218.897
5361.02 36.7848 -65.509
5363.91 33.1757 -79.1111
5366.79 30.8839 437.824
5369.67 40.3715 -121.978
5372.56 37.9332 91.3291
5375.44 29.2397 -3.61934
5378.33 39.8478 265.791
5381.21 37.023 18.8083
5384.1 35.858 -10.9998
5386.98 38.9002 66.0702
5389.87 32.2271 382.812
5392.75 34.5223 26.1775
5395.63 34.6293 -256.225
5398.52 32.8204 196.296
5401.4 43.2161 265.526
5404.28 30.7058 -144.807
5407.17 47.5521 8.35644
5410.05 45.0531 300.084
5412.93 38.0052 -197.218
5415.82 31.7928 240.318
5418.7 28.9471 12.1188
5421.58 49.5379 201.037
5424.47 34.1308 120.236
5427.35 31.4787 5.54235
5430.23 26.5823 85.63
5433.11 31.3084 13.7856
5436 25.1636 261.334
5438.88 37.2923 214.229
5441.76 30.6669 -17.845
5444.64 34.3191 117.274
5447.53 37.2836 24.4997
5450.41 33.0111 -73.2409
5453.29 39.4803 294.894
5456.17 38.8212 282.833
5459.05 32.5394 -222.055
5461.94 33.4764 9.59733
5464.82 35.4883 194.427
5467.7 37.4439 328.056
5470.58 38.5963 -344.134
5473.46 26.9339 181.211
5476.34 31.8751 283.977
5479.22 35.7472 -68.622
5482.1 34.4269 55.704
5484.98 50.7181 124.132
5487.86 19.1881 147.717
5490.75 25.0972 -143.299
5493.63 26.2458 -70.8477
5496.51 33.0426 238.303
5499.39 38.9567 238.104
5502.27 33.7728 137.271
5505.15 37.2463 -96.6984
5508.03 31.9006 90.13
5510.91 31.1626 372.233
5513.79 29.6943 -249.833
5516.67 46.3416 -34.4683
5519.55 35.2097 347.638
5522.42 35.0742 303.904
5525.3 33.7728 -185.474
5528.18 39.1574 -62.506
5531.06 31.0036 337.456
5533.94 28.2678 -28.6811
5536.82 32.5881 -24.0721
5539.7 40.9743 -119.083
5542.58 39.3454 238.231
5545.46 29.8131 84.4388
5548.34 35.3514 122.186
5551.21 44.8317 117.341
5554.09 26.2494 -45.0393
5556.97 32.9728 69.0198
5559.85 33.4146 -140.86
5562.73 34.2664 510.672
5565.6 29.209 26.4391
5568.48 32.9343 -121.151
5571.36 28.1186 316.812
5574.24 41.7794 -145.838
5577.11 30.2888 111.612
5579.99 39.3295 312.06
5582.87 41.8133 182.588
5585.75 35.1709 115.453
5588.62 18.6285 -94.804
5591.5 42.9611 123.773
5594.38 18.5959 58.4356
5597.25 29.5556 73.1719
5600.13 23.6239 17.672
5603.01 28.1096 274.534
5605.88 26.9114 81.8038
5608.76 37.209 123.507
5611.64 34.7182 -64.0654
5614.51 35.3832 86.2163
5617.39 26.5123 -0.0764764
5620.26 38.6562 193.516
5623.14 33.001 86.8424
5626.01 28.0027 61.3003
5628.89 27.2617 -127.948
5631.77 35.6274 46.1881
5634.64 34.2033 124.532
5637.52 24.912 324.273
5640.39 32.9165 23.3563
5643.27 28.3456 56.3312
5646.14 25.1947 171.401
5649.02 36.1004 -45.7635
5651.89 34.5459 -123.03
5654.76 35.8685 258.093
5657.64 32.7963 103.712
5660.51 24.9333 265.596
5663.39 35.1789 56.026
5666.26 41.0147 -142.432
5669.14 31.9436 204.354
5672.01 26.5141 219.31
5674.88 31.8066 -97.2877
5677.76 44.3385 46.9626
5680.63 33.7514 142.106
5683.5 27.1914 169.7
5686.38 37.0705 -47.7318
5689.25 29.2731 127.87
5692.12 31.1119 127.142
5695 25.1937 -8.76178
5697.87 28.5959 229.917
5700.74 35.3592 -109.793
5703.62 31.0863 40.058
5706.49 32.0458 67.844
5709.36 32.4883 182.877
5712.23 33.8427 -146.08
5715.1 27.334 140.852
5717.98 36.9441 137.222
5720.85 32.5021 -84.7301
5723.72 33.0388 73.2354
5726.59 32.4847 307.706
5729.46 37.4756 85.0834
5732.34 28.1976 -68.9527
5735.21 29.0693 44.3839
5738.08 25.3957 162.271
5740.95 35.3369 -26.7582
5743.82 32.4537 175.09
5746.69 38.0534 -260.229
5749.56 28.4547 157.617
5752.43 33.3839 91.7254
5755.3 35.3455 114.965
5758.17 32.5531 271.742
5761.05 31.7128 107.516
5763.92 34.6952 -46.6177
5766.79 31.0022 297.332
5769.66 29.0703 195.892
5772.53 35.4063 -53.5965
5775.4 33.8421 -58.9576
5778.27 26.5131 178.287
5781.13 32.4994 17.0397
5784 35.5971 -21.2581
5786.87 33.8327 146.676
5789.74 35.0651 239.178
5792.61 26.2282 -116.045
5795.48 28.7018 24.9122
5798.35 37.7821 -74.9933
5801.22 29.8278 102.367
5804.09 41.6262 228.895
5806.96 30.4944 176.12
5809.82 33.561 -146.757
5812.69 34.4109 171.372
5815.56 28.3438 48.4174
5818.43 31.2728 -7.54873
5821.3 24.3305 -60.0591
5824.17 39.2971 -23.3678
5827.03 30.65 232.121
5829.9 30.046 93.7808
5832.77 32.9383 40.8724
5835.64 27.2186 326.57
5838.5 37.0197 64.7121
5841.37 33.0863 -260.335
5844.24 29.1284 144.17
5847.1 26.6671 228.008
5849.97 32.2863 14.0374
5852.84 30.3313 -24.1769
5855.7 27.8004 145.683
5858.57 32.2495 29.0287
5861.44 28.4728 19.2487
5864.3 32.7994 215.913
5867.17 23.2511 29.4361
5870.04 24.7618 -43.8609
5872.9 34.5733 35.3086
5875.77 37.3313 230.274
5878.63 29.146 -11.1425
5881.5 28.2104 60.0453
5884.36 23.066 48.4612
5887.23 28.5926 133.82
5890.09 30.7285 100.139
5892.96 23.6862 59.0612
5895.82 26.1455 117.337
5898.69 17.213 11.0938
5901.55 33.0169 87.6169
5904.42 22.3742 45.9637
5907.28 29.1599 206.02
5910.15 34.3824 37.1082
5913.01 43.14 89.7406
5915.87 29.9446 -89.274
5918.74 41.5576 124.706
5921.6 32.106 45.3906
5924.47 21.7003 211.89
5927.33 33.0212 80.1622
5930.19 22.4374 -267.366
5933.06 38.4558 43.7676
5935.92 40.1554 351.92
5938.78 30.2794 168.144
5941.65 38.0141 137.854
5944.51 38.3204 133.291
5947.37 41.0719 -119.052
5950.23 30.9609 48.2647
5953.1 27.4686 140.825
5955.96 24.0861 45.2529
5958.82 37.9715 135.4
5961.68 32.5446 -52.375
5964.55 33.6899 93.3513
5967.41 31.4292 227.347
5970.27 38.1307 38.8898
5973.13 32.2875 -176.573
5975.99 29.8429 65.2586
5978.85 37.0765 110.782
5981.71 39.1396 70.3147
5984.58 30.5965 167.953
5987.44 39.8163 -81.8795
5990.3 40.2393 84.2824
5993.16 30.8052 138.039
5996.02 29.5375 57.7556
5998.88 33.7379 -11.8139
6001.74 27.9579 88.5329
6004.6 32.7409 89.8147
6007.46 23.6639 31.2341
6010.32 29.8413 145.056
6013.18 40.9126 12.7968
6016.04 38.779 34.5766
6018.9 30.4162 117.924
6021.76 33.5131 26.8941
6024.62 34.8105 29.3226
6027.48 38.7002 124.266
6030.34 29.7435 -29.6118
6033.2 28.7136 132.56
6036.05 32.4398 184.785
6038.91 37.3039 -134.507
6041.77 24.4264 127.294
6044.63 35.1344 142.8
6047.49 28.7902 19.0905
6050.35 28.8499 -22.1791
6053.2 28.2801 213.194
6056.06 38.5868 151.552
6058.92 35.1317 46.162
6061.78 23.6121 -31.0383
6064.64 35.9819 198.018
6067.49 31.2536 66.5382
6070.35 35.9581 139.695
6073.21 45.5159 72.3728
6076.07 29.6863 -28.7316
6078.92 31.4217 111.483
6081.78 34.9946 214.587
6084.64 34.2441 -25.7296
6087.49 27.2216 122.972
6090.35 30.6447 118.016
6093.2 27.2256 -28.8066
6096.06 30.6723 -42.839
6098.92 43.2136 169.527
6101.77 32.113 188.277
6104.63 27.0091 50.3512
6107.48 34.1582 131.939
6110.34 31.7215 125.338
6113.2 33.388 -6.79141
6116.05 32.8809 -140.379
6118.91 31.2241 130.784
6121.76 30.2573 85.7822
6124.62 36.3661 145.491
6127.47 25.3148 -59.8266
6130.32 29.9144 25.7016
6133.18 37.3053 185.615
6136.03 35.9847 62.6205
6138.89 30.7423 -110.147
6141.74 33.3558 -18.6691
6144.6 23.6096 147.915
6147.45 44.1808 46.8184
6150.3 33.3625 79.9521
6153.16 36.0904 51.2516
6156.01 33.9575 190.029
6158.86 29.4443 -208.145
6161.72 36.3064 17.2465
6164.57 40.1393 317.057
6167.42 34.2244 39.7652
6170.28 35.4569 17.3412
6173.13 31.2469 -13.4413
6175.98 30.9352 -15.0407
6178.83 31.1102 130.061
6181.69 26.3052 -19.8501
6184.54 33.4539 156.404
6187.39 21.1272 -102.209
6190.24 37.8314 158.371
6193.09 34.3288 70.127
6195.94 35.8118 75.8921
6198.8 36.9598 121.438
6201.65 37.417 79.7941
6204.5 37.257 40.2029
6207.35 24.3364 146.054
6210.2 30.9418 81.5842
6213.05 36.6325 -36.2394
6215.9 32.3966 128.272
6218.75 27.8811 159.028
6221.6 33.525 181.781
6224.45 34.4893 -13.0951
6227.3 34.7605 18.3536
6230.15 29.9223 -15.9043
6233 33.0516 153.068
6235.85 22.2761 35.3842
6238.7 27.1225 7.0917
6241.55 41.4799 137.636
6244.4 33.4007 24.8241
6247.25 31.723 -49.9235
6250.1 38.212 283.547
6252.95 34.6866 76.0789
6255.8 28.8561 98.754
6258.64 35.1391 -7.24408
6261.49 27.8421 -45.8975
6264.34 40.3089 153.716
6267.19 39.1207 180.601
6270.04 30.599 41.8434
6272.88 27.8558 -79.2052
6275.73 29.8569 -26.7706
6278.58 34.9829 68.7116
6281.43 31.8723 45.3755
6284.27 21.2278 247.063
6287.12 36.3822 -64.2577
6289.97 30.0021 -34.8576
6292.82 33.3772 202.592
6295.66 41.419 40.5138
6298.51 24.0885 126.974
6301.36 43.0195 143.454
6304.2 27.6108 192.043
6307.05 26.591 -66.426
6309.89 35.7591 -67.2263
6312.74 29.2565 51.1765
6315.59 30.8038 173.785
6318.43 33.2481 92.3617
6321.28 29.527 -7.053
6324.12 19.5857 43.2032
6326.97 24.3672 29.212
6329.81 31.4245 47.8208
6332.66 29.341 70.6792
6335.5 27.6887 124.475
6338.35 30.539 -99.7118
6341.19 25.0734 17.4449
6344.04 35.1181 117.251
6346.88 29.6836 5.74027
6349.72 30.7619 -7.12134
6352.57 32.9265 69.6042
6355.41 36.3952 53.8517
6358.25 25.6355 110.865
6361.1 26.4633 193.903
6363.94 37.6645 -4.91289
6366.78 28.6752 17.4683
6369.63 27.2084 157.493
6372.47 33.0587 17.1923
6375.31 27.2698 143.519
6378.16 33.2993 112.742
6381 28.5901 -32.8522
6383.84 20.7227 66.994
6386.68 30.9177 116.874
6389.53 32.0624 154.461
6392.37 26.8518 90.7827
6395.21 35.4195 -53.2421
6398.05 23.4271 59.2302
6400.89 30.3848 104.54
6403.73 22.4668 70.0237
6406.57 29.4696 -78.0532
6409.42 20.4141 61.612
6412.26 27.8456 33.9702
6415.1 17.5121 8.53194
6417.94 22.3916 20.6401
6420.78 18.5121 -1.33541
6423.62 14.8369 81.3547
6426.46 8.68308 50.8888
6429.3 20.3864 42.6362
6432.14 5.65925 46.56
6434.98 21.7448 -77.7554
6437.82 9.81591 67.4648
6440.66 16.8206 76.1254
6443.5 13.7666 59.4285
6446.34 12.0055 3.836
6449.17 8.72937 57.9738
6452.01 12.8382 45.5632
6454.85 3.85765 -29.2957
6457.69 12.3283 67.6206
6460.53 6.50858 6.15722
6463.37 10.8024 147.319
6466.21 -0.228751 -20.9126
6469.04 4.06123 -69.9746
6471.88 7.27569 39.6721
6474.72 15.1639 50.5928
6477.56 6.87018 41.8787
6480.39 9.7939 -21.685
6483.23 10.6028 -54.8223
6486.07 11.0341 -14.0598
6488.9 9.99555 -3.81456
6491.74 22.5088 100.329
6494.58 1.0386 146.364
6497.41 4.24397 42.8676
6500.25 7.17443 -52.395
6503.09 1.03317 149.46
6505.92 9.98343 32.4321
6508.76 10.124 24.6559
6511.59 12.9775 64.4973
6514.43 13.5313 -19.3639
6517.27 10.5872 116.484
6520.1 13.1631 26.3352
6522.94 11.0862 53.946
6525.77 17.6179 49.5589
6528.61 18.2533 4.00258
6531.44 19.9921 90.9445
6534.27 19.4187 111.685
6537.11 17.4408 104.559
6539.94 16.6176 10.4726
6542.78 15.0894 -31.6278
6545.61 24.0539 12.4487
6548.44 21.5715 51.3909
6551.28 20.8262 116.931
6554.11 24.704 83.6561
6556.94 25.7137 -22.0407
6559.78 34.547 7.02706
6562.61 38.1148 204.554
6565.44 38.0638 54.0004
6568.28 38.7822 -27.7568
6571.11 43.8514 55.4061
6573.94 49.1165 110.349
6576.77 42.4107 65.7053
6579.6 48.297 -5.31367
6582.44 52.3123 97.0149
6585.27 58.0172 143.042
6588.1 50.782 165.991
6590.93 54.6099 68.9024
6593.76 55.1492 64.8181
6596.59 61.9343 141.802
6599.42 62.8299 130.702
6602.26 60.8958 9.0033
6605.09 65.6046 154.223
6607.92 67.3538 127.527
6610.75 69.9313 1.77749
6613.58 64.4716 232.568
6616.41 75.1443 148.824
6619.24 74.3333 121.625
6622.07 63.7747 44.0719
6624.9 66.3868 57.8269
6627.73 63.9227 152.35
6630.55 73.4439 190.619
6633.38 72.232 76.3066
6636.21 65.1233 21.955
6639.04 63.8907 55.2221
6641.87 72.3897 207.889
6644.7 64.9571 130.841
6647.53 74.5338 136.194
6650.35 68.4972 148.778
6653.18 75.016 0.694265
6656.01 75.4586 117.073
6658.84 70.4591 164.918
6661.66 66.7198 188.912
6664.49 68.9935 105.745
6667.32 70.1783 77.78
6670.15 63.9476 84.8436
6672.97 63.0519 161.068
6675.8 66.4389 172.797
6678.63 67.0894 79.0083
6681.45 64.3635 61.0123
6684.28 67.1755 78.9883
6687.1 54.5712 131.176
6689.93 65.3992 181.179
6692.76 55.9334 95.3035
6695.58 62.0003 1.04157
6698.41 59.0203 12.6424
6701.23 54.4719 131.272
6704.06 53.7892 150.659
6706.88 58.0778 43.2119
6709.71 56.1611 11.6649
6712.53 53.5974 95.0388
6715.36 45.0096 10.7644
6718.18 55.0975 127.051
6721 49.7675 170.26
6723.83 48.5162 181.326
6726.65 49.3939 -1.04033
6729.48 51.0737 52.6337
6732.3 46.7754 82.4503
6735.12 41.4267 90.1366
6737.94 49.9954 -56.4627
6740.77 41.9211 105.802
6743.59 48.0716 147.713
6746.41 48.2118 102.77
6749.24 40.4365 -9.50188
6752.06 43.3129 -39.299
6754.88 40.3039 134.607
6757.7 43.2621 60.6239
6760.52 46.8228 61.9633
6763.35 39.5619 178.031
6766.17 32.3198 76.9126
6768.99 33.3776 -18.0312
6771.81 37.7309 7.04746
6774.63 42.4423 98.4429
6777.45 40.7596 21.6692
6780.27 25.6335 125.713
6783.09 40.2138 62.3508
6785.91 44.2707 86.4225
6788.73 37.7853 97.2334
6791.55 31.757 108.153
6794.37 37.2268 28.7312
6797.19 37.3617 29.4816
6800.01 35.1565 80.4491
6802.83 41.3331 110.605
6805.65 37.9079 24.9879
6808.47 27.4149 24.059
6811.29 36.6481 11.0896
6814.11 31.5063 74.1535
6816.92 29.6644 57.6092
6819.74 30.1189 50.1502
6822.56 27.3885 62.1825
6825.38 26.6436 -16.5547
6828.2 31.9516 -29.9737
6831.01 22.5963 83.2889
6833.83 38.4464 159.561
6836.65 32.0735 67.9858
6839.47 26.9336 18.8133
6842.28 33.3671 56.3191
6845.1 24.4015 26.8995
6847.92 26.9717 -27.1791
6850.73 30.624 105.864
6853.55 34.6513 119.032
6856.36 28.2921 119.328
6859.18 26.0298 -47.7264
6862 27.5332 19.1496
6864.81 26.308 14.5557
6867.63 19.8468 58.7094
6870.44 16.4452 16.7904
6873.26 22.075 -14.8968
6876.07 20.9315 61.3345
6878.89 20.9966 26.4682
6881.7 25.1407 59.6934
6884.51 28.8139 -7.62769
6887.33 21.6241 129.435
6890.14 23.3318 60.7211
6892.96 28.7189 40.4455
6895.77 20.6793 42.7438
6898.58 22.4879 94.0273
6901.4 33.3598 67.843
6904.21 26.8815 0.148108
6907.02 22.8659 -57.568
6909.84 29.9043 30.8235
6912.65 25.2243 97.2291
6915.46 24.456 105.578
6918.27 29.9187 78.76
6921.09 26.5158 2.36372
6923.9 29.0839 84.8332
6926.71 29.5852 -17.6428
6929.52 27.3591 54.0286
6932.33 24.6515 51.6712
6935.14 24.4577 24.2583
6937.95 24.9172 62.6559
6940.76 31.0855 52.6244
6943.58 28.6396 146.781
6946.39 28.3131 8.78754
6949.2 27.6572 -27.9161
6952.01 25.3275 61.7103
6954.82 26.3172 76.3469
6957.63 29.1301 47.731
6960.44 20.3187 -22.2722
6963.25 27.934 56.821
6966.05 23.8316 73.6523
6968.86 21.7184 67.0847
6971.67 32.5529 78.4354
6974.48 28.4033 48.424
6977.29 25.7578 -19.3098
6980.1 24.2992 33.4803
6982.91 27.1512 87.42
6985.71 20.9184 40.8687
6988.52 27.0292 3.27293
6991.33 32.1432 73.6416
6994.14 18.5633 97.5728
6996.94 25.1512 65.9454
6999.75 18.5373 35.7488
7002.56 23.0604 -30.7212
7005.37 29.2844 74.7243
7008.17 27.603 65.4395
7010.98 29.9556 114.413
7013.78 23.3021 77.7907
7016.59 28.5837 65.009
7019.4 23.362 22.7248
7022.2 22.2671 17.3884
7025.01 25.8976 55.496
7027.81 29.031 113.041
7030.62 32.1026 -1.0784
7033.42 22.7376 24.6331
7036.23 25.2341 21.3693
7039.03 29.0154 -57.848
7041.84 24.211 51.3266
7044.64 18.4521 11.2809
7047.44 33.2487 85.6658
7050.25 31.1268 18.818
7053.05 34.8368 83.3404
7055.86 27.2773 131.712
7058.66 26.6316 27.7347
7061.46 30.0734 65.543
7064.27 32.6429 33.1622
7067.07 26.6518 84.3783
7069.87 22.2979 115.301
7072.67 30.3233 -15.7216
7075.48 26.5771 55.0956
7078.28 23.091 66.1141
7081.08 23.054 139.088
7083.88 25.67 -27.8286
7086.68 29.31 -2.9813
7089.48 28.5318 85.1678
7092.28 24.3379 39.3739
7095.09 27.0133 9.88741
7097.89 23.1267 49.623
7100.69 23.9817 38.499
7103.49 29.3196 6.04341
7106.29 33.0025 18.1371
7109.09 28.5874 69.1034
7111.89 29.0346 18.0857
7114.69 25.1987 0.682782
7117.49 31.3663 139.556
7120.29 29.0506 98.1604
7123.08 20.0465 25.717
7125.88 23.9627 57.0509
7128.68 16.8556 17.5968
7131.48 23.7665 42.6008
7134.28 26.5853 43.9505
7137.08 24.1414 65.0346
7139.87 20.4263 51.3923
7142.67 25.3421 33.958
7145.47 22.793 2.99223
7148.27 25.8244 64.4839
7151.06 28.5111 -13.7355
7153.86 30.1841 77.4109
7156.66 24.178 80.4399
7159.45 17.0826 38.1177
7162.25 24.4476 0.630114
7165.05 37.908 38.5007
7167.84 35.3642 62.9411
7170.64 31.7224 70.4026
7173.43 26.0741 52.0947
7176.23 21.5855 51.5025
7179.03 29.1029 87.04
7181.82 18.6804 81.9992
7184.62 26.0795 17.0361
7187.41 24.3405 -8.08774
7190.2 19.2402 31.2794
7193 20.2386 100.243
7195.79 16.2505 28.0031
7198.59 21.998 38.753
7201.38 17.6502 21.383
7204.17 26.1008 33.2995
7206.97 23.5902 -23.5476
7209.76 22.4763 39.2794
7212.55 22.3799 -25.725
7215.35 25.2581 41.1202
7218.14 24.6357 69.6794
7220.93 23.0844 31.0098
7223.72 23.491 27.5838
7226.52 22.3384 34.0583
7229.31 28.6626 84.6687
7232.1 17.2812 19.7132
7234.89 24.2526 21.7796
7237.68 22.7014 84.2369
7240.47 29.8249 66.7686
7243.26 22.6829 -16.0201
7246.05 32.6754 5.88119
7248.84 18.8295 8.12549
7251.63 25.4551 46.0568
7254.42 22.4244 29.3501
7257.21 15.2076 63.5525
7260 15.0769 59.0351
7262.79 21.3785 27.9557
7265.58 25.2188 97.7094
7268.37 19.9038 43.2653
7271.16 17.9673 10.3057
7273.95 20.36 176.749
7276.74 25.57 66.7971
7279.53 19.4908 -38.23
7282.31 25.4767 2.99913
7285.1 17.1991 13.0071
7287.89 17.4119 -20.5022
7290.68 25.2472 78.017
7293.46 25.2097 74.4257
7296.25 22.5153 -31.6348
7299.04 18.6736 47.8267
7301.83 22.7044 11.1645
7304.61 26.6836 49.5663
7307.4 18.4184 3.91877
7310.18 27.8954 69.013
7312.97 26.767 150.772
7315.76 22.6079 35.7522
7318.54 18.8206 27.0339
7321.33 28.9845 76.4213
7324.11 27.1205 144.897
7326.9 32.5458 48.8462
7329.68 32.7421 102.563
7332.47 27.0105 119.413
7335.25 31.7286 14.9878
7338.03 29.696 29.7168
7340.82 20.7214 85.8643
7343.6 24.1575 69.5588
7346.39 23.7381 130.516
7349.17 26.9826 16.7446
7351.95 27.2029 43.8896
7354.73 33.2865 0.352988
7357.52 37.0522 92.7445
7360.3 31.2985 45.4152
7363.08 22.2425 -9.83161
7365.86 38.8164 47.3475
7368.65 32.9099 81.341
7371.43 21.7884 61.999
7374.21 30.0615 -51.5852
7376.99 31.1083 26.0593
7379.77 30.8455 89.497
7382.55 21.9974 24.7489
7385.33 22.5565 5.62969
7388.11 30.7293 50.4966
7390.89 26.956 104.727
7393.67 21.1066 33.954
7396.45 22.6492 -11.9575
7399.23 25.3344 44.1815
7402.01 31.8211 98.8308
7404.79 21.6516 111.723
7407.57 25.398 26.6809
7410.35 24.0172 -32.1819
7413.13 29.7641 73.8715
7415.91 26.6084 114.556
7418.68 24.2948 -4.86298
7421.46 22.9607 39.1412
7424.24 29.4815 3.28652
7427.02 27.2035 97.2248
7429.8 16.9616 76.7373
7432.57 30.7297 89.1086
7435.35 22.1538 -21.5062
7438.13 21.9116 -38.0238
7440.9 24.1759 71.9405
7443.68 29.5668 22.2334
7446.46 21.0042 -5.28391
7449.23 26.2557 64.2372
7452.01 27.0977 57.4138
7454.78 23.9365 66.8646
7457.56 25.2889 -15.1105
7460.33 27.8288 27.1565
7463.11 19.2524 17.8196
7465.88 26.6428 138.131
7468.66 29.9552 98.8644
7471.43 28.7177 22.6371
7474.2 27.509 69.3199
7476.98 15.0047 75.3124
7479.75 18.9682 -38.8134
7482.53 28.0982 -24.4371
7485.3 20.6161 24.2383
7488.07 19.6306 24.1383
7490.84 21.2971 81.0079
7493.62 24.353 55.8809
7496.39 21.9196 89.6776
7499.16 24.1454 30.7321
7501.93 22.6238 -28.4794
7504.71 26.9951 25.4291
7507.48 20.5964 28.9644
7510.25 25.9869 51.5407
7513.02 23.5746 13.8631
7515.79 24.2281 61.6808
7518.56 24.0358 -7.55136
7521.33 27.9933 72.5888
7524.1 20.5815 63.4043
7526.87 14.1371 96.0353
7529.64 28.9707 -19.5521
7532.41 19.2846 14.1712
7535.18 27.0616 128.638
7537.95 29.5162 50.1085
7540.72 20.4187 96.7458
7543.49 25.2396 3.72626
7546.26 22.7191 16.4343
7549.02 20.5111 49.8094
7551.79 29.5219 8.22009
7554.56 26.1876 17.2313
7557.33 20.5657 47.2553
7560.09 15.6217 -1.6174
7562.86 28.3833 26.1334
7565.63 17.5525 40.2575
7568.4 16.5493 32.4178
7571.16 26.322 2.40862
7573.93 22.5381 97.2303
7576.69 24.6032 69.012
7579.46 25.9755 -14.2754
7582.23 23.2511 54.6227
7584.99 22.9912 28.2863
7587.76 19.9124 69.8361
7590.52 17.7609 35.2109
7593.29 16.4111 48.2204
7596.05 16.2645 -1.98606
7598.82 6.77158 64.6305
7601.58 10.0756 -20.0657
7604.34 5.98089 -33.3666
7607.11 5.04032 -17.2785
7609.87 11.2645 -19.7322
7612.63 8.14423 15.7445
7615.4 14.1139 29.4728
7618.16 17.8512 17.9634
7620.92 20.4892 55.3381
7623.68 9.44468 64.7801
7626.45 12.4379 19.7938
7629.21 5.4769 -3.62482
7631.97 14.7282 13.5655
7634.73 10.2332 23.6533
7637.49 10.6853 -18.5652
7640.25 16.2908 -2.80544
7643.02 9.50639 -6.16438
7645.78 18.3847 30.2809
7648.54 15.9772 -20.6959
7651.3 17.2355 43.7052
7654.06 13.4973 79.3112
7656.82 19.2861 46.2513
7659.58 16.2218 21.6677
7662.33 19.5102 11.0475
7665.09 16.1226 38.4626
7667.85 17.5961 81.9949
7670.61 19.3771 -7.09142
7673.37 11.7808 44.5898
7676.13 22.903 94.256
7678.89 24.3731 39.8639
7681.64 16.2198 26.9937
7684.4 26.3618 96.2488
7687.16 15.33 74.1785
7689.92 15.2523 30.158
7692.67 18.5115 35.4201
7695.43 10.2767 92.2281
7698.19 19.5721 121.71
7700.94 21.7251 41.6424
7703.7 21.2283 28.1726
7706.45 15.7467 35.1564
7709.21 28.7157 91.4223
7711.96 20.9721 52.1814
7714.72 9.18796 11.4447
7717.47 26.0523 189.289
7720.23 22.1363 160.01
7722.98 16.8303 43.8127
7725.74 25.8484 58.8431
7728.49 26.8099 40.8954
7731.24 27.1295 57.3303
7734 19.6304 37.2888
7736.75 24.2522 50.8946
7739.5 25.8013 30.3577
7742.26 16.1435 86.2438
7745.01 22.7325 112.123
7747.76 33.2283 103.463
7750.51 29.4917 60.0306
7753.26 19.3157 90.9774
7756.02 23.1476 49.7572
7758.77 28.6583 -16.3898
7761.52 23.3236 25.7826
7764.27 13.1077 -19.7573
7767.02 19.6046 30.3602
7769.77 24.6964 71.2638
7772.52 11.4166 34.8013
7775.27 13.0224 55.3286
7778.02 22.3927 78.1067
7780.77 21.3402 26.2682
7783.52 19.3317 103.521
7786.27 18.7652 69.6172
7789.02 20.3567 21.5486
7791.77 26.0312 16.6629
7794.51 30.0276 36.1619
7797.26 19.8701 -19.1869
7800.01 12.573 -10.4074
7802.76 20.7918 83.1538
7805.51 17.0459 19.0616
7808.25 17.2043 -14.7666
7811 20.5158 -13.6156
7813.75 15.1956 107.847
7816.49 23.4507 63.5003
7819.24 31.5367 57.4243
7821.98 27.3657 100.572
7824.73 30.8144 59.7144
7827.48 26.5741 12.3771
7830.22 20.2054 63.1975
7832.97 17.0714 42.4398
7835.71 19.3727 60.0921
7838.46 25.7939 22.5041
7841.2 30.1956 67.3071
7843.94 20.3939 32.8662
7846.69 19.1424 99.1922
7849.43 16.1996 70.7858
7852.18 20.4716 15.2098
7854.92 24.4371 115.264
7857.66 22.0617 44.7594
7860.4 17.1116 32.8288
7863.15 17.9632 137.778
7865.89 28.8787 89.6308
7868.63 18.5287 34.4774
7871.37 27.9223 53.6008
7874.11 16.9266 1.83791
7876.86 17.615 124.642
7879.6 20.2905 49.4693
7882.34 23.2324 38.3779
7885.08 32.1866 45.0307
7887.82 24.674 -0.923041
7890.56 13.9255 70.5211
7893.3 26.846 92.8239
7896.04 29.5599 110.409
7898.78 18.5953 -0.389298
7901.52 26.8785 58.7828
7904.26 26.0142 44.1259
7906.99 22.1914 58.8305
7909.73 31.8889 71.4103
7912.47 27.5008 7.87026
7915.21 21.364 26.5331
7917.95 27.1065 43.1391
7920.68 15.7148 87.0207
7923.42 20.0485 -11.3719
7926.16 24.482 6.51972
7928.89 19.7135 64.7467
7931.63 18.2102 55.4128
7934.37 15.9379 -44.9254
7937.1 25.1547 13.9242
7939.84 19.8208 73.7145
7942.57 20.5158 64.0097
7945.31 15.9702 24.2448
7948.04 30.0253 10.849
7950.78 18.1709 -28.5615
7953.51 21.3589 -14.6518
7956.25 17.5361 34.7352
7958.98 29.4643 99.7575
7961.72 24.3701 83.0676
7964.45 22.8726 52.0127
7967.18 24.1456 -3.42063
7969.92 8.1367 30.1075
7972.65 9.33057 89.2249
7975.38 22.1006 14.7763
7978.11 20.6602 -46.1435
7980.84 15.0128 61.1465
7983.58 15.036 24.0232
7986.31 27.1489 28.9012
7989.04 24.6063 100.609
7991.77 30.5243 75.0573
7994.5 24.7947 17.8091
7997.23 22.3844 -20.3097
7999.96 27.0912 60.1669
8002.69 24.8351 96.5802
8005.42 13.4203 71.8036
8008.15 21.7697 23.4242
8010.88 22.1909 -20.6755
8013.61 19.8334 50.7604
8016.34 17.2131 -38.7827
8019.07 18.9292 14.1797
8021.8 18.0636 45.219
8024.52 26.8528 -38.8308
8027.25 12.3938 15.2145
8029.98 26.1021 22.5102
8032.71 15.1131 88.3381
8035.43 15.0489 67.9128
8038.16 17.2899 -1.62478
8040.89 14.3301 58.9854
8043.61 24.4537 77.9546
8046.34 21.719 57.6483
8049.07 13.1614 65.9346
8051.79 16.6824 -40.6621
8054.52 17.7937 18.7154
8057.24 23.7634 89.0699
8059.97 12.2125 -7.98876
8062.69 22.2437 20.6326
8065.41 19.5491 64.9955
8068.14 26.5525 68.8128
8070.86 12.2965 6.81835
8073.59 14.99 21.3946
8076.31 26.1613 47.6709
8079.03 16.9426 39.3446
8081.76 19.5668 51.4824
8084.48 24.5116 49.2922
8087.2 13.6368 53.5195
8089.92 24.059 59.6787
8092.64 21.762 -35.1255
8095.37 21.9959 -10.2717
8098.09 26.1227 23.5296
8100.81 17.6849 62.2979
8103.53 15.8375 50.0587
8106.25 13.8888 14.1273
8108.97 23.5733 -20.6869
8111.69 14.2688 63.3783
8114.41 12.0763 18.4334
8117.13 10.306 -14.0011
8119.85 15.237 -26.1424
8122.57 20.1447 57.6417
8125.29 24.4589 52.0062
8128 15.5386 53.221
8130.72 14.2648 88.0465
8133.44 28.3534 41.8182
8136.16 26.4841 48.9083
8138.87 18.4945 25.4735
8141.59 22.1068 37.1612
8144.31 21.8595 100.996
8147.03 28.6456 69.7535
8149.74 26.7908 -27.9307
8152.46 26.4495 15.0736
8155.17 12.7526 51.9006
8157.89 21.632 51.3608
8160.6 19.2279 79.3572
8163.32 20.3737 69.8666
8166.03 24.115 42.3245
8168.75 20.9679 33.8829
8171.46 25.2097 -17.1617
8174.18 18.9538 -29.8315
8176.89 25.4833 40.1038
8179.6 13.9309 77.2155
8182.32 24.9712 12.5007
8185.03 12.5192 -38.9327
8187.74 25.6453 33.5783
8190.46 26.8304 12.1575
8193.17 16.7817 6.01445
8195.88 19.184 -35.2027
8198.59 19.6823 39.5203
8201.3 21.9338 121.782
8204.01 19.4338 24.2066
8206.72 22.5648 74.1827
8209.44 26.5344 76.2777
8212.15 32.9541 88.9065
8214.86 23.8162 44.8828
8217.57 31.6325 34.3481
8220.28 18.4712 -6.8068
8222.98 20.4859 1.90856
8225.69 20.0122 36.2578
8228.4 11.5928 9.32169
8231.11 15.4022 9.99523
8233.82 25.8852 57.7178
8236.53 20.6989 49.3626
8239.23 20.7033 10.0585
8241.94 19.872 74.8084
8244.65 21.2204 19.6689
8247.36 16.6967 54.2379
8250.06 24.6037 79.6699
8252.77 22.0113 40.7902
8255.48 21.8763 6.01846
8258.18 15.4268 35.0748
8260.89 16.9413 0.409098
8263.59 24.2308 10.3944
8266.3 20.1211 -15.6441
8269 10.8291 16.6925
8271.71 14.9348 54.2414
8274.41 17.6351 62.513
8277.11 22.4217 10.04
8279.82 10.1428 82.3869
8282.52 8.57017 48.0776
8285.22 19.1127 80.6679
8287.93 5.70443 9.46572
8290.63 15.594 6.07547
8293.33 15.0203 66.3461
8296.03 18.0628 97.9997
8298.74 22.531 19.8338
8301.44 20.0914 84.1786
8304.14 15.6116 51.2513
8306.84 11.2059 -3.7213
8309.54 19.1994 137.705
8312.24 23.3858 108.636
8314.94 21.8807 42.644
8317.64 11.505 -11.9286
8320.34 15.3224 -13.4631
8323.04 12.3353 7.2904
8325.74 18.6029 48.583
8328.44 19.9944 93.4641
8331.14 27.6624 74.2662
8333.83 16.8029 34.3222
8336.53 12.0288 8.88015
8339.23 34.2407 65.3195
8341.93 24.6818 7.81814
8344.62 23.5415 30.7464
8347.32 13.4927 94.1069
8350.02 15.6348 -28.7414
8352.71 8.39996 177.063
8355.41 19.9571 18.2663
8358.11 11.312 21.4348
8360.8 18.4876 9.49366
8363.5 11.5915 35.2108
8366.19 19.4392 11.9638
8368.89 19.751 12.1808
8371.58 18.7351 -16.8918
8374.27 14.3078 23.4106
8376.97 26.0036 114.862
8379.66 22.563 24.8966
8382.35 28.0686 42.7707
8385.05 16.079 5.91146
8387.74 9.86165 34.2838
8390.43 11.9317 -22.937
8393.12 17.766 -37.372
8395.82 26.5746 76.3842
8398.51 24.8202 -60.5423
8401.2 18.7692 -18.4901
8403.89 19.8344 -12.8006
8406.58 19.5575 20.9045
8409.27 3.82643 49.6082
8411.96 16.3095 14.5336
8414.65 16.3447 128.507
8417.34 12.3817 74.4919
8420.03 14.0389 22.7634
8422.72 7.71619 105.312
8425.41 19.4827 -24.8783
8428.1 7.21229 41.4478
8430.78 23.6757 41.2307
8433.47 22.5676 -35.72
8436.16 -6.90906 66.6862
8438.85 22.5322 26.3576
8441.53 10.3298 49.6161
8444.22 14.4757 33.5648
8446.91 7.99969 11.3694
8449.59 7.85415 -17.1167
8452.28 17.641 101.406
8454.97 11.8034 114.327
8457.65 11.4778 16.8144
8460.34 12.7701 -44.5325
8463.02 13.0872 -23.6477
8465.71 1.08424 63.1803
8468.39 10.774 6.81444
8471.07 1.59078 27.5779
8473.76 9.57667 64.4009
8476.44 7.10186 7.28784
8479.12 6.47117 4.39469
8481.81 5.48512 62.7262
8484.49 3.53266 5.01103
8487.17 6.9564 25.7783
8489.85 15.5484 50.1649
8492.53 20.8001 -1.80528
8495.22 6.07869 14.5204
8497.9 7.02983 81.6374
8500.58 9.00249 4.74697
8503.26 4.64942 -8.47162
8505.94 9.13945 -13.2185
8508.62 9.28765 -29.8594
8511.3 2.37638 29.8488
8513.98 4.61949 42.166
8516.66 3.95488 -17.5011
8519.34 8.44306 -23.5974
8522.01 4.51122 -32.4582
8524.69 12.5278 3.55169
8527.37 14.0028 69.2572
8530.05 7.68912 64.4215
8532.72 2.24867 112.563
8535.4 3.69528 45.4838
8538.08 9.61067 11.741
8540.75 5.67737 24.9934
8543.43 18.3745 40.7795
8546.11 3.48454 6.73174
8548.78 18.8654 16.8659
8551.46 22.3291 54.098
8554.13 19.6228 22.8525
8556.81 15.0862 74.0234
8559.48 14.392 0.618839
8562.16 12.6157 34.0405
8564.83 12.4344 4.97251
8567.5 8.6805 41.0043
8570.18 20.309 37.3204
8572.85 15.9632 -3.69277
8575.52 11.4549 45.7065
8578.19 17.8723 67.0388
8580.87 18.2246 43.8959
8583.54 18.6421 48.3332
8586.21 20.4493 11.2182
8588.88 16.5438 28.411
8591.55 26.2685 -18.21
8594.22 8.1769 39.0416
8596.89 26.2798 59.9735
8599.56 20.0394 43.6875
8602.23 14.9033 18.1241
8604.9 4.46036 49.8372
8607.57 12.9383 29.1879
8610.24 15.0298 48.3003
8612.91 12.2578 31.048
8615.58 18.2517 62.9239
8618.24 9.95549 66.991
8620.91 17.3688 45.3357
8623.58 17.1692 26.7582
8626.25 12.4215 24.2123
8628.91 12.5426 53.6363
8631.58 15.9956 -12.576
8634.24 6.53213 4.00033
8636.91 14.6319 4.636
8639.58 8.22444 31.6717
8642.24 6.90134 51.0483
8644.91 14.1265 6.61981
8647.57 20.1088 -51.7651
8650.23 14.6256 7.38834
8652.9 9.00512 -1.24704
8655.56 8.56868 72.5195
8658.23 19.0579 57.0634
8660.89 9.47117 85.4155
8663.55 12.3967 42.9971
8666.21 14.6364 0.264383
8668.88 14.9489 -73.9784
8671.54 12.1105 11.335
8674.2 25.8391 62.738
8676.86 20.052 42.1757
8679.52 17.5059 42.965
8682.18 22.9503 62.7133
8684.84 14.4102 25.7366
8687.5 25.4626 17.6878
8690.16 21.6423 8.84345
8692.82 19.383 28.7363
8695.48 28.2462 24.0699
8698.14 27.7305 18.577
8700.8 27.9345 -22.088
8703.46 24.4203 -26.6245
8706.11 26.7121 64.9596
8708.77 24.635 3.76939
8711.43 27.3931 51.0543
8714.09 30.1928 -2.46748
8716.74 26.5324 34.6627
8719.4 20.8365 48.0662
8722.06 24.6303 25.5911
8724.71 23.7079 -13.7048
8727.37 26.9952 7.91068
8730.02 27.7405 33.3356
8732.68 26.2647 41.2748
8735.33 25.1081 -10.3747
8737.99 31.9007 -27.7522
8740.64 26.4351 58.5573
8743.29 26.7869 -2.84911
8745.95 35.2455 -12.5743
8748.6 23.965 27.1094
8751.25 23.0555 20.6525
8753.9 29.6127 20.3845
8756.56 17.034 17.3107
8759.21 31.5718 -9.48098
8761.86 25.3868 33.8885
8764.51 24.0237 20.146
8767.16 24.4595 118.808
8769.81 23.6262 56.1742
8772.46 30.5336 -25.0098
8775.11 27.2531 15.0215
8777.76 38.2437 151.54
8780.41 34.5584 128.555
8783.06 28.5078 25.411
8785.71 19.6102 4.2512
8788.36 32.694 -16.3257
8791 21.3126 96.5446
8793.65 29.4939 88.6701
8796.3 34.0417 52.9515
8798.95 24.7386 50.4276
8801.59 20.8338 66.419
8804.24 29.124 8.58263
8806.89 28.0885 6.10463
8809.53 25.3983 12.4367
8812.18 27.9039 9.35617
8814.82 28.2877 -0.494571
8817.47 22.5535 2.1584
8820.11 13.6198 -26.9599
8822.76 36.9802 15.0568
8825.4 14.4517 94.1037
8828.04 13.6238 126.402
8830.69 28.8143 90.4954
8833.33 11.9735 58.7623
8835.97 30.8085 -94.6147
8838.62 21.634 -79.6768
8841.26 13.9996 38.0843
8843.9 16.9062 14.6728
8846.54 21.9278 28.8564
8849.18 25.1027 30.0179
8851.82 24.4016 -8.30272
8854.46 16.7021 -12.851
8857.1 19.3648 -18.8419
8859.74 20.9965 26.2406
8862.38 24.8079 22.4945
8865.02 20.938 25.0638
8867.66 24.1758 24.4766
8870.3 18.7972 43.9836
8872.94 18.1405 30.6535
8875.57 21.8432 54.3803
8878.21 25.0102 23.5883
8880.85 21.0561 115.876
8883.49 27.6083 63.7846
8886.12 14.6781 65.6531
8888.76 23.339 37.5643
8891.39 18.9576 7.3667
8894.03 8.47405 -64.4071
8896.67 21.2117 -9.5531
8899.3 23.458 98.4479
8901.94 21.8562 0.343333
8904.57 12.5353 98.3691
8907.2 31.5384 74.0766
8909.84 19.9186 50.6615
8912.47 22.4859 37.7562
8915.1 22.0955 57.9248
8917.74 39.2314 55.6596
8920.37 24.1291 70.3293
8923 31.1218 115.038
8925.63 19.7324 68.2669
8928.26 14.8969 84.8487
8930.89 17.878 18.7042
8933.53 26.5301 46.2582
8936.16 17.375 27.0075
8938.79 22.3273 -44.539
8941.42 22.0839 4.24118
8944.05 19.214 43.7403
8946.67 12.1385 39.9237
8949.3 13.2343 8.86882
8951.93 19.631 -36.9915
8954.56 15.0833 120.649
8957.19 38.5949 -11.5968
8959.82 28.4469 41.9716
8962.44 18.8029 -16.0567
8965.07 8.17907 -129.518
