wavelength spectrum_sum 3smoothed_sum spectrum_optimal 3smoothed_optimal
3402.81 27.6663 4.39015 -26.1954 -4.34238
3405.73 -14.4958 -19.6196 13.1683 -14.0496
3408.66 -72.0292 -67.1484 -29.1216 -28.6616
3411.59 -114.92 -63.0257 -70.0313 -70.4715
3414.52 -2.12774 -8.03779 -112.262 -23.2155
3417.44 92.9345 53.4865 112.646 2.60927
3420.37 69.6526 18.92 7.44314 -33.0975
3423.3 -105.827 -52.7494 -219.382 -42.8252
3426.22 -122.074 -115.62 83.4631 -24.3346
3429.15 -118.959 -80.0758 62.9149 34.5213
3432.08 0.804942 -55.6292 -42.814 -10.1389
3435.01 -48.734 -32.7809 -50.5174 -46.1035
3437.93 -50.4137 -66.9461 -44.9791 -28.1496
3440.86 -101.691 3.50174 11.0478 8.22978
3443.79 162.61 18.3847 58.6207 11.7837
3446.71 -5.76485 61.4241 -34.3174 32.0567
3449.64 27.4276 11.2338 71.8669 13.7418
3452.57 12.0385 -17.5227 3.67585 54.57
3455.49 -92.0342 -13.0077 88.1671 4.60909
3458.42 40.9726 -10.708 -78.0156 31.1463
3461.35 18.9376 2.74779 83.2875 -3.93317
3464.27 -51.6669 -36.9919 -17.0713 20.4998
3467.2 -78.2465 -67.519 -4.71684 -8.3718
3470.13 -72.6436 -43.4644 -3.32723 -10.9611
3473.05 20.4969 -81.9069 -24.8391 -14.5869
3475.98 -193.574 -61.6059 -15.5942 -32.4081
3478.91 -11.7405 -76.2246 -56.791 11.2597
3481.83 -23.3595 -3.70612 106.164 -37.6061
3484.76 23.9816 -4.44228 -162.192 -51.9538
3487.69 -13.949 -35.0421 -99.834 -110.907
3490.61 -115.159 -64.3555 -70.6961 -19.0519
3493.54 -63.9587 -79.5445 113.374 1.96297
3496.46 -59.5159 -68.8132 -36.7893 -9.41274
3499.39 -82.965 -71.6937 -104.823 -61.582
3502.32 -72.6002 5.64062 -43.1334 -20.872
3505.24 172.487 31.9615 85.3406 4.20254
3508.17 -4.00237 77.124 -29.5996 10.0701
3511.09 62.8873 68.7732 -25.5306 -0.640413
3514.02 147.435 97.1096 53.209 -38.9062
3516.95 81.0069 85.5064 -144.397 -53.6985
3519.87 28.0778 75.4314 -69.9074 -64.9934
3522.8 117.209 82.6086 19.3241 -10.5789
3525.72 102.539 83.0239 18.8466 12.9966
3528.65 29.3236 41.2751 0.819294 55.0741
3531.58 -8.03708 98.6675 145.557 0.265729
3534.5 274.716 100.239 -145.579 26.824
3537.43 34.0367 106.306 80.4942 -46.1433
3540.35 10.1665 -0.179788 -73.3454 -18.2161
3543.28 -44.7426 -49.1855 -61.7971 -5.33835
3546.2 -112.98 -77.1396 119.127 23.8982
3549.13 -73.6957 -82.3022 14.3642 22.6861
3552.05 -60.2305 1.35078 -65.4333 -67.2536
3554.98 137.979 36.4894 -150.692 -59.1967
3557.91 31.7203 106.362 38.535 5.63327
3560.83 149.387 43.282 129.057 47.8782
3563.76 -51.2617 22.647 -23.9571 30.0953
3566.68 -30.1849 4.46479 -14.8136 -14.8131
3569.61 94.8409 4.02263 -5.66856 8.01884
3572.53 -52.5881 73.5882 44.5387 12.6374
3575.46 178.512 96.3876 -0.957965 -40.9841
3578.38 163.239 57.7295 -166.533 -41.9104
3581.31 -168.562 -17.7967 41.7597 -32.9843
3584.23 -48.0668 -107.587 25.8203 6.43857
3587.16 -106.13 -100.872 -48.2643 -0.230293
3590.08 -148.419 -134.808 21.7531 -17.2705
3593.01 -149.875 -79.8824 -25.3003 -24.1344
3595.93 58.6469 51.0543 -68.8561 -64.0703
3598.86 244.392 86.5937 -98.0544 -70.388
3601.78 -43.2574 89.7792 -44.2535 -47.4407
3604.71 68.2034 -20.127 -0.0140136 -60.3664
3607.63 -85.327 -21.3976 -136.832 -53.4222
3610.56 -47.0691 -38.43 -23.421 -75.3653
3613.48 17.1061 -59.2307 -65.8431 -26.2516
3616.4 -147.729 -62.1575 10.5093 -21.3559
3619.33 -55.8495 -96.4178 -8.73394 14.4863
3622.25 -85.6748 -108.469 41.6835 -9.59277
3625.18 -183.884 -97.1565 -61.7279 30.4942
3628.1 -21.9105 -23.4806 111.527 18.2161
3631.03 135.353 44.3677 4.84919 15.8384
3633.95 19.6607 51.4721 -68.861 -33.0016
3636.88 -0.59725 53.4516 -34.993 -32.3427
3639.8 141.291 29.0909 6.8258 24.0754
3642.72 -53.4215 55.4041 100.393 13.9427
3645.65 78.3423 24.7308 -65.391 20.9028
3648.57 49.2717 65.3509 27.7059 -25.0271
3651.5 68.4387 69.0157 -37.3963 -11.8372
3654.42 89.3368 100.022 -25.8212 -39.3821
3657.34 142.29 84.7439 -54.9287 -33.4626
3660.27 22.6053 60.3071 -19.6379 -66.3967
3663.19 16.0263 67.9997 -124.624 -55.1537
3666.12 165.367 58.2277 -21.1997 -22.7863
3669.04 -6.71081 114.378 77.4644 -19.8029
3671.96 184.476 129.091 -115.673 -37.1479
3674.89 209.507 229.67 -73.2347 -80.5999
3677.81 295.025 250.11 -52.8915 -33.1669
3680.73 245.797 169.609 26.6255 3.64862
3683.66 -31.9953 130.069 37.2119 33.0583
3686.58 176.405 82.4724 35.3377 0.623924
3689.51 103.008 79.1209 -70.6778 27.9974
3692.43 -42.0497 65.0851 119.332 23.9174
3695.35 134.298 55.4267 23.0977 68.3717
3698.28 74.0324 110.919 62.6851 22.7229
3701.2 124.426 136.847 -17.6143 29.0391
3704.12 212.083 61.0853 42.0463 -9.31285
3707.05 -153.253 23.1223 -52.3706 -57.5784
3709.97 10.5369 42.1821 -162.411 -69.573
3712.89 269.262 63.0203 6.0625 -61.8035
3715.81 -90.7385 102.061 -29.0621 -12.5486
3718.74 127.658 72.2181 -14.6461 -22.3021
3721.66 179.734 105.384 -23.198 -37.2103
3724.58 8.75975 107.108 -73.7869 -34.3357
3727.51 132.83 77.7991 -6.0223 -35.8829
3730.43 91.8074 120.583 -27.8395 -78.6396
3733.35 137.111 154.125 -202.057 -84.8602
3736.28 233.458 250.382 -24.6841 -58.4898
3739.2 380.577 300.963 51.2718 -22.586
3742.12 288.854 266.666 -94.3455 -61.7504
3745.04 130.567 201.008 -142.178 -41.9725
3747.97 183.602 152.401 110.606 -41.7361
3750.89 143.036 115.685 -93.6363 52.1453
3753.81 20.4172 106.166 139.467 -50.4191
3756.73 155.044 128.868 -197.088 -49.6379
3759.66 211.143 143.585 -91.2929 -108.482
3762.58 64.5678 97.88 -37.0644 -61.4509
3765.5 17.9295 119.499 -55.9954 -18.698
3768.42 276.001 245.829 36.9659 -7.62074
3771.35 443.557 206.456 -3.83264 -39.3077
3774.27 -100.191 215.02 -151.056 -92.7929
3777.19 301.696 56.6869 -123.49 -129.119
3780.11 -31.4435 92.2776 -112.812 -173.041
3783.03 6.58061 78.0806 -282.822 -133.939
3785.96 259.105 59.8047 -6.18252 -183.791
3788.88 -86.2714 33.334 -262.368 -60.1802
3791.8 -72.8314 45.176 88.0095 -102.837
3794.72 294.631 40.717 -134.154 -40.8808
3797.64 -99.6484 83.8318 -76.4983 -71.1062
3800.57 56.5131 -15.2345 -2.6666 -31.9201
3803.49 -2.56828 -11.4746 -16.5954 39.9019
3806.41 -88.3687 35.0296 138.968 73.996
3809.33 196.026 79.4802 99.6157 128.187
3812.25 130.783 128.876 145.978 88.8551
3815.17 59.8193 117.62 20.9716 6.2022
3818.1 162.257 132.999 -148.343 -47.1087
3821.02 176.922 132.497 -13.9545 -127.146
3823.94 58.3131 145.521 -219.141 -94.5564
3826.86 201.329 141.674 -50.574 -78.2662
3829.78 165.379 187.173 34.9159 -24.5527
3832.7 194.811 144.743 -57.9999 -9.12876
3835.62 74.0385 92.421 -4.30234 -35.5961
3838.55 8.41378 50.895 -44.486 -8.57291
3841.47 70.2329 74.5438 23.0696 52.6083
3844.39 144.985 86.4208 179.241 55.0956
3847.31 44.0447 81.6364 -37.0241 33.8154
3850.23 55.8797 50.6739 -40.7709 -47.8947
3853.15 52.0973 87.4731 -65.8891 -42.5136
3856.07 154.442 48.7386 -20.8809 -14.5302
3858.99 -60.3237 65.1779 43.1792 -93.2893
3861.91 101.415 62.1878 -302.166 -118.689
3864.83 145.472 82.5338 -97.0798 -193.082
3867.76 0.714519 54.675 -180.001 -70.5195
3870.68 17.8385 92.6386 65.5224 -19.6643
3873.6 259.363 146.727 55.4861 -42.0126
3876.52 162.98 111.769 -247.046 -113.259
3879.44 -87.0356 -25.2563 -148.216 -156.462
3882.36 -151.713 -44.8392 -74.1243 -65.0046
3885.28 104.231 -57.2548 27.3269 -35.0853
3888.2 -124.283 -11.9733 -58.4585 -7.69053
3891.12 -15.8685 -11.6827 8.06003 -56.0917
3894.04 105.103 23.3234 -117.877 -13.7209
3896.96 -19.2645 -1.70205 68.6538 -11.0256
3899.88 -90.9447 16.5874 16.1459 -75.1475
3902.8 159.971 7.78129 -310.242 -93.2007
3905.72 -45.6828 49.0854 14.4942 -94.6304
3908.64 32.9677 74.9195 11.8568 -4.54747
3911.56 237.474 22.0696 -39.9934 -79.0329
3914.48 -204.232 13.6485 -208.962 -34.8423
3917.4 7.70421 -69.1877 144.429 -81.7963
3920.32 -11.0349 22.1659 -180.856 38.8466
3923.24 69.8285 49.8946 152.967 -38.2561
3926.16 90.8902 117.071 -86.8798 62.1274
3929.08 190.496 141.88 120.295 -43.7463
3932 144.254 83.9079 -164.654 19.6523
3934.92 -83.0259 -43.7167 103.316 58.8795
3937.84 -192.378 -88.3074 237.977 123.433
3940.76 10.4819 -26.5507 29.007 8.44262
3943.68 102.244 106.123 -241.656 -89.1954
3946.6 205.643 154.803 -54.9374 -110.582
3949.52 156.522 141.609 -35.1524 -134.881
3952.44 62.6621 118.13 -314.554 -168.112
3955.36 135.206 117.039 -154.628 -241.092
3958.27 153.249 111.2 -254.093 -126.274
3961.19 45.1467 57.8752 29.8978 -109.156
3964.11 -24.7698 43.2538 -103.272 -57.1717
3967.03 109.384 49.6023 -98.1405 -56.2064
3969.95 64.1923 110.072 32.7937 -79.5746
3972.87 156.64 166.625 -173.377 -94.5624
3975.79 279.043 215.005 -143.104 -133.044
3978.71 209.331 187.545 -82.6497 -95.0012
3981.63 74.2616 143.03 -59.2499 -130.318
3984.55 145.498 153.414 -249.055 -150.969
3987.46 240.482 180.04 -144.602 -156.138
3990.38 154.139 186.658 -74.7569 -144.918
3993.3 165.353 192.874 -215.396 -123.33
3996.22 259.13 197.864 -79.8372 -180.596
3999.14 169.108 307.973 -246.555 -231.272
4002.06 495.681 365.978 -367.424 -168.051
4004.98 433.146 478.421 109.827 -123.707
4007.89 506.436 361.454 -113.523 -15.3972
4010.81 144.779 379.184 -42.496 -102.97
4013.73 486.338 314.118 -152.89 -135.643
4016.65 311.239 387.502 -211.544 -122.877
4019.57 364.93 292.354 -4.19576 -105.684
4022.49 200.894 373.901 -101.313 -109.261
4025.4 555.878 318.529 -222.275 -179.305
4028.32 198.814 327.285 -214.328 -187.775
4031.24 227.163 153.598 -126.721 -181.824
4034.16 34.8162 168.346 -204.422 -79.0187
4037.08 243.057 187.933 94.0862 -46.8335
4039.99 285.926 227.819 -30.165 -50.9661
4042.91 154.474 136.974 -216.82 -84.0907
4045.83 -29.4775 153.702 -5.28767 -204.394
4048.75 336.108 283.794 -391.076 -155.695
4051.66 544.751 397.115 -70.7226 -221.409
4054.58 310.485 431.271 -202.428 -150.991
4057.5 438.576 305.609 -179.822 -134.262
4060.42 167.765 344.712 -20.5372 -71.7118
4063.33 427.796 320.568 -14.7759 -76.4239
4066.25 366.142 388.806 -193.959 -70.2843
4069.17 372.481 367.077 -2.1183 -89.8542
4072.09 362.608 255.485 -73.4855 -23.9271
4075 31.3671 270.293 3.82247 6.36708
4077.92 416.904 190.727 88.7643 -55.7947
4080.84 123.911 264.618 -259.971 -142.779
4083.76 253.039 186.156 -257.131 -192.634
4086.67 181.518 200.912 -60.7997 -60.4451
4089.59 168.18 142.645 136.596 -5.65717
4092.51 78.2385 186.82 -92.7675 81.7619
4095.42 314.042 156.054 201.457 68.1701
4098.34 75.881 296.512 95.8205 -3.47493
4101.26 499.612 239.502 -307.703 -74.9604
4104.17 143.013 317.75 -12.9989 -107.436
4107.09 310.624 225.758 -1.60779 -122.838
4110.01 223.638 243.85 -353.909 -226.905
4112.92 197.289 315.622 -325.199 -343.987
4115.84 525.94 301.543 -352.853 -319.048
4118.76 181.401 278.5 -279.092 -250.827
4121.67 128.16 193.364 -120.536 -187.453
4124.59 270.532 264.255 -162.732 -166.134
4127.5 394.072 432.885 -215.135 -156.524
4130.42 634.05 420.38 -91.7065 -122.522
4133.34 233.019 419.139 -60.7238 -105.402
4136.25 390.35 340.382 -163.775 -158.902
4139.17 397.777 375.558 -252.208 -187.771
4142.09 338.548 416.059 -147.331 -295.768
4145 511.852 398.314 -487.764 -229.847
4147.92 344.541 368.206 -54.4468 -230.957
4150.83 248.224 312.915 -150.661 -136.503
4153.75 345.98 346.252 -204.402 -144.832
4156.66 444.553 455.116 -79.4329 -113.445
4159.58 574.815 473.015 -56.4983 -42.0842
4162.5 399.675 432.536 9.67859 77.2214
4165.41 323.119 343.674 278.484 19.3712
4168.33 308.228 397.618 -230.049 -27.8201
4171.24 561.507 462.074 -131.895 -208.021
4174.16 516.487 527.62 -262.117 -125.859
4177.07 504.865 488.576 16.4353 -55.891
4179.99 444.376 398.015 78.009 -9.00433
4182.9 244.805 366.857 -121.457 -25.2757
4185.82 411.391 282.426 -32.3787 -112.648
4188.73 191.083 281.695 -184.107 -140.258
4191.65 242.612 288.112 -204.288 -201.447
4194.56 430.64 305.334 -215.947 -175.665
4197.48 242.75 419.23 -106.76 -73.4461
4200.39 584.301 391.825 102.369 35.1005
4203.31 348.425 481.059 109.692 92.8156
4206.22 510.449 422.401 66.3858 114.437
4209.14 408.328 548.123 167.233 67.5068
4212.05 725.591 531.866 -31.0989 8.5749
4214.97 461.679 565.926 -110.41 -132.165
4217.88 510.507 357.049 -254.986 -85.2648
4220.8 98.959 278.319 109.601 -99.4262
4223.71 225.49 215.152 -152.894 -142.203
4226.62 321.007 346.699 -383.315 -169.732
4229.54 493.599 460.985 27.012 -107.382
4232.45 568.348 435.315 34.1582 -21.4367
4235.37 243.997 422.211 -125.48 -28.1214
4238.28 454.288 321.634 6.95809 -7.24534
4241.2 266.617 416.089 96.7863 116.768
4244.11 527.362 419.903 246.56 130.95
4247.02 465.729 513.878 49.5049 28.1344
4249.94 548.543 517.528 -211.661 -69.4391
4252.85 538.313 627.923 -46.161 -117.614
4255.77 796.913 562.727 -95.0209 -100.223
4258.68 352.956 491.434 -159.487 -93.61
4261.59 324.433 336.993 -26.322 -123.596
4264.51 333.591 462.474 -184.979 -88.123
4267.42 729.397 503.466 -53.0678 -87.6704
4270.33 447.409 637.002 -24.9642 -86.1296
4273.25 734.199 612.277 -180.357 -169.726
4276.16 655.224 520.194 -303.856 -124.641
4279.07 171.159 473.513 110.291 -111.105
4281.99 594.157 460.6 -139.749 -78.6451
4284.9 616.485 373.076 -206.477 -101.808
4287.81 -91.4123 315.75 40.8031 -61.4959
4290.73 422.177 340.742 -18.8133 2.67775
4293.64 691.46 473.417 -13.9565 -115.388
4296.55 306.614 441.862 -313.394 -138.588
4299.47 327.51 330.407 -88.4142 -102.631
4302.38 357.095 297.382 93.9143 -17.7283
4305.29 207.539 354.916 -58.685 9.29629
4308.2 500.113 317.201 -7.34042 -112.424
4311.12 243.951 266.142 -271.247 -157.245
4314.03 54.3625 175.133 -193.147 -196.199
4316.94 227.085 165.195 -124.202 -142.661
4319.85 214.136 288.987 -110.634 -174.61
4322.77 425.74 248.349 -288.994 -180.902
4325.68 105.172 324.25 -143.078 -196.885
4328.59 441.837 268.125 -158.582 -187.242
4331.5 257.367 333.642 -260.065 -203.013
4334.42 301.721 215.331 -190.391 -216.112
4337.33 86.9034 297.538 -197.88 -119.425
4340.24 503.988 362.746 29.9955 -87.7542
4343.15 497.345 439.795 -95.378 -43.7364
4346.06 318.052 370.893 -65.8267 -97.1098
4348.98 297.281 397.733 -130.125 -115.018
4351.89 577.866 486.562 -149.104 -89.6382
4354.8 584.538 495.619 10.3141 -59.1127
4357.71 324.453 397.845 -38.5479 -10.7018
4360.62 284.544 313.75 -3.87167 -30.1511
4363.53 332.254 320.777 -48.0337 -58.4766
4366.45 345.532 381.189 -123.524 -121.584
4369.36 465.781 455.052 -193.195 -129.373
4372.27 553.843 582.3 -71.4001 -85.5508
4375.18 727.275 606.228 7.94308 -30.9613
4378.09 537.566 652.574 -29.4269 -40.1046
4381 692.88 587.458 -98.8299 -103.92
4383.91 531.929 518.271 -183.502 -109.546
4386.83 330.004 558.068 -46.3049 -98.4258
4389.74 812.27 519.006 -65.47 -47.822
4392.65 414.744 693.42 -31.6911 -43.7502
4395.56 853.245 616.227 -34.0894 -50.7453
4398.47 580.691 657.218 -86.4555 26.77
4401.38 537.719 528.693 200.855 47.5877
4404.29 467.669 410.226 28.3636 59.0044
4407.2 225.292 441.645 -52.2054 -39.3739
4410.11 631.975 461.165 -94.2799 -4.26845
4413.02 526.229 636.62 133.68 27.4531
4415.93 751.657 521.982 42.9594 73.5904
4418.84 288.06 473.678 44.1318 10.2494
4421.75 381.319 546.95 -56.3431 -51.3888
4424.66 971.472 637.132 -141.955 -117.824
4427.57 558.605 596.025 -155.174 -147.903
4430.48 257.999 463.072 -146.581 -90.0832
4433.4 572.614 377.359 31.5058 -58.8343
4436.31 301.466 535.277 -61.4277 24.791
4439.22 731.75 433.202 104.295 -27.7801
4442.13 266.39 543.591 -126.208 -91.8998
4445.04 632.634 570.181 -253.787 -213.743
4447.94 811.518 689.645 -261.235 -226.263
4450.85 624.784 766.063 -163.768 -54.2741
4453.76 861.887 653.734 262.181 23.0167
4456.67 474.531 742.511 -29.3625 47.7928
4459.58 891.115 751.858 -89.4396 16.5401
4462.49 889.929 805.537 168.422 -50.2954
4465.4 635.567 655.567 -229.869 -95.3579
4468.31 441.204 565.513 -224.627 -180.062
4471.22 619.767 676.774 -85.6888 -116.653
4474.13 969.35 705.159 -39.6425 -32.687
4477.04 526.36 677.544 27.2704 9.6837
4479.95 536.921 425.52 41.4233 25.3833
4482.86 213.28 536.733 7.45613 -94.7377
4485.77 860 507.51 -333.092 -91.7501
4488.68 449.252 644.668 50.3859 -61.4416
4491.58 624.752 662.315 98.3818 -55.3577
4494.49 912.94 747.64 -314.841 -63.7735
4497.4 705.228 706.188 25.1385 -126.018
4500.31 500.395 534.802 -88.3517 -202.746
4503.22 398.781 537.942 -545.025 -233.934
4506.13 714.65 612.667 -68.4259 -112.83
4509.04 724.569 675.13 274.962 146.682
4511.94 586.17 654.897 233.51 94.1404
4514.85 653.951 595.761 -226.051 -40.6625
4517.76 547.161 599.772 -129.447 -153.73
4520.67 598.204 539.645 -105.693 -36.2742
4523.58 473.568 544.038 126.317 39.0259
4526.49 560.342 450.226 96.4535 -80.2075
4529.39 316.767 567.383 -463.393 -128.099
4532.3 825.04 601.808 -17.3573 -207.083
4535.21 663.618 707.019 -140.5 -102.025
4538.12 632.399 637.69 -148.218 -153.902
4541.03 617.054 757.159 -172.988 -125.618
4543.93 1022.02 631.751 -55.6479 -84.9649
4546.84 256.175 561.558 -26.2592 -84.1033
4549.75 406.475 337.404 -170.403 -72.6368
4552.66 349.563 329.805 -21.2486 -46.1385
4555.56 233.377 298.185 53.2357 21.9005
4558.47 311.616 410.026 33.7143 -2.98107
4561.38 685.084 515.057 -95.8932 -67.9915
4564.28 548.471 592.211 -141.796 -151.819
4567.19 543.079 587.367 -217.768 -154.653
4570.1 670.553 555.834 -104.396 -182.947
4573.01 453.872 669.223 -226.676 -12.4261
4575.91 883.245 668.811 293.794 -59.0168
4578.82 669.316 755.914 -244.168 -38.1593
4581.73 715.182 625.247 -164.104 -168.95
4584.63 491.243 627.536 -98.5795 -53.7954
4587.54 676.185 585.709 101.297 -24.715
4590.45 589.698 558.576 -76.8625 -84.0429
4593.35 409.845 529.085 -276.563 -234.663
4596.26 587.711 529.327 -350.563 -197.957
4599.17 590.424 683.057 33.2564 -141.607
4602.07 871.037 643.597 -107.514 -30.8279
4604.98 469.328 765.664 -18.2257 -115.537
4607.88 956.628 798.653 -220.87 -143.548
4610.79 970.002 855.068 -191.548 -157.051
4613.7 638.574 776.641 -58.7342 -60.0711
4616.6 721.347 716.952 70.0688 -2.6058
4619.51 790.936 798.027 -19.1519 159.223
4622.41 881.799 799.486 426.753 139.926
4625.32 725.722 785.603 12.1759 78.3633
4628.23 749.288 732.343 -203.839 -97.2312
4631.13 722.018 726.301 -100.03 -47.8308
4634.04 707.596 638.823 160.377 48.1624
4636.94 486.855 716.596 84.1404 -8.45704
4639.85 955.337 629.012 -269.888 -21.7026
4642.75 444.845 741.616 120.64 -33.5877
4645.66 824.666 688.736 48.4852 151.259
4648.56 796.697 803.281 284.652 176.937
4651.47 788.482 769.247 197.673 102.755
4654.37 722.564 755.613 -174.059 72.3176
4657.28 755.792 706.12 193.338 53.3805
4660.18 640.004 644.735 140.862 26.7215
4663.09 538.409 598.278 -254.036 48.3698
4665.99 616.419 716.266 258.283 0.863042
4668.9 993.97 747.535 -1.65821 223.713
4671.8 632.217 758.789 414.514 82.4027
4674.71 650.18 635.139 -165.648 170.446
4677.61 623.021 650.425 262.471 64.7169
4680.52 678.075 591.57 97.3272 177.906
4683.42 473.612 623.312 173.919 148.505
4686.33 718.25 690.929 174.269 112.86
4689.23 880.926 784.48 -9.60894 15.9383
4692.13 754.264 841.838 -116.845 -148.878
4695.04 890.325 840.706 -320.181 -166.39
4697.94 877.528 833.169 -62.1432 -160.078
4700.85 731.654 808.173 -97.9114 -105.135
4703.75 815.336 724.77 -155.352 -103.695
4706.65 627.32 747.381 -57.8223 -18.0703
4709.56 799.489 731.907 158.963 8.8493
4712.46 768.912 802.01 -74.5929 -33.6799
4715.37 837.63 879.044 -185.41 -77.8571
4718.27 1030.59 1000.92 26.4315 -194.689
4721.17 1134.55 1095.68 -425.089 -281.78
4724.08 1121.89 988.213 -446.683 -270.366
4726.98 708.198 845.606 60.6739 24.7078
4729.88 706.729 760.955 460.133 206.585
4732.79 867.937 795.821 98.9482 259.237
4735.69 812.797 843.213 218.631 102.163
4738.59 848.904 827.517 -11.0894 99.8349
4741.49 820.849 690.517 91.9628 62.0705
4744.4 401.799 638.926 105.338 159.07
4747.3 694.13 570.62 279.911 255.631
4750.2 615.932 692.606 381.643 260.306
4753.11 767.756 717.871 119.365 140.963
4756.01 769.924 828.541 -78.1199 1.82074
4758.91 947.942 785.524 -35.7834 -58.055
4761.81 638.705 824.069 -60.2619 -106.775
4764.72 885.558 694.538 -224.28 -163.636
4767.62 559.35 728.487 -206.366 -86.2699
4770.52 740.552 668.147 171.836 -28.282
4773.42 704.539 840.688 -50.3166 -94.0604
4776.32 1076.97 825.397 -403.701 -153.238
4779.23 694.68 799.879 -5.69708 -79.8603
4782.13 627.984 670.255 169.817 29.1844
4785.03 688.1 622.824 -76.5669 115.79
4787.93 552.389 670.885 254.12 -38.3747
4790.83 772.167 794.739 -292.678 30.3577
4793.74 1059.66 759.051 129.63 -5.29921
4796.64 445.323 676.318 147.15 165.207
4799.54 523.971 555.605 218.841 34.6188
4802.44 697.522 514.534 -262.135 -7.1731
4805.34 322.11 451.362 21.7741 -79.948
4808.24 334.452 426.341 0.516475 -117.15
4811.14 622.461 468.382 -373.741 -308.086
4814.04 448.234 611.898 -551.034 -299.14
4816.95 764.999 581.624 27.3547 -276.083
4819.85 531.638 696.599 -304.568 -155.274
4822.75 793.159 706.408 -188.608 -344.173
4825.65 794.426 700.502 -539.342 -98.9051
4828.55 513.922 548.438 431.235 -13.5738
4831.45 336.966 370.376 67.386 255.423
4834.35 260.242 281.414 267.647 205.645
4837.25 247.035 247.379 281.901 245.334
4840.15 234.861 308.326 186.452 164.649
4843.05 443.083 373.783 25.595 76.0017
4845.95 443.404 362.663 15.9579 -91.4811
4848.85 201.502 353.61 -315.996 -207.854
4851.75 415.924 279.503 -323.524 -261.698
4854.65 221.084 468.479 -145.573 -174.91
4857.55 768.43 523.233 -55.634 15.8018
4860.45 580.186 619.877 248.613 -9.86613
4863.35 511.017 551.957 -222.577 47.7908
4866.25 564.668 620.483 117.337 51.749
4869.15 785.763 634.454 260.487 211.552
4872.05 552.931 793.148 256.832 205.369
4874.95 1040.75 723.871 98.7864 271.959
4877.85 577.933 802.688 460.258 148.902
4880.75 789.383 758.761 -112.337 170.588
4883.65 908.968 838.668 163.844 -31.7677
4886.55 817.651 817.092 -146.81 40.547
4889.45 724.658 882.942 104.607 -65.7365
4892.35 1106.52 950.192 -155.006 46.7201
4895.24 1019.4 1048.27 190.56 48.6154
4898.14 1018.9 1044.54 110.293 205.363
4901.04 1095.32 1054.23 315.236 156.647
4903.94 1048.48 1064.26 44.412 207.963
4906.84 1048.99 931.309 264.241 194.031
4909.74 696.457 888.328 273.44 259.624
4912.64 919.532 777.065 241.19 189.899
4915.53 715.207 1002.41 55.0667 126.064
4918.43 1372.48 1059.04 81.934 141.768
4921.33 1089.43 1154.87 288.302 192.27
4924.23 1002.71 1058.59 206.573 288.32
4927.13 1083.64 995.989 370.086 297.384
4930.03 901.624 950.11 315.492 296.227
4932.92 865.071 946.828 203.103 204.627
4935.82 1073.79 966.249 95.2841 163.709
4938.72 959.889 1082.63 192.741 79.302
4941.62 1214.22 1122.5 -50.1194 116.983
4944.51 1193.4 1144.16 208.326 131.155
4947.41 1024.87 1110.28 235.26 142.395
4950.31 1112.59 1119.23 -16.4015 123.822
4953.21 1220.24 1281.89 152.607 56.3999
4956.1 1512.86 1195.57 32.994 -6.17195
4959 853.602 1171.55 -204.117 -3.27758
4961.9 1148.2 1036.95 161.29 29.8298
4964.8 1109.04 1046.29 132.316 150.072
4967.69 881.647 969.719 156.61 183.639
4970.59 918.472 927.095 261.99 235.276
4973.49 981.165 1069.46 287.228 208.649
4976.38 1308.75 1018.02 76.727 184.096
4979.28 764.147 950.838 188.333 183.885
4982.18 779.611 825.934 286.596 295.341
4985.07 934.042 927.243 411.095 301.63
4987.97 1068.08 916.021 207.199 244.808
4990.87 745.946 922.778 116.129 99.7712
4993.76 954.312 893.867 -24.0144 49.9191
4996.66 981.342 993.915 57.6431 239.744
4999.55 1046.09 952.985 685.602 262.286
5002.45 831.522 1012.76 43.613 306.141
5005.35 1160.67 1006.21 189.207 147.043
5008.24 1026.45 1009.69 208.31 130.645
5011.14 841.945 875.658 -5.58159 -1.1009
5014.03 758.58 795.233 -206.031 14.7256
5016.93 785.173 878.795 255.79 60.6627
5019.82 1092.63 824.849 132.23 177.357
5022.72 596.742 839.914 144.051 130.224
5025.61 830.369 695.735 114.393 99.904
5028.51 660.094 751.185 41.2684 43.9264
5031.4 763.092 769.105 -23.8818 15.482
5034.3 884.128 817.729 29.0593 23.6745
5037.19 805.967 763.811 65.846 148.648
5040.09 601.34 628.82 351.04 118.907
5042.98 479.154 663.715 -60.1658 135.931
5045.88 910.651 737.543 116.917 33.7687
5048.77 822.825 835.227 44.5549 38.3424
5051.67 772.204 813.065 -46.4449 113.535
5054.56 844.165 807.553 342.495 146.812
5057.46 806.291 800.81 144.386 182.646
5060.35 751.975 805.904 61.0565 -2.97565
5063.25 859.448 800.639 -214.37 61.9428
5066.14 790.494 859.024 339.142 7.49049
5069.03 927.131 844.448 -102.3 140.153
5071.93 815.718 829.546 183.619 111.616
5074.82 745.789 922.98 253.529 252.665
5077.72 1207.43 952.185 320.845 332.649
5080.61 903.332 1003.9 423.573 274.154
5083.5 900.923 883.331 78.0447 347.041
5086.4 845.738 887.324 539.504 327.434
5089.29 915.311 901.879 364.753 311.026
5092.18 944.588 809.468 28.823 138.637
5095.08 568.504 834.628 22.3357 74.6433
5097.97 990.791 810.547 172.771 134.338
5100.86 872.345 887.226 207.906 113.749
5103.76 798.541 849.372 -39.4301 218.539
5106.65 877.231 906.05 487.14 238.374
5109.54 1042.38 996.614 267.412 337.482
5112.44 1070.23 962.928 257.894 269.3
5115.33 776.173 918.848 282.594 179.339
5118.22 910.136 816.012 -2.47107 182.329
5121.11 761.726 750.485 266.865 95.8195
5124.01 579.592 785.161 23.0651 83.7056
5126.9 1014.16 841.31 -38.813 26.0481
5129.79 930.174 970.086 93.892 -15.9098
5132.68 965.921 917.855 -102.808 24.5993
5135.57 857.469 865.477 82.7143 112.269
5138.47 773.041 850.056 356.902 290.302
5141.36 919.658 840.894 431.288 294.633
5144.25 829.983 850.181 95.7084 224.756
5147.14 800.903 813.517 147.27 153.007
5150.03 809.665 896.504 216.042 185.029
5152.93 1078.94 837.952 191.774 181.055
5155.82 625.248 811.932 135.349 155.463
5158.71 731.605 748.378 139.266 42.5507
5161.6 888.281 742.804 -146.962 -0.9944
5164.49 608.527 773.976 4.71328 -12.5241
5167.38 825.122 724.095 104.677 97.5744
5170.27 738.636 597.409 183.333 238.693
5173.16 228.468 616.37 428.07 213.72
5176.05 882.007 623.75 29.7561 120.405
5178.95 760.775 713.33 -96.61 28.7501
5181.84 497.209 648.622 153.104 -7.05101
5184.73 687.882 633.453 -77.6472 85.2798
5187.62 715.269 658.97 180.382 39.7871
5190.51 573.758 803.77 16.6261 70.8479
5193.4 1122.28 839.456 15.5351 73.6196
5196.29 822.328 903.114 188.697 112.5
5199.18 764.731 667.091 133.266 158.648
5202.07 414.213 615.543 153.982 85.7267
5204.96 667.685 732.48 -30.0679 77.4449
5207.85 1115.54 885.55 108.421 132.525
5210.74 873.424 920.196 319.221 229.195
5213.63 771.623 796.735 259.942 216.785
5216.52 745.158 846.012 71.1913 197.702
5219.41 1021.25 902.316 261.971 233.329
5222.3 940.535 1012.4 366.823 222.532
5225.19 1075.42 983.876 38.8011 55.0068
5228.07 935.673 1005.14 -240.604 20.3219
5230.96 1004.34 984.883 262.768 96.8897
5233.85 1014.64 909.462 268.504 186.283
5236.74 709.411 798.789 27.5777 175.153
5239.63 672.317 755.879 229.377 63.179
5242.52 885.908 823.887 -67.4175 58.6303
5245.41 913.437 908.72 13.9315 11.781
5248.3 926.815 925.705 88.829 142.12
5251.19 936.865 966.621 323.599 224.377
5254.07 1036.18 953.07 260.703 294.146
5256.96 886.164 990.388 298.135 254.133
5259.85 1048.82 1092.34 203.563 266.478
5262.74 1342.03 1096.72 297.735 253.258
5265.63 899.319 1086.35 258.477 336.857
5268.51 1017.69 998.263 454.36 278.689
5271.4 1077.78 1155.23 123.231 250.621
5274.29 1370.22 1237.23 174.272 17.6701
5277.18 1263.7 1272.24 -244.493 -36.1993
5280.07 1182.79 1185.47 -38.3771 -38.2945
5282.95 1109.91 1156.27 167.986 193.08
5285.84 1176.12 1037.11 449.631 357.169
5288.73 825.293 1009.88 453.89 388.067
5291.62 1028.22 1108.16 260.679 247.319
5294.5 1470.96 1235.24 27.3882 108.466
5297.39 1206.55 1297.45 37.3313 154.013
5300.28 1214.86 1134.43 397.318 132.24
5303.16 981.876 1128.71 -37.9298 196.847
5306.05 1189.41 1142.26 231.152 81.7216
5308.94 1255.51 1147.19 51.9423 155.982
5311.82 996.66 1043.34 184.852 57.7708
5314.71 877.842 939.387 -63.4821 105.022
5317.6 943.66 810.435 193.695 99.7603
5320.48 609.802 839.027 169.068 127.996
5323.37 963.62 754.589 21.2261 131.73
5326.25 690.346 891.679 204.898 -25.416
5329.14 1021.07 978.644 -302.372 71.9644
5332.03 1224.52 1049.34 313.367 64.9245
5334.91 902.441 1105.18 183.778 218.578
5337.8 1188.59 1123.43 158.589 108.804
5340.68 1279.24 1117.6 -15.9563 172.008
5343.57 884.954 982.492 373.392 209.7
5346.45 783.279 943.828 271.664 367.488
5349.34 1163.25 964.257 457.407 287.628
5352.22 946.24 1016.14 133.813 268.991
5355.11 938.935 1016.32 215.753 149.071
5358 1163.8 1035.77 97.646 275.264
5360.88 1004.57 955.228 512.392 216.477
5363.76 697.321 822.993 39.3914 189.386
5366.65 767.091 848.257 16.3729 56.8012
5369.53 1080.36 993.205 114.639 100.909
5372.42 1132.17 1160.29 171.716 164.895
5375.3 1268.36 1132.55 208.329 110.554
5378.19 997.136 1165.83 -48.3818 191.633
5381.07 1232 1107.93 414.952 196.947
5383.96 1094.65 1111.32 224.272 317.242
5386.84 1007.32 1005.39 312.502 115.933
5389.72 914.194 949.399 -188.975 103.31
5392.61 926.686 846.376 186.403 90.4696
5395.49 698.249 819.311 273.981 108.697
5398.38 832.999 798.769 -134.292 189.988
5401.26 865.06 904.439 430.274 131.612
5404.14 1015.26 1042.14 98.8522 246.905
5407.03 1246.09 1121.61 211.588 163.977
5409.91 1103.49 1138.4 181.489 279.355
5412.79 1065.6 1092.59 444.989 293.773
5415.68 1108.67 1054.44 254.842 323.868
5418.56 989.054 1104.47 271.775 228.51
5421.44 1215.68 1038.8 158.914 166.662
5424.32 911.678 924.757 69.2976 144.456
5427.21 646.913 801.157 205.157 136.984
5430.09 844.879 786.856 136.497 245.84
5432.97 868.777 935.513 395.864 195.584
5435.85 1092.88 912.211 54.3914 288.14
5438.74 774.972 827.121 414.166 225.571
5441.62 613.508 845.498 208.156 256.05
5444.5 1148.01 927.089 145.829 223.201
5447.38 1019.75 1061.34 315.618 252.89
5450.27 1016.25 1067.39 297.225 173.924
5453.15 1166.17 980.2 -91.0693 120.933
5456.03 758.182 990.24 156.643 84.1517
5458.91 1046.37 909.426 186.881 113.291
5461.79 923.727 1017.11 -3.65172 124.964
5464.67 1081.24 985.067 191.663 76.1672
5467.55 950.23 1049.13 40.4899 222.656
5470.44 1115.9 980.441 435.816 78.0708
5473.32 875.19 1038.16 -242.093 117.345
5476.2 1123.39 935.016 158.313 71.8862
5479.08 806.471 986.446 299.439 174.635
5481.96 1029.48 955.094 66.1523 260.094
5484.84 1029.33 828.299 414.691 120.39
5487.72 426.086 842.46 -119.672 164.787
5490.6 1071.96 855.119 199.343 166.677
5493.48 1067.31 1044.29 420.361 324.997
5496.36 993.597 982.645 355.287 340.278
5499.24 887.03 1031.43 245.186 273.463
5502.12 1213.66 1083.95 219.917 249.06
5505 1151.16 1040.42 282.078 281.557
5507.88 756.432 1029.06 342.676 221.017
5510.76 1179.58 952.524 38.2985 214.07
5513.64 921.561 1103.22 261.236 200.178
5516.52 1208.51 1064.38 300.999 203.034
5519.4 1063.06 1140.63 46.8657 170.563
5522.28 1150.31 1059.65 163.823 86.0436
5525.16 965.59 1067.04 47.4418 130.568
5528.04 1085.22 977.163 180.439 86.7765
5530.92 880.678 1030.03 32.4485 95.3225
5533.8 1124.2 1071.24 73.0798 9.35671
5536.68 1208.86 1105.72 -77.4582 84.425
5539.55 984.102 1007.43 257.653 72.5221
5542.43 829.328 826.7 37.3711 224.403
5545.31 666.669 848.339 378.183 268.811
5548.19 1049.02 942.992 390.878 277.557
5551.07 1113.29 1006.82 63.6083 207.202
5553.95 858.155 930.956 167.121 162.943
5556.82 821.424 907.802 258.099 306.727
5559.7 1043.83 938.356 494.961 303.556
5562.58 949.817 966.219 157.607 363.363
5565.46 905.012 833.543 437.521 230.221
5568.34 645.799 831.677 95.5349 163.152
5571.21 944.222 799.283 -43.6006 320.961
5574.09 807.828 931.362 910.95 272.904
5576.97 1042.03 986.693 -48.6387 408.467
5579.85 1110.22 988.04 363.089 87.7516
5582.72 811.869 927.052 -51.1951 197.436
5585.6 859.069 802.908 280.415 109.521
5588.48 737.785 820.876 99.3433 220.421
5591.35 865.776 787.694 281.506 194.962
5594.23 759.521 850.804 204.038 254.713
5597.11 927.116 851.369 278.595 382.284
5599.98 867.469 950.729 664.22 343.66
5602.86 1057.6 934.6 88.1649 299.747
5605.74 878.73 939.799 146.856 128.662
5608.61 883.065 895.396 150.965 135.665
5611.49 924.392 802.349 109.174 118.585
5614.37 599.59 784.037 95.6149 163.571
5617.24 828.13 849.494 285.922 177.632
5620.12 1120.76 864.207 151.358 220.171
5622.99 643.728 974.947 223.234 145.094
5625.87 1160.35 951.912 60.6905 195.887
5628.74 1051.66 1008.1 303.737 223.542
5631.62 812.294 922.751 306.199 334.439
5634.49 904.301 829.322 393.382 347.375
5637.37 771.37 954.661 342.545 387.799
5640.24 1188.31 908.863 427.47 269.651
5643.12 766.906 901.477 38.9378 131.544
5645.99 749.213 857.257 -71.7758 64.8525
5648.87 1055.65 958.691 227.396 192.939
5651.74 1071.21 1039.8 423.197 367.046
5654.62 992.553 1034.5 450.545 362.572
5657.49 1039.73 997.268 213.973 250.473
5660.37 959.52 946.061 86.899 247.691
5663.24 838.932 929.46 442.201 267.83
5666.12 989.929 955.811 274.389 218.465
5668.99 1038.57 935.231 -61.1959 99.9587
5671.86 777.192 867.988 86.6829 130.636
5674.74 788.199 906.075 366.421 260.023
5677.61 1152.83 1010.11 326.966 295.358
5680.48 1089.29 1096.15 192.688 192.769
5683.36 1046.33 1028.63 58.6532 170.692
5686.23 950.266 918.427 260.735 165.085
5689.1 758.681 915.616 175.868 173.434
5691.98 1037.9 956.853 83.6979 120.893
5694.85 1073.98 1027.41 103.113 43.703
5697.72 970.359 1005.17 -55.7023 126.133
5700.6 971.183 999.585 330.988 59.589
5703.47 1057.21 1026.81 -96.5186 154.732
5706.34 1052.02 1150.16 229.727 71.0132
5709.21 1341.24 1105.76 79.8308 233.63
5712.09 924.011 1031.99 391.332 176.178
5714.96 830.729 1028.18 57.3719 250.555
5717.83 1329.8 1069.13 302.963 182.292
5720.7 1046.85 1076.47 186.542 240.398
5723.57 852.744 949.803 231.689 259.685
5726.45 949.817 979.408 360.825 283.252
5729.32 1135.66 998.813 257.243 224.916
5732.19 910.958 914.513 56.6799 153.135
5735.06 696.916 867.479 145.482 39.1287
5737.93 994.561 884.468 -84.7755 111.434
5740.8 961.927 933.124 273.596 -4.85096
5743.67 842.884 991.883 -203.373 160.296
5746.54 1170.84 924.804 410.665 161.363
5749.42 760.69 974.458 276.796 417.446
5752.29 991.845 902.28 564.876 351.982
5755.16 954.304 978.137 214.274 348.074
5758.03 988.261 887.432 265.073 381.543
5760.9 719.731 778.273 665.283 464.603
5763.77 626.827 800.21 463.452 370.508
5766.64 1054.07 860.157 -17.2106 214.092
5769.51 899.57 988.318 196.035 128.835
5772.38 1011.31 1036.69 207.681 135.371
5775.25 1199.18 1031.83 2.39579 68.1546
5778.12 884.988 1022.96 -5.61258 105.381
5780.99 984.71 1021.8 319.361 206.951
5783.86 1195.7 1005.41 307.103 243.333
5786.73 835.824 1016.77 103.534 160.253
5789.6 1018.79 943.895 70.1203 91.8304
5792.46 977.075 1056.87 101.837 34.8013
5795.33 1174.76 1133.13 -67.5535 106.757
5798.2 1247.55 1034.56 285.988 131.876
5801.07 681.385 944.617 177.194 211.704
5803.94 904.918 850.146 171.929 181.12
5806.81 964.135 940.91 194.238 187.482
5809.68 953.676 921.339 196.28 102.885
5812.55 846.207 941.323 -81.8633 82.5033
5815.41 1024.09 980.434 133.093 89.4503
5818.28 1071.01 937.135 217.121 168.765
5821.15 716.31 999.979 156.082 216.143
5824.02 1212.62 920.647 275.226 236.002
5826.89 833.013 1039.14 276.698 332.127
5829.75 1071.8 868.942 444.458 396.684
5832.62 702.016 875.954 468.895 238.645
5835.49 854.047 829.271 -197.419 153.337
5838.36 931.751 962.487 188.534 80.6825
5841.22 1101.66 941.58 250.933 185.748
5844.09 791.328 892.251 117.776 220.026
5846.96 783.763 780.225 291.371 223.19
5849.82 765.583 807.442 260.424 249.87
5852.69 872.98 827.773 197.814 232.591
5855.56 844.757 799.619 239.535 254.373
5858.42 681.121 815.094 325.771 196.37
5861.29 919.405 829.283 23.8032 168.965
5864.16 887.325 787.708 157.321 177.918
5867.02 556.394 799.065 352.631 273.792
5869.89 953.476 797.764 311.422 288.528
5872.75 883.421 979.093 201.531 221.533
5875.62 1100.38 973.486 151.645 270.136
5878.49 936.654 1029.96 457.232 216.394
5881.35 1052.85 929.926 40.305 208.998
5884.22 800.271 889.928 129.456 58.9391
5887.08 816.661 833.08 7.05607 116.459
5889.95 882.31 813.439 212.864 166.71
5892.81 741.346 849.672 280.209 176.114
5895.68 925.361 784.495 35.2684 168.811
5898.54 686.777 787.184 190.955 231.028
5901.41 749.414 698.769 466.861 269.728
5904.27 660.117 736.993 151.369 238.006
5907.13 801.448 832.586 95.7865 127.395
5910 1036.19 997.86 135.029 84.5017
5912.86 1155.94 1016.45 22.6894 168.652
5915.73 857.212 1025.66 348.238 192.81
5918.59 1063.82 866.532 207.503 311.293
5921.46 678.564 850.294 378.137 188.09
5924.32 808.497 860.211 -21.3707 199.466
5927.18 1093.57 884.688 241.632 212.073
5930.05 751.996 1027.55 415.958 297.982
5932.91 1237.08 927.345 236.354 331.983
5935.77 792.962 917.877 343.637 354.691
5938.64 723.593 786.131 484.08 360.866
5941.5 841.839 770.617 254.881 289.854
5944.36 746.419 893.967 130.601 183.236
5947.22 1093.64 924.869 164.225 100.522
5950.09 934.543 958.639 6.74075 140.848
5952.95 847.73 847.11 251.579 156.181
5955.81 759.058 897.114 210.222 213.178
5958.67 1084.55 938.644 177.734 210.6
5961.54 972.32 948.885 243.843 163.042
5964.4 789.781 935.848 67.5491 68.6045
5967.26 1045.44 986.112 -105.579 28.649
5970.12 1123.11 1074.09 123.977 58.8563
5972.98 1053.71 968.441 158.171 81.8564
5975.84 728.505 913.691 -36.5789 155.535
5978.71 958.862 871.892 345.013 114.293
5981.57 928.309 894.833 34.4446 164.79
5984.43 797.328 906.761 114.912 167.951
5987.29 994.645 797.276 354.495 247.802
5990.15 599.854 785.074 273.999 267.753
5993.01 760.722 732.666 174.763 163.018
5995.87 837.423 861.542 40.2921 118.779
5998.73 986.481 841.617 141.28 97.0737
6001.59 700.946 942.128 109.649 163.083
6004.45 1138.95 907.959 238.319 183.195
6007.31 883.976 910.043 201.618 184.45
6010.17 707.199 819.104 113.411 225.804
6013.03 866.136 849.931 362.383 178.092
6015.89 976.458 922.028 58.4814 200.438
6018.75 923.492 959.854 180.451 136.632
6021.61 979.613 972.052 170.965 197.762
6024.47 1013.05 978.715 241.872 211.112
6027.33 943.482 912.983 220.501 237.932
6030.19 782.414 814.939 251.422 174.579
6033.05 718.919 824.272 51.8125 199.323
6035.91 971.481 865.028 294.733 277.094
6038.77 904.682 940.045 484.736 246.105
6041.63 943.973 895.51 -41.1519 207.065
6044.48 837.874 919.855 177.612 161.048
6047.34 977.717 915.988 346.683 263.193
6050.2 932.374 853.712 265.283 282.09
6053.06 651.044 840.349 234.303 246.431
6055.92 937.629 782.701 239.707 214.072
6058.77 759.428 826.988 168.206 222.278
6061.63 783.907 769.218 258.921 196.542
6064.49 764.318 820.003 162.5 257.536
6067.35 911.783 887.214 351.187 231.643
6070.2 985.541 937.15 181.243 285.179
6073.06 914.126 863.757 323.107 248.893
6075.92 691.604 808.697 242.329 247.935
6078.78 820.362 785.062 178.369 242.575
6081.63 843.218 822.228 307.028 228.285
6084.49 803.105 812.7 199.458 216.02
6087.35 791.777 811.695 141.575 151.409
6090.2 840.203 768.52 113.195 183.025
6093.06 673.58 775.091 294.305 221.36
6095.91 811.491 791.538 256.581 356.594
6098.77 889.545 793.936 518.897 363.317
6101.63 680.774 801.101 314.472 353.975
6104.48 832.983 781.105 228.555 239.636
6107.34 829.557 851.692 175.881 174.975
6110.19 892.536 798.929 120.487 161.739
6113.05 674.692 804.302 188.849 165.084
6115.9 845.678 697.82 185.916 113.36
6118.76 573.089 711.003 -34.6847 151.331
6121.61 714.243 803.574 302.761 98.7176
6124.47 1123.39 879.561 28.0771 189.363
6127.32 801.05 863.362 237.25 116.102
6130.18 665.645 792.479 82.9787 139.699
6133.03 910.743 858.782 98.8671 121.212
6135.89 999.957 893.268 181.79 133.789
6138.74 769.106 866.223 120.711 116.307
6141.6 829.606 745.143 46.4216 93.9577
6144.45 636.717 798.6 114.741 173.527
6147.3 929.476 830.635 359.418 191.729
6150.16 925.711 854.315 101.027 222.962
6153.01 707.758 842.227 208.441 89.4939
6155.86 893.212 793.883 -40.9865 208.865
6158.72 780.678 879.364 459.139 178.166
6161.57 964.203 957.395 116.344 271.254
6164.42 1127.3 1004.56 238.279 253.97
6167.28 922.184 1016.91 407.286 188.92
6170.13 1001.25 924.705 -78.8065 158.585
6172.98 850.683 873.476 147.274 88.0994
6175.84 768.498 757.125 195.83 185.218
6178.69 652.195 718.755 212.55 193.209
6181.54 735.573 794.474 171.245 154.171
6184.39 995.654 815.554 78.7168 209.095
6187.24 715.435 873.621 377.323 225.496
6190.1 909.776 818.853 220.447 347.067
6192.95 831.348 928.92 443.431 307.523
6195.8 1045.64 900.48 258.691 378.581
6198.65 824.458 985.436 433.62 344.034
6201.5 1086.22 942.074 339.79 372.942
6204.35 915.549 880.938 345.417 268.116
6207.2 641.05 767.167 119.141 262.439
6210.05 744.901 743.74 322.759 305.111
6212.91 845.267 768.22 473.434 376.592
6215.76 714.492 779.75 333.584 334.545
6218.61 779.491 811.526 196.618 232.832
6221.46 940.596 856.185 168.296 219.085
6224.31 848.469 862.428 292.341 187.362
6227.16 798.218 780.091 101.449 212.618
6230.01 693.587 768.455 244.063 168.94
6232.86 813.559 689.698 161.307 273.506
6235.71 561.946 763.307 415.149 271.151
6238.56 914.415 812.842 236.998 278.997
6241.41 962.166 963.383 184.844 267.496
6244.25 1013.57 959.936 380.645 323.329
6247.1 904.076 972.244 404.498 330.018
6249.95 999.088 875.253 204.912 295.823
6252.8 722.595 841.594 278.06 166.122
6255.65 803.099 814.975 15.3928 246.986
6258.5 919.232 793.747 447.506 254.233
6261.35 658.912 864.878 299.798 302.514
6264.2 1016.49 797.748 160.239 223.909
6267.04 717.841 850.983 211.69 196.051
6269.89 818.618 764.065 216.224 155.882
6272.74 755.736 914.932 39.731 129.173
6275.59 1170.44 908.577 131.565 176.22
6278.44 799.553 969.846 357.364 261.79
6281.28 939.542 835.382 296.441 238.969
6284.13 767.052 913.376 63.1034 245.496
6286.98 1033.53 846.863 376.944 175.676
6289.82 740.003 968.49 86.9803 215.199
6292.67 1131.93 1002.57 181.673 285.571
6295.52 1135.78 1055.91 588.059 322.22
6298.36 900.02 1048.81 196.927 367.207
6301.21 1110.63 955.938 316.635 168.71
6304.06 857.16 909.199 -7.43205 180.436
6306.9 759.805 943.252 232.106 115.056
6309.75 1212.79 914.557 120.496 180.975
6312.6 771.073 889.693 190.322 138.672
6315.44 685.215 747.122 105.197 186.347
6318.29 785.077 817.966 263.523 228.546
6321.13 983.607 770.563 316.919 196.448
6323.98 543.005 715.809 8.90244 172.898
6326.82 620.815 689.112 192.874 120.819
6329.67 903.516 734.558 160.681 136.476
6332.51 679.344 755.419 55.8723 110.896
6335.36 683.398 795.304 116.134 143.577
6338.2 1023.17 856.056 258.725 73.0166
6341.05 861.598 943.267 -155.809 70.4472
6343.89 945.034 756.088 108.426 27.1898
6346.74 461.634 795.853 128.952 127.079
6349.58 980.892 759.677 143.858 184.811
6352.42 836.506 924.059 281.623 297.532
6355.27 954.778 842.762 467.114 306.711
6358.11 737.001 772.795 171.396 301.884
6360.95 626.606 806.367 267.141 252.715
6363.8 1055.49 840.434 319.607 274.518
6366.64 839.2 876.336 236.806 277.314
6369.48 734.313 824.331 275.528 291.02
6372.33 899.479 775.201 360.727 250.178
6375.17 691.811 801.812 114.278 198.916
6378.01 814.147 752.759 121.744 179.109
6380.86 752.32 733.379 301.303 206.888
6383.7 633.671 656.48 197.615 283.673
6386.54 583.449 665.529 352.102 199.046
6389.38 779.468 628.476 47.4224 216.096
6392.22 522.512 718.29 248.764 199.943
6395.07 852.891 657.988 303.643 186.229
6397.91 598.56 811.671 6.2798 158.968
6400.75 983.562 834.764 166.982 79.7685
6403.59 922.171 917.547 66.0433 142.103
6406.43 846.908 787.045 193.282 63.3038
6409.27 592.056 718.765 -69.414 115.606
6412.11 717.33 688.083 222.949 73.44
6414.95 754.864 692.85 66.7848 139.896
6417.79 606.358 650.271 129.955 102.572
6420.64 589.592 642.712 110.976 112.459
6423.48 732.186 624.967 96.4455 140.132
6426.32 553.124 656.969 212.974 108.049
6429.16 685.598 618.676 14.7263 37.6922
6432 617.307 711.139 -114.624 77.7244
6434.84 830.511 681.719 333.071 100.521
6437.67 597.34 560.532 83.1173 234.142
6440.51 253.745 482.085 286.237 167.889
6443.35 595.169 447.883 134.311 207.443
6446.19 494.735 506.408 201.781 123.348
6449.03 429.32 453.51 33.9514 132.514
6451.87 436.475 441.741 161.81 111.476
6454.71 459.428 559.63 138.666 159.91
6457.55 782.987 533.853 179.254 190.38
6460.39 359.145 549.874 253.219 96.7951
6463.22 507.49 472.266 -142.088 67.2457
6466.06 550.161 535.492 90.6059 -55.9525
6468.9 548.825 605.282 -116.375 -43.5355
6471.74 716.859 585.015 -104.837 -71.9615
6474.58 489.361 517.924 5.32793 -33.6953
6477.41 347.553 467.099 -1.5766 17.2263
6480.25 564.385 562.217 47.9276 -24.31
6483.09 774.714 634.006 -119.281 -44.1511
6485.93 562.918 642.785 -61.0999 -0.346628
6488.76 590.721 533.416 179.341 132.94
6491.6 446.608 480.554 280.578 214
6494.44 404.334 385.14 182.08 213.815
6497.27 304.478 413.328 178.787 172.331
6500.11 531.171 460.324 156.127 67.3838
6502.94 545.324 526.598 -132.763 101.567
6505.78 503.297 476.328 281.337 60.6047
6508.62 380.364 430.312 33.2401 152.096
6511.45 407.275 465.974 141.711 167.948
6514.29 610.282 505.799 328.894 194.343
6517.12 499.838 507.004 112.424 196.217
6519.96 410.891 496.892 147.332 106.768
6522.79 579.946 497.247 60.5471 159.055
6525.63 500.904 548.288 269.284 212.961
6528.46 564.012 510.752 309.052 285.213
6531.3 467.339 549.176 277.303 222.426
6534.13 616.178 590.216 80.9221 176.25
6536.97 687.13 665.96 170.525 130.782
6539.8 694.571 672.583 140.899 121.407
6542.63 636.049 686.748 52.7973 144.526
6545.47 729.626 596.186 239.881 161.887
6548.3 422.882 627.897 192.984 199.382
6551.14 731.184 646.248 165.281 201.884
6553.97 784.679 736.716 247.386 240.543
6556.8 694.287 772.984 308.962 246.729
6559.64 839.987 773.077 183.837 191.325
6562.47 784.956 828.413 81.1753 202.802
6565.3 860.295 865.099 343.395 190.451
6568.13 950.045 992.112 146.784 207.696
6570.97 1166 1130.65 132.91 157.338
6573.8 1275.9 1145.54 192.32 184.816
6576.63 994.713 1171.54 229.216 277.517
6579.46 1244 1111.49 411.014 355.725
6582.29 1095.77 1183.55 426.943 437.933
6585.13 1210.88 1124.2 475.841 403.58
6587.96 1065.96 1149.48 307.955 395.838
6590.79 1171.6 1143.59 403.718 365.594
6593.62 1193.22 1195.83 385.108 376.206
6596.45 1222.67 1252.73 339.792 342.314
6599.28 1342.3 1268.4 302.041 339.731
6602.11 1240.22 1344.55 377.36 311.926
6604.94 1451.14 1339.35 256.378 389.54
6607.77 1326.69 1436.31 534.882 430.566
6610.61 1531.09 1428.5 500.437 454.693
6613.44 1427.7 1529.44 328.76 471.349
6616.27 1629.53 1584.92 584.851 435.158
6619.1 1697.53 1598.96 391.862 522.232
6621.92 1469.83 1505.55 589.984 462.979
6624.75 1349.3 1435.92 407.092 471.878
6627.58 1488.64 1469.13 418.557 433.224
6630.41 1569.44 1534.23 474.022 483.999
6633.24 1544.61 1487.85 559.418 493.352
6636.07 1349.49 1469.66 446.616 455.405
6638.9 1514.9 1412.49 360.18 432.887
6641.73 1373.1 1406.46 491.864 488.602
6644.56 1331.39 1482.33 613.761 508.98
6647.38 1742.5 1570.1 421.315 479.958
6650.21 1636.4 1723.11 404.797 483.16
6653.04 1790.41 1722.03 623.367 517.06
6655.87 1739.28 1588.21 523.016 568.3
6658.7 1234.93 1433.79 558.516 504.217
6661.52 1327.15 1354.57 431.118 489.257
6664.35 1501.64 1408.88 478.137 486.884
6667.18 1397.85 1376.4 551.398 520.475
6670.01 1229.71 1273 531.89 470.399
6672.83 1191.45 1218.65 327.908 457.473
6675.66 1234.78 1329.63 512.621 422.282
6678.49 1562.64 1367.27 426.317 471.91
6681.31 1304.39 1487.6 476.792 439.694
6684.14 1595.76 1361.89 415.972 387.362
6686.96 1185.53 1374.86 269.323 311.943
6689.79 1343.3 1239.75 250.535 282.117
6692.62 1190.44 1357.54 326.493 284.875
6695.44 1538.9 1378.56 277.599 328.895
6698.27 1406.33 1422.98 382.593 306.25
6701.09 1323.7 1277.36 258.557 335.103
6703.92 1102.06 1218.72 364.159 292.866
6706.74 1230.41 1224.62 255.88 298.172
6709.57 1341.4 1296.08 274.475 276.89
6712.39 1316.44 1266.07 300.314 359.491
6715.22 1140.38 1246.68 503.684 378.231
6718.04 1283.23 1139.56 330.695 397.82
6720.86 995.068 1091.92 359.082 338.684
6723.69 997.448 1046.54 326.276 360.452
6726.51 1147.09 1062.24 395.999 281.135
6729.33 1042.17 1106.15 121.13 259.066
6732.16 1129.18 1072.25 260.07 200.093
6734.98 1045.39 1066.01 219.08 315.742
6737.8 1023.48 1052.3 468.074 283.527
6740.63 1088.04 1054.55 163.427 331.741
6743.45 1052.13 1070.37 363.722 239.51
6746.27 1070.94 1062.36 191.38 250.585
6749.1 1064.01 1065.39 196.652 201.04
6751.92 1061.21 977.923 215.089 222.103
6754.74 808.553 943.602 254.57 346.436
6757.56 961.044 938.122 569.649 418.59
6760.38 1044.77 943.481 431.553 434.892
6763.2 824.629 888.826 303.474 305.91
6766.03 797.08 823.107 182.702 235.107
6768.85 847.611 870.806 219.145 183.803
6771.67 967.726 1014.3 149.561 235.915
6774.49 1227.57 1029.88 339.04 278.946
6777.31 894.333 950.883 348.236 264.579
6780.13 730.747 916.757 106.462 263.83
6782.95 1125.19 1021.92 336.792 214.771
6785.77 1209.83 1076.86 201.06 292.758
6788.59 895.555 1007.44 340.422 227.206
6791.41 916.936 903.313 140.135 237.627
6794.23 897.448 914.723 232.323 217.053
6797.05 929.786 965.731 278.702 293.399
6799.87 1069.96 951.016 369.173 267.735
6802.69 853.302 980.534 155.331 208.736
6805.51 1018.34 921.015 101.703 124.355
6808.33 891.402 972.975 116.032 188.752
6811.15 1009.18 991.225 348.52 189.261
6813.97 1073.09 947.21 103.232 195.579
6816.78 759.355 841.006 134.985 116.868
6819.6 690.572 820.945 112.385 118.013
6822.42 1012.91 883.246 106.669 117.925
6825.24 946.259 939.057 134.721 196.103
6828.06 858.004 905.148 346.919 253.311
6830.87 911.181 802.44 278.294 284.947
6833.69 638.136 810.002 229.628 256.432
6836.51 880.688 800.498 261.374 217.813
6839.33 882.671 843.622 162.438 170.157
6842.14 767.505 785.365 86.6598 150.142
6844.96 705.92 789.218 201.327 202.497
6847.78 894.228 815.105 319.504 267.759
6850.59 845.167 797.564 282.447 358.055
6853.41 653.297 736.243 472.215 286.387
6856.22 710.264 732.157 104.497 240.518
6859.04 832.911 830.198 144.841 105.466
6861.86 947.42 826.178 67.0609 110.104
6864.67 698.202 727.062 118.411 65.7235
6867.49 535.564 576.139 11.6984 124.663
6870.3 494.65 587.289 243.88 150.273
6873.12 731.654 595.819 195.239 174.656
6875.93 561.154 619.314 84.8476 153.971
6878.75 565.134 599.075 181.826 114.562
6881.56 670.937 650.455 77.0127 189.368
6884.37 715.293 664.99 309.267 161.857
6887.19 608.739 631.169 99.2921 257.892
6890 569.476 639.448 365.118 219.392
6892.82 740.13 631.519 193.766 257.038
6895.63 584.951 615.936 212.231 143.711
6898.44 522.728 657.955 25.1368 118.539
6901.26 866.185 709.369 118.249 92.2272
6904.07 739.193 742.599 133.296 98.8865
6906.88 622.417 757.356 45.1146 150.326
6909.7 910.458 714.132 272.568 188.116
6912.51 609.52 733.687 246.664 203.303
6915.32 681.082 705.079 90.6781 155.164
6918.13 824.635 776.548 128.151 115.743
6920.95 823.926 880.538 128.401 99.4414
6923.76 993.055 868 41.7725 161.866
6926.57 787.021 836.01 315.425 152.022
6929.38 727.954 681.254 98.8668 231.374
6932.19 528.786 616.98 279.83 186.24
6935 594.2 554.814 180.024 214.72
6937.81 541.457 656.86 184.306 211.679
6940.63 834.922 726.525 270.709 196.017
6943.44 803.197 768.467 133.036 261.883
6946.25 667.281 693.947 381.904 171.785
6949.06 611.363 669.035 0.416871 177.925
6951.87 728.463 691.637 151.455 71.4709
6954.68 735.085 692.138 62.5413 136.523
6957.49 612.865 606.32 195.572 157.332
6960.3 471.009 641.702 213.883 169.519
6963.11 841.231 619.714 99.1011 178.351
6965.91 546.901 638.535 222.07 146.77
6968.72 527.474 561.063 119.138 164.267
6971.53 608.814 575.729 151.593 127.47
6974.34 590.9 654.288 111.678 147.598
6977.15 763.149 681.347 179.521 102.932
6979.96 689.991 639.465 17.5979 123.657
6982.77 465.254 532.597 173.852 130.041
6985.57 442.546 540.294 198.673 205.971
6988.38 713.083 582.465 245.388 195.982
6991.19 591.767 567.316 143.885 185.533
6994 397.098 557.078 167.325 163.267
6996.8 682.369 506.514 178.59 158.585
6999.61 440.075 553.014 129.841 174.468
7002.42 536.597 517.792 214.973 160.143
7005.23 576.705 601.719 135.615 203.397
7008.03 691.856 637.375 259.602 188.536
7010.84 643.563 655.286 170.39 208.784
7013.64 630.437 631.464 196.359 177.425
7016.45 620.392 664.765 165.527 137.954
7019.26 743.464 671.287 51.9753 108.257
7022.06 650.005 684.996 107.269 93.2884
7024.87 661.519 657.099 120.621 98.3799
7027.67 659.773 649.052 67.25 118.047
7030.48 625.863 620.646 166.27 77.1408
7033.28 576.303 611.493 -2.09752 73.6795
7036.09 632.314 664.009 56.8659 77.0106
7038.89 783.409 694.288 176.264 64.0271
7041.7 667.139 688.512 -41.048 123.76
7044.5 614.987 730.123 236.065 59.09
7047.31 908.242 735.962 -17.7474 174.292
7050.11 684.657 896.351 304.557 112.659
7052.91 1096.15 808.081 51.1673 179.564
7055.72 643.434 893.131 182.968 153.789
7058.52 939.806 761.427 227.231 170.56
7061.32 701.04 797.197 101.482 229.607
7064.13 750.747 664.697 360.109 204.994
7066.93 542.305 601.219 153.392 202.742
7069.73 510.604 555.885 94.7259 194.626
7072.53 614.745 615.323 335.761 173.771
7075.34 720.618 642.768 90.8258 219.934
7078.14 592.94 615.165 233.216 108.611
7080.94 531.936 533.581 1.7911 173.148
7083.74 475.867 601.141 284.438 142.031
7086.54 795.619 687.678 139.863 186.982
7089.34 791.549 774.95 136.646 141.248
7092.14 737.682 771.416 147.235 134.583
7094.95 785.018 751.134 119.866 108.658
7097.75 730.701 726.171 58.8724 130.306
7100.55 662.796 667.571 212.179 143.976
7103.35 609.215 694.697 160.878 157.954
7106.15 812.081 723.147 100.807 132.935
7108.95 748.144 734.954 137.12 164.118
7111.75 644.637 667.399 254.427 194.701
7114.55 609.416 626.965 192.556 188.647
7117.35 626.841 639.881 118.958 175.943
7120.15 683.384 624.215 216.315 119.16
7122.94 562.419 622.143 22.2072 125.539
7125.74 620.625 567.127 138.094 124.058
7128.54 518.337 601.836 211.874 172.327
7131.34 666.547 585.69 167.014 206.251
7134.14 572.186 621.37 239.865 158.387
7136.94 625.375 579.553 68.2831 190.385
7139.73 541.099 643.176 263.006 132.497
7142.53 763.055 660.643 66.201 188.739
7145.33 677.775 710.612 237.01 160.553
7148.13 691.006 695.088 178.45 218.861
7150.92 716.482 673.515 241.125 134.345
7153.72 613.056 598.835 -16.5409 141.04
7156.52 466.968 496.333 198.536 102.215
7159.31 408.975 503.751 124.65 165.441
7162.11 635.309 609.699 173.137 154.756
7164.91 784.811 667.154 166.481 143.3
7167.7 581.341 650.39 90.2821 159.938
7170.5 585.018 600.988 223.052 182.108
7173.29 636.603 547.107 232.991 166.734
7176.09 419.7 556.567 44.1594 161.719
7178.89 613.398 506.636 208.008 111.433
7181.68 486.811 547.023 82.1308 122.973
7184.48 540.86 539.945 78.7808 86.0972
7187.27 592.163 552.122 97.3799 80.0631
7190.06 523.341 528.06 64.0285 81.9882
7192.86 468.675 495.056 84.5562 96.1447
7195.65 493.151 526.338 139.849 99.2022
7198.45 617.19 563.657 73.2009 71.7055
7201.24 580.632 563.042 2.06614 35.9231
7204.03 491.304 531.232 32.5022 61.958
7206.83 521.76 571.467 151.306 55.7165
7209.62 701.338 634.325 -16.6583 112.208
7212.41 679.878 687.057 201.976 82.5438
7215.21 679.957 653.385 62.314 125.517
7218 600.32 558.33 112.261 99.6303
7220.79 394.714 521.182 124.316 130.032
7223.58 568.514 547.713 153.518 119.267
7226.37 679.911 643.766 79.9657 122.579
7229.17 682.873 609.409 134.254 108.519
7231.96 465.444 586.218 111.337 119.651
7234.75 610.338 507.041 113.363 104.219
7237.54 445.34 621.116 87.9563 84.9858
7240.33 807.671 620.656 53.6383 68.4178
7243.12 608.955 727.375 63.6587 68.2792
7245.91 765.5 593.849 87.5406 48.8503
7248.7 407.092 532.825 -4.64838 60.8698
7251.49 425.883 467.438 99.7172 94.9595
7254.28 569.339 431.676 189.81 126.815
7257.07 299.806 432.077 90.917 171.394
7259.86 427.087 426.535 233.456 146.9
7262.65 552.712 452.329 116.326 157.225
7265.44 377.19 521.245 121.894 193.673
7268.23 633.835 467.19 342.798 233.937
7271.02 390.544 559.895 237.119 177.152
7273.81 655.306 517.666 -48.4617 160.145
7276.6 507.149 523.548 291.777 72.5626
7279.39 408.19 506.363 -25.628 66.1488
7282.17 603.75 541.341 -67.703 -41.2401
7284.96 612.083 543.993 -30.3892 23.6422
7287.75 416.146 516.824 169.019 29.3267
7290.54 522.242 493.841 -50.6493 49.1628
7293.32 543.134 574.67 29.1189 47.1688
7296.11 658.635 608.535 163.037 37.2854
7298.9 623.835 606.833 -80.2995 98.8399
7301.68 538.03 594.128 213.783 54.7341
7304.47 620.519 510.01 30.7191 130.938
7307.26 371.482 516.334 148.311 108.87
7310.04 557 473.751 147.58 120.221
7312.83 492.771 532.736 64.7708 185.059
7315.61 548.437 517.408 342.827 211.867
7318.4 511.017 561.604 228.001 281.323
7321.19 625.358 554.385 273.139 265.708
7323.97 526.779 509.137 295.984 305.832
7326.76 375.273 514.846 348.373 254.084
7329.54 642.486 542.061 117.894 220.183
7332.32 608.425 595.706 194.282 197.073
7335.11 536.206 609.807 279.042 177.789
7337.89 684.791 584.476 60.0447 195.906
7340.68 532.43 560.113 248.633 200.116
7343.46 463.119 466.13 291.671 190.234
7346.24 402.842 427.859 30.3992 216.754
7349.03 417.615 486.606 328.192 117.141
7351.81 639.362 517.112 -7.16745 155.496
7354.59 494.359 644.603 145.464 62.6315
7357.38 800.087 670.811 49.5983 160.103
7360.16 717.985 659.935 285.246 130.603
7362.94 461.733 649.601 56.9659 152.864
7365.72 769.085 647.3 116.38 55.5855
7368.5 711.082 620.617 -6.58955 63.1818
7371.29 381.684 558.07 79.7549 71.8938
7374.07 581.445 533.456 142.516 62.9661
7376.85 637.239 646.039 -33.3728 71.9806
7379.63 719.433 607.941 106.798 78.0712
7382.41 467.149 513.531 160.788 120.655
7385.19 354.01 461.495 94.3789 140.651
7387.97 563.326 482.411 166.787 108.207
7390.75 529.896 496.138 63.4553 169.902
7393.53 395.193 512.851 279.462 126.683
7396.31 613.465 505.17 37.1314 164.159
7399.09 506.852 512.704 175.883 112.81
7401.87 417.796 460.599 125.415 111.851
7404.65 457.15 425.998 34.2564 125.936
7407.43 403.048 445.92 218.136 129.643
7410.21 477.562 449.735 136.537 142.606
7412.99 468.597 482.179 73.146 112.324
7415.76 500.379 482.49 127.289 114.549
7418.54 478.493 527.235 143.211 72.0307
7421.32 602.831 585.825 -54.4081 84.8234
7424.1 676.15 628.793 165.667 52.6096
7426.88 607.399 574.495 46.5698 143.987
7429.65 439.935 566.953 219.723 114.968
7432.43 653.525 485.972 78.6124 156.179
7435.21 364.457 502.197 170.201 81.52
7437.98 488.61 421.185 -4.25296 53.1015
7440.76 410.488 434.781 -6.64309 40.8226
7443.54 405.244 419.833 133.364 63.5734
7446.31 443.767 431.546 63.9995 80.5657
7449.09 445.627 438.631 44.3338 76.1268
7451.86 426.5 404.551 120.047 85.5465
7454.64 341.527 453.279 92.2584 122.88
7457.42 591.81 498.305 156.335 75.0882
7460.19 561.58 543.066 -23.3282 128.713
7462.97 475.807 483.613 253.134 101.763
7465.74 413.452 417.73 75.4836 183.412
7468.51 363.929 439.318 221.618 145.426
7471.29 540.574 494.864 139.177 122.25
7474.06 580.091 494.819 5.95518 46.3156
7476.84 363.792 448.882 -6.1858 29.0458
7479.61 402.763 449.399 87.3679 39.163
7482.38 581.642 491.124 36.3069 67.8452
7485.16 488.967 493.171 79.8608 65.3361
7487.93 408.905 436.884 79.8405 86.3361
7490.7 412.778 435.578 99.3068 100.844
7493.47 485.05 436.698 123.383 56.6931
7496.25 412.265 468.061 -52.6107 59.5125
7499.02 506.869 466.784 107.765 68.9441
7501.79 481.217 551.663 151.678 119.187
7504.56 666.904 531.71 98.118 75.8889
7507.33 447.008 543.415 -22.1292 60.683
7510.1 516.334 500.492 106.06 45.025
7512.88 538.136 525.117 51.1441 94.4504
7515.65 520.881 502.303 126.147 141.309
7518.42 447.892 539.284 246.637 145.916
7521.19 649.079 536.995 64.9638 130.407
7523.96 514.015 504.613 79.62 113.824
7526.73 350.745 441.453 196.887 151.967
7529.5 459.598 438.095 179.394 170.44
7532.27 503.94 523.197 135.037 164.129
7535.04 606.053 551.573 177.957 172.201
7537.81 544.727 527.896 203.609 139.225
7540.57 432.909 499.633 36.1084 134.339
7543.34 521.262 443.855 163.3 36.9689
7546.11 377.394 452.125 -88.502 53.1228
7548.88 457.719 483.762 84.5699 20.4832
7551.65 616.174 535.544 65.3817 73.1352
7554.42 532.739 535.946 69.4539 34.0027
7557.18 458.924 510.192 -32.8274 61.1098
7559.95 538.912 539.19 146.703 5.16822
7562.72 619.733 551.688 -98.371 41.3433
7565.48 496.42 499.897 75.698 59.0628
7568.25 383.538 474.544 199.861 102.557
7571.02 543.676 459.553 32.1108 117.247
7573.78 451.445 471.014 119.769 95.4731
7576.55 417.921 459.85 134.539 136.319
7579.32 510.186 444.04 154.65 62.7814
7582.08 404.015 457.006 -100.845 57.1703
7584.85 456.818 453.457 117.706 49.5126
7587.61 499.539 450.348 131.677 116.549
7590.38 394.686 405.416 100.265 104.194
7593.14 322.024 360.777 80.6387 65.5282
7595.91 365.621 297.187 15.6808 21.5637
7598.67 203.915 231.205 -31.6284 6.48858
7601.44 124.078 142.755 35.4133 -28.3451
7604.2 100.272 125.651 -88.8203 -18.2775
7606.96 152.603 115.182 -1.42539 -40.1409
7609.73 92.67 169.886 -30.177 -9.6172
7612.49 264.385 167.592 2.75083 -10.5797
7615.25 145.72 247.64 -4.31294 48.226
7618.02 332.814 280.249 146.24 51.7819
7620.78 362.213 295.884 13.4187 94.7539
7623.54 192.625 317.669 124.603 48.7951
7626.3 398.169 287.749 8.36366 56.028
7629.06 272.454 304.665 35.1175 -16.8839
7631.83 243.371 223.511 -94.133 -21.7763
7634.59 154.709 240.399 -6.31342 -14.2488
7637.35 323.115 309.947 57.6999 10.3185
7640.11 452.015 294.531 -20.431 6.25683
7642.87 108.463 332.617 -18.4984 3.64636
7645.63 437.373 267.337 49.8685 67.9284
7648.39 256.175 371.456 172.415 79.1693
7651.15 420.819 301.195 15.2243 107.225
7653.91 226.59 315.329 134.037 72.2315
7656.67 298.577 284.901 67.433 74.4919
7659.43 329.535 326.014 22.0056 74.5314
7662.19 349.929 351.239 134.155 78.0829
7664.95 374.253 370.237 78.0876 98.4808
7667.71 386.528 401 83.1994 126.702
7670.47 442.219 393.293 218.819 123.971
7673.22 351.132 410.628 69.8942 109.759
7675.98 438.534 422.059 40.5634 108.31
7678.74 476.511 421.27 214.474 132.986
7681.5 348.765 460.737 143.921 142.405
7684.26 556.934 393.811 68.8213 120.403
7687.01 275.733 386.098 148.467 136.915
7689.77 325.628 331.568 193.457 159.779
7692.53 393.343 343.641 137.412 169.684
7695.28 311.951 373.457 178.181 136.798
7698.04 415.077 388.337 94.8006 142.548
7700.8 437.983 424.274 154.663 131.807
7703.55 419.763 401.039 145.957 173.356
7706.31 345.37 433.375 219.448 169.826
7709.06 534.993 440.308 144.073 207.096
7711.82 440.56 474.879 257.767 219.416
7714.57 449.084 472.837 256.409 201.278
7717.33 528.867 420.466 89.6577 255.421
7720.08 283.447 347.994 420.195 198.304
7722.84 231.668 299.419 85.0585 224.636
7725.59 383.142 348.171 168.655 116.347
7728.34 429.704 442.023 95.3283 145.545
7731.1 513.222 425.253 172.653 88.4293
7733.85 332.832 426.183 -2.69276 84.7417
7736.6 432.495 383.712 84.2653 90.5453
7739.36 385.81 387.377 190.063 137.642
7742.11 343.825 375.959 138.597 169.012
7744.86 398.241 479.298 178.378 189.416
7747.62 695.83 525.946 251.273 162.247
7750.37 483.769 512.584 57.0919 120.2
7753.12 358.153 441.509 52.2343 45.3822
7755.87 482.606 438.984 26.8203 43.9016
7758.62 476.194 472.765 52.6501 33.3646
7761.37 459.495 421.333 20.6233 28.7634
7764.12 328.311 417.047 13.0167 30.2898
7766.87 463.336 448.514 57.2294 37.1677
7769.62 553.895 381.956 41.2569 55.2866
7772.37 128.639 342.915 67.3733 56.1933
7775.12 346.212 304.693 59.9496 91.8987
7777.87 439.228 342.348 148.373 120.551
7780.62 241.606 353.091 153.332 115.085
7783.37 378.44 295.085 43.5508 121.213
7786.12 265.209 363.266 166.755 105.265
7788.87 446.149 372.462 105.489 92.4957
7791.62 406.029 469.359 5.2432 46.9962
7794.37 555.9 432.137 30.2566 39.8527
7797.12 334.483 414.064 84.0583 28.7149
7799.86 351.808 263.474 -28.1701 10.1554
7802.61 104.13 264.674 -25.4221 33.5397
7805.36 338.083 222.917 154.211 33.7711
7808.11 226.538 348.397 -27.4757 67.8942
7810.85 480.57 312.862 76.9472 10.2907
7813.6 231.479 379.472 -18.5995 118.863
7816.35 426.367 389.231 298.242 101.204
7819.09 509.847 547.43 23.9689 134.017
7821.84 706.076 535.437 79.8411 70.5504
7824.58 390.388 477.939 107.841 123.482
7827.33 337.352 352.056 182.765 95.0512
7830.07 328.428 310.393 -5.45248 112.498
7832.82 265.4 326.03 160.18 87.7482
7835.56 384.261 347.379 108.517 100.612
7838.31 392.475 420.139 33.1398 102.028
7841.05 483.681 389.116 164.427 152.051
7843.8 291.191 367.303 258.586 153.901
7846.54 327.037 336.173 38.6915 115.597
7849.28 390.29 401.1 49.5127 39.0331
7852.03 485.971 407.661 28.8952 22.9053
7854.77 346.723 491.952 -9.69213 90.133
7857.51 643.163 478.696 251.196 116.727
7860.26 446.202 463.755 108.677 153.279
7863 301.9 405.584 99.9654 151.729
7865.74 468.651 370.273 246.545 123.738
7868.48 340.268 435.981 24.7048 109.443
7871.23 499.024 330.547 57.0793 87.7294
7873.97 152.351 303.199 181.404 67.8666
7876.71 258.222 210.644 -34.8836 105.972
7879.45 221.361 296.059 171.397 47.3297
7882.19 408.593 403.811 5.47603 81.4853
7884.93 581.478 458.209 67.5831 44.2704
7887.67 384.555 440.593 59.7521 77.6412
7890.41 355.746 394.248 105.588 84.2548
7893.15 442.443 385.288 87.4238 92.4062
7895.89 357.675 393.351 84.2064 116.439
7898.63 379.935 366.528 177.687 97.5911
7901.37 361.975 326.979 30.8803 105.996
7904.11 239.028 348.934 109.421 77.329
7906.85 445.8 415.95 91.6854 83.6577
7909.58 563.023 465.412 49.8665 62.8516
7912.32 387.412 457.209 47.0028 57.0203
7915.06 421.191 347.482 74.1915 16.4906
7917.8 233.842 314.217 -71.7225 46.5789
7920.53 287.617 226.17 137.268 35.6014
7923.27 157.051 300.939 41.259 56.8884
7926.01 458.148 288.675 -7.86153 16.6309
7928.75 250.827 314.367 16.4953 50.4852
7931.48 234.125 209.635 142.822 63.5493
7934.22 143.952 212.926 31.3307 45.4828
7936.95 260.701 217.815 -37.7041 28.0704
7939.69 248.791 249.642 90.5845 21.6694
7942.43 239.434 235.966 12.1277 29.5979
7945.16 219.674 254.333 -13.9186 -21.5628
7947.9 303.892 247.982 -62.8974 -4.24423
7950.63 220.38 289.545 64.0833 40.3217
7953.36 344.363 225.031 119.779 104.007
7956.1 110.351 264.356 128.16 102.693
7958.83 338.352 261.207 60.1414 105.911
7961.57 334.919 378.332 129.432 45.8648
7964.3 461.724 423.492 -51.9787 63.3854
7967.03 473.832 338.447 112.703 3.04126
7969.77 79.7857 237.873 -51.6007 17.4665
7972.5 160.003 197.248 -8.70292 3.28832
7975.23 351.957 290.144 70.1685 47.3864
7977.96 358.473 366.599 80.6935 61.4807
7980.7 389.366 332.612 33.58 75.3624
7983.43 249.997 337.337 111.814 87.3647
7986.16 372.648 337.85 116.7 81.8482
7988.89 390.904 414.954 17.0304 73.51
7991.62 481.31 457.969 86.7992 60.2823
7994.35 501.692 409.356 77.0171 87.0162
7997.08 245.066 332.46 97.2322 74.4719
7999.81 250.621 240.936 49.1664 77.1337
8002.54 227.121 231.14 85.0024 57.2417
8005.27 215.678 216.876 37.5564 20.4068
8008 207.829 269.773 -61.3384 -19.9652
8010.73 385.812 372.881 -36.1136 -25.2209
8013.46 525.002 419.274 21.7894 37.9156
8016.19 347.009 405.785 128.071 19.8684
8018.92 345.344 334.318 -90.2552 23.8184
8021.65 310.603 356.817 33.6393 5.19258
8024.37 414.504 315.047 72.1937 40.5108
8027.1 220.034 319.726 15.6994 45.4697
8029.83 324.638 246.691 48.516 53.2221
8032.56 195.401 224.378 95.4507 85.2888
8035.28 153.094 203.647 111.9 131.218
8038.01 262.446 221.874 186.304 115.597
8040.74 250.082 265.119 48.5875 97.8196
8043.46 282.828 289.873 58.5671 66.9926
8046.19 336.709 303.404 93.8232 71.8673
8048.92 290.675 291.147 63.2117 61.8349
8051.64 246.055 245.529 28.4699 7.18335
8054.37 199.857 293.973 -70.1315 21.0089
8057.09 436.007 297.662 104.688 51.2492
8059.82 257.121 296.184 119.191 68.9946
8062.54 195.424 269.032 -16.8955 39.9607
8065.27 354.551 326.605 17.5867 37.8424
8067.99 429.84 359.408 112.836 74.3156
8070.71 293.833 327.615 92.524 84.2987
8073.44 259.172 300.943 47.536 61.1054
8076.16 349.825 264.534 43.2563 73.8711
8078.88 184.605 293.027 130.821 78.3185
8081.61 344.649 286.2 60.8784 116.696
8084.33 329.345 316.319 158.389 83.1321
8087.05 274.964 315.456 30.1291 77.6133
8089.77 342.061 325.943 44.3221 62.0652
8092.49 360.805 332.076 111.744 49.7433
8095.22 293.361 316.266 -6.8366 69.8255
8097.94 294.631 292.561 104.569 30.5947
8100.66 289.692 280.416 -5.94823 45.7486
8103.38 256.926 252.001 38.6251 26.882
8106.1 209.384 235.36 47.969 38.4476
8108.82 239.769 194.371 28.7488 24.2858
8111.54 133.958 191.471 -3.86038 19.4056
8114.26 200.684 200.693 33.3283 1.80159
8116.98 267.436 249.453 -24.0632 23.0987
8119.7 280.237 290.566 60.0308 27.6923
8122.42 324.024 288.648 47.1094 113.899
8125.14 261.682 261.411 234.557 105.333
8127.85 198.528 265.417 34.3329 155.988
8130.57 336.04 258.273 199.075 109.992
8133.29 240.251 291.561 96.5674 115.203
8136.01 298.392 259.901 49.9669 97.6978
8138.72 241.06 256.676 146.559 88.8421
8141.44 230.576 212.683 70.0003 94.1573
8144.16 166.411 223.796 65.9124 82.2883
8146.88 274.4 243.495 110.952 64.9774
8149.59 289.674 292.52 18.0676 49.9688
8152.31 313.487 251.073 20.8865 37.1897
8155.02 150.057 195.945 72.615 58.2935
8157.74 124.292 158.365 81.3789 75.0436
8160.45 200.746 206.973 71.1369 78.1367
8163.17 295.882 248.678 81.8944 71.6555
8165.88 249.408 236.607 61.9353 46.0826
8168.6 164.532 226.128 -5.58181 50.5493
8171.31 264.444 223.457 95.2943 21.7432
8174.03 241.396 243.311 -24.483 25.5941
8176.74 224.094 230.666 5.97112 -2.23965
8179.45 226.506 257.229 11.7929 51.7064
8182.17 321.086 234.398 137.355 44.4868
8184.88 155.602 237.376 -15.6877 29.1514
8187.59 235.441 194.72 -34.2132 -16.2937
8190.31 193.117 204.081 1.01974 -9.46892
8193.02 183.684 188.161 4.78669 47.5658
8195.73 187.681 212.373 136.891 56.8768
8198.44 265.755 266.769 28.9526 93.2038
8201.15 346.872 279.646 113.768 93.4857
8203.86 226.31 286.546 137.737 115.425
8206.57 286.456 252.164 94.7714 110.613
8209.28 243.725 269.521 99.3299 93.4771
8212 278.381 305.061 86.3299 75.9808
8214.71 393.076 343.336 42.2825 57.4437
8217.42 358.55 305.186 43.7186 21.199
8220.12 163.933 259.748 -22.404 28.8495
8222.83 256.76 245.454 65.2339 13.0162
8225.54 315.67 243.029 -3.78112 31.8118
8228.25 156.658 257.906 33.9826 25.8351
8230.96 301.388 228.012 47.3038 39.2136
8233.67 225.991 296.829 36.3544 65.2509
8236.38 363.108 284.818 112.095 75.121
8239.08 265.354 278.229 76.9139 55.5674
8241.79 206.225 258.621 -22.3062 78.6083
8244.5 304.284 249.831 181.217 68.2365
8247.21 238.984 288.719 45.7983 118.078
8249.91 322.889 264.911 127.219 82.5295
8252.62 232.858 270.228 74.571 63.7826
8255.32 254.936 248.037 -10.4424 22.7232
8258.03 256.317 226.759 4.0409 -1.6453
8260.74 169.024 230.562 1.46564 3.72568
8263.44 266.346 215.807 5.67051 30.8752
8266.15 212.05 206.027 85.4894 40.7269
8268.85 139.686 153.501 31.0209 62.1509
8271.56 108.766 168.749 69.9424 48.8802
8274.26 257.796 228.177 45.6772 78.4769
8276.96 317.969 291.89 119.811 87.9317
8279.67 299.904 234.185 98.307 110.811
8282.37 84.6827 205.874 114.316 81.4375
8285.07 233.036 202.687 31.6898 72.3007
8287.78 290.34 254.141 70.8965 43.1591
8290.48 239.046 233.65 26.8909 55.4239
8293.18 171.564 258.968 68.4843 77.7113
8295.88 366.296 286.997 137.759 116.68
8298.58 323.132 322.563 143.798 80.5075
8301.29 278.261 253.205 -40.0345 102.652
8303.99 158.222 187.27 204.192 103.787
8306.69 125.326 170.583 147.204 139.98
8309.39 228.202 183.958 68.5436 106.628
8312.09 198.347 221.014 104.137 76.4541
8314.79 236.493 193.254 56.6816 55.3832
8317.49 144.922 217.652 5.33089 28.2349
8320.19 271.541 220.543 22.6924 46.6008
8322.89 245.165 245.609 111.779 62.2691
8325.59 220.121 231.722 52.3358 69.5509
8328.29 229.878 277.292 44.5378 74.9803
8330.98 381.876 282.087 128.067 83.4096
8333.68 234.507 233.082 77.6236 85.3217
8336.38 82.8628 257.994 50.2741 48.2362
8339.08 456.611 308.275 16.8109 64.4614
8341.78 385.351 406.902 126.299 45.4668
8344.47 378.743 404.391 -6.70963 51.4949
8347.17 449.078 271.761 34.8952 63.3548
8349.87 -12.5383 209.539 161.879 58.1304
8352.56 192.078 127.161 -22.3829 106.187
8355.26 201.943 89.2332 179.064 26.1158
8357.95 -126.321 98.3229 -78.3333 69.2938
8360.65 219.347 118.499 107.151 16.53
8363.35 262.472 232.888 20.7724 53.1588
8366.04 216.844 238.769 31.5532 14.066
8368.73 236.992 234.704 -10.1275 41.788
8371.43 250.275 229.73 103.938 23.4009
8374.12 201.923 269.704 -23.608 53.0056
8376.82 356.913 285.984 78.6865 49.0476
8379.51 299.114 322.809 92.0643 58.3756
8382.2 312.398 325.072 4.37608 53.0607
8384.9 363.702 234.994 62.7418 -11.266
8387.59 28.8818 199.426 -100.916 28.0757
8390.28 205.694 126.75 122.401 -0.180666
8392.97 145.675 263.617 -22.0271 13.5932
8395.67 439.483 300.641 -59.5944 -26.0668
8398.36 316.766 394.261 3.42097 -26.5118
8401.05 426.532 318.146 -23.3619 10.9579
8403.74 211.14 246.481 52.8147 -1.19878
8406.43 101.77 131.474 -33.0492 44.7166
8409.12 81.5126 156.75 114.384 50.6207
8411.81 286.967 209.181 70.527 87.4338
8414.5 259.064 278.208 77.3903 104.78
8417.19 288.592 252.045 166.423 86.9345
8419.88 208.48 181.557 16.9901 50.4639
8422.57 47.5982 171.304 -32.0218 44.473
8425.26 257.833 259.26 148.451 -19.6578
8427.95 472.349 403.329 -175.402 4.86885
8430.63 479.806 375.454 41.5583 -29.5675
8433.32 174.206 171.945 45.1414 32.2429
8436.01 -138.177 76.1551 10.029 72.4126
8438.7 192.436 68.3335 162.067 56.3052
8441.38 150.741 137.418 -3.18061 64.6949
8444.07 69.0773 122.718 35.1981 13.8715
8446.76 148.335 144.934 9.59688 64.1692
8449.44 217.39 194.885 147.713 53.2389
8452.13 218.93 242.296 2.40713 79.4778
8454.82 290.568 202.04 88.3138 43.2216
8457.5 96.6214 182.924 38.944 48.4263
8460.19 161.582 154.681 18.0212 14.6743
8462.87 205.84 226.902 -12.9422 -24.2276
8465.56 313.284 204.586 -77.7619 5.19101
8468.24 94.6355 155.854 106.277 19.5861
8470.92 59.6443 106.109 30.243 57.7471
8473.61 164.048 106.704 36.7212 48.5881
8476.29 96.4189 106.898 78.8001 30.3078
8478.97 60.2269 82.7153 -24.5978 37.0871
8481.66 91.5001 91.5252 57.0591 42.8856
8484.34 122.849 99.7913 96.1955 53.7997
8487.02 85.0251 129.682 8.14464 37.5448
8489.7 181.173 186.695 8.29435 28.4964
8492.39 293.887 237.628 69.0502 23.3301
8495.07 237.825 265.609 -7.35419 20.4895
8497.75 265.114 224.528 -0.227584 25.3765
8500.43 170.644 213.068 83.7113 20.2134
8503.11 203.447 219.618 -22.8434 19.5042
8505.79 284.762 211.302 -2.35526 -2.3668
8508.47 145.696 156.586 18.0983 14.1195
8511.15 39.3005 91.127 26.6156 20.5817
8513.83 88.3844 54.1343 17.0312 -20.2828
8516.51 34.7181 101.991 -104.495 -31.2533
8519.19 182.871 137.59 -6.29599 -29.3696
8521.87 195.182 182.231 22.6825 16.5097
8524.54 168.639 158.178 33.1427 49.2785
8527.22 110.714 146.212 92.0104 88.0606
8529.9 159.284 123.314 139.029 77.1094
8532.58 99.9432 132.238 0.288819 97.7887
8535.25 137.488 132.206 154.048 57.4287
8537.93 159.187 142.486 17.9488 76.1185
8540.61 130.782 185.199 56.3584 19.5085
8543.28 265.629 152.738 -15.7816 60.1847
8545.96 61.8029 218.554 139.977 39.7732
8548.63 328.23 248.534 -4.87614 73.06
8551.31 355.57 301.056 84.0789 52.0206
8553.98 219.368 268.045 76.859 64.0575
8556.66 229.196 218.811 31.2346 46.8787
8559.33 207.871 206.684 32.5426 15.9305
8562.01 182.986 190.561 -15.9856 38.2829
8564.68 180.825 196.42 98.2917 32.3168
8567.36 225.449 204.313 14.6441 51.1855
8570.03 206.664 184.929 40.6206 44.575
8572.7 122.675 148.894 78.4604 53.9743
8575.37 117.343 140.482 42.8421 71.8981
8578.05 181.426 158.539 94.3917 70.4107
8580.72 176.848 176.179 73.9983 75.0898
8583.39 170.262 212.754 56.8794 41.6449
8586.06 291.151 246.037 -5.94291 19.0049
8588.73 276.698 281.675 6.07827 23.091
8591.4 277.175 262.446 69.1377 26.4089
8594.07 233.466 296.559 4.01075 53.7965
8596.75 379.035 292.697 88.2411 52.7338
8599.42 265.59 262.099 65.9496 79.5708
8602.08 141.672 162.48 84.5217 52.1759
8604.75 80.179 147.645 6.05646 58.8089
8607.42 221.083 178.681 85.8485 54.9692
8610.09 234.781 211.462 73.0027 70.9412
8612.76 178.522 201.105 53.9725 59.497
8615.43 190.012 169.709 51.5159 59.0287
8618.1 140.593 207.319 71.5977 78.5096
8620.76 291.352 199.542 112.415 73.2261
8623.43 166.681 232.063 35.6653 65.9115
8626.1 238.154 203.759 49.6539 16.3967
8628.77 206.443 213.544 -36.129 7.77307
8631.43 196.035 170.453 9.7943 -4.22682
8634.1 108.88 167.096 13.6543 26.768
8636.76 196.375 166.102 56.8553 41.326
8639.43 193.053 145.966 53.4685 21.8338
8642.1 48.4695 123.076 -44.8223 17.3192
8644.76 127.707 120.229 43.3114 3.19493
8647.43 184.511 166.838 11.0956 23.8651
8650.09 188.295 159.01 17.1882 28.5332
8652.75 104.222 156.863 57.3159 41.8648
8655.42 178.07 188.559 51.0904 74.2828
8658.08 283.385 184.044 114.442 52.4859
8660.74 90.6749 169.42 -8.07479 46.4336
8663.41 134.2 135.578 32.9334 -3.47589
8666.07 181.861 192.059 -35.2863 15.3195
8668.73 260.117 227.285 48.3113 -9.36285
8671.39 239.876 266.846 -41.1135 18.0718
8674.06 300.544 258.294 47.0177 29.3928
8676.72 234.464 276.188 82.2741 62.3859
8679.38 293.557 298.836 57.8657 72.6454
8682.04 368.489 292.714 77.7963 59.5941
8684.7 216.098 255.44 43.1202 42.4553
8687.36 181.734 195.84 6.44941 35.313
8690.02 189.689 192.254 56.3694 13.9556
8692.68 205.339 251.694 -20.9519 20.5935
8695.34 360.055 279.264 26.3631 -1.95192
8698 272.4 294.676 -11.267 21.6473
8700.66 251.573 237.806 49.8459 15.0471
8703.31 189.444 249.78 6.56242 30.0087
8705.97 308.321 221.609 33.6177 39.0062
8708.63 167.062 224.023 76.8384 20.6746
8711.29 196.684 231.419 -48.4322 42.5409
8713.94 330.509 284.206 99.2165 33.1912
8716.6 325.425 273.887 48.7893 63.6846
8719.26 165.727 258.657 43.048 39.5259
8721.91 284.819 224.259 26.7403 33.7008
8724.57 222.232 259.945 31.3141 21.4903
8727.22 272.784 247.634 6.41659 23.9827
8729.88 247.885 259.091 34.2173 19.6955
8732.53 256.603 245.912 18.4526 37.1538
8735.19 233.247 240.438 58.7915 44.1191
8737.84 231.464 222.324 55.1131 25.0035
8740.5 202.261 202.007 -38.894 21.7881
8743.15 172.295 198.208 49.1451 7.33332
8745.81 220.07 213.396 11.7489 30.2377
8748.46 247.823 228.22 29.8192 20.1914
8751.11 216.767 217.482 19.0062 29.5194
8753.76 187.857 157.653 39.7327 13.866
8756.42 68.3345 198.004 -17.1407 19.3482
8759.07 337.821 180.965 35.4526 17.8151
8761.72 136.739 232.649 35.1333 39.8311
8764.37 223.387 208.293 48.9076 48.3397
8767.02 264.753 257.123 60.9782 63.2841
8769.67 283.227 218.929 79.9665 52.3169
8772.32 108.806 193.751 16.006 63.046
8774.97 189.221 262.738 93.1656 70.5016
8777.62 490.189 346.454 102.333 88.4393
8780.27 359.952 399.215 69.8191 84.5826
8782.92 347.503 264.967 81.5955 62.6537
8785.57 87.4474 219.063 36.5465 46.1929
8788.22 222.238 188.615 20.4367 50.2514
8790.87 256.158 261.108 93.7709 77.6493
8793.51 304.926 267.144 118.74 79.7348
8796.16 240.349 277.698 26.6932 75.0259
8798.81 287.819 248.907 79.644 48.4453
8801.46 218.553 260.786 38.9987 63.7982
8804.1 275.985 240.049 72.7518 22.3281
8806.75 225.608 255.895 -44.7663 37.6868
8809.39 266.093 237.348 85.0749 17.3722
8812.04 220.344 216.855 11.8079 37.0347
8814.69 164.129 162.763 14.2213 17.3647
8817.33 103.816 68.5829 26.0648 -15.9612
8819.97 -62.1967 144.211 -88.1697 3.58888
8822.62 391.013 177.619 72.8716 23.1534
8825.26 204.041 371.915 84.7584 106.785
8827.91 520.691 358.018 162.724 100.908
8830.55 349.322 266.241 55.2412 63.0178
8833.19 -71.2912 155.83 -28.9113 13.7043
8835.84 189.459 82.7255 14.7829 -19.2389
8838.48 130.009 139.055 -43.5883 -4.23393
8841.12 97.6973 109.669 16.1036 8.29261
8843.76 101.302 144.017 52.3625 37.6557
8846.4 233.051 155.429 44.5008 38.0846
8849.05 131.934 200.446 17.3904 28.6631
8851.69 236.354 163.344 24.0982 6.84544
8854.33 121.743 140.425 -20.9523 20.0216
8856.97 63.1771 99.0558 56.9188 13.6085
8859.61 112.247 152.116 4.8591 43.0145
8862.25 280.925 235.666 67.2655 36.0595
8864.89 313.827 300.813 36.0538 61.4061
8867.53 307.687 316.483 80.899 44.3387
8870.16 327.933 244.202 16.0632 47.282
8872.8 96.9859 172.317 44.884 53.7155
8875.44 92.031 94.6286 100.199 69.5796
8878.08 94.869 154.346 63.6555 65.1677
8880.72 276.138 257.964 31.6482 82.3864
8883.35 402.885 305.954 151.855 80.5506
8885.99 238.84 368.628 58.1483 87.0491
8888.63 464.161 263.572 51.1438 42.2691
8891.26 87.715 162.777 17.5153 17.0783
8893.9 -63.5439 55.7716 -17.4241 16.0533
8896.53 143.144 115.588 48.0688 10.0351
8899.17 267.165 264.148 -0.539388 44.6819
8901.8 382.135 238.096 86.5163 42.1236
8904.44 64.9889 256.411 40.3938 67.5616
8907.07 322.109 173.612 75.7747 63.4204
8909.71 133.737 153.182 74.0927 54.622
8912.34 3.69888 85.5134 13.9986 43.7837
8914.97 119.104 240.533 43.2599 46.2425
8917.61 598.795 265.979 81.469 59.753
8920.24 80.0393 410.162 54.5301 105.512
8922.87 551.651 237.871 180.538 95.3286
8925.5 81.9223 245.907 50.9181 102.206
8928.13 104.148 100.551 75.1633 59.0352
8930.76 115.582 126.724 51.0243 53.6553
8933.4 160.443 153.305 34.7785 38.7259
8936.03 183.889 168.701 30.375 13.9053
8938.66 161.772 203.995 -23.4374 -2.59975
8941.29 266.325 217.722 -14.7368 5.94396
8943.92 225.07 194.662 56.0061 30.0426
8946.55 92.59 135.444 48.8585 45.0175
8949.17 88.6719 84.2316 30.1878 40.3774
8951.8 71.4331 92.1903 42.0861 35.8156
8954.43 116.466 179.58 35.1731 33.9106
8957.06 350.841 266.553 24.4728 15.8387
8959.69 332.351 318.14 -12.1299 13.1267
8962.31 271.228 167.531 27.0371 -16.8569
8964.94 -100.985 100.891 -65.4779 -22.1859
8967.57 132.431 14.6529 -28.1169 -22.1072
8970.19 12.5127 73.9835 27.2733 7.69882
8972.82 77.0072 29.8399 23.9401 17.0711
