wavelength spectrum_sum 3smoothed_sum spectrum_optimal 3smoothed_optimal
3402.44 -15.8938 -40.0523 -90.2292 -52.7463
3405.37 -104.263 -68.1924 -68.0097 -183.312
3408.3 -84.4204 -105.732 -391.698 -279.337
3411.23 -128.514 -117.709 -378.304 -287.649
3414.16 -140.192 -129.803 -92.9436 -8.9289
3417.09 -120.705 -41.1197 444.461 -85.3214
3420.02 137.538 -40.4858 -607.481 -142.667
3422.95 -138.29 -38.7643 -264.981 -87.9363
3425.88 -115.54 -159.14 608.653 179.382
3428.8 -223.59 -86.6929 194.474 180.764
3431.73 79.0511 -92.5609 -260.836 -122.374
3434.66 -133.144 -47.9984 -300.759 -213.108
3437.59 -89.9021 -73.8808 -77.7292 -63.364
3440.52 1.40409 15.0024 188.396 50.6373
3443.45 133.505 76.273 41.2453 81.7369
3446.38 93.9096 66.9247 15.5694 105.01
3449.3 -26.6409 0.72207 258.214 217.655
3452.23 -65.1025 -88.6334 379.183 210.007
3455.16 -174.157 -67.2768 -7.37482 71.7755
3458.09 37.429 -99.3277 -156.482 28.677
3461.02 -161.255 -104.015 249.887 49.3911
3463.95 -188.22 -124.969 54.7673 95.5194
3466.88 -25.433 -130.549 -18.0964 10.8666
3469.8 -177.993 -116.664 -4.07108 5.49152
3472.73 -146.567 -176.031 38.6421 -62.2727
3475.66 -203.531 -92.7984 -221.389 -9.5384
3478.59 71.7032 -57.2972 154.132 -81.993
3481.52 -40.0637 7.27424 -178.722 -227.424
3484.44 -9.8167 25.6018 -657.681 -372.861
3487.37 126.686 18.3402 -282.181 -196.023
3490.3 -61.8485 -71.0392 351.793 74.4913
3493.23 -277.955 -193.197 153.861 40.7524
3496.16 -239.786 -229.426 -383.397 -175.394
3499.08 -170.538 -192.484 -296.645 -151.932
3502.01 -167.127 -102.411 224.245 30.8747
3504.94 30.4327 -140.01 165.024 138.783
3507.87 -283.337 -85.5195 27.0792 92.119
3510.8 -3.65438 -64.2799 84.2538 -57.3325
3513.72 94.1515 88.2807 -283.33 -269.172
3516.65 174.345 129.894 -608.439 -342.013
3519.58 121.186 95.817 -134.269 -191.199
3522.51 -8.07976 35.6382 169.11 34.0741
3525.43 -6.1914 50.3419 67.3811 165.704
3528.36 165.297 53.7347 260.621 8.97287
3531.29 2.09872 103.887 -301.083 -84.3971
3534.22 144.266 67.0642 -212.729 -67.5433
3537.14 54.8275 38.0715 311.182 5.5223
3540.07 -84.8795 32.8674 -81.8864 139.06
3543 128.654 58.5323 187.883 180.347
3545.92 131.822 144.928 435.046 116.996
3548.85 174.308 166.933 -271.941 -196.03
3551.78 194.669 222.822 -751.196 -409.778
3554.71 299.49 115.475 -206.198 -173.886
3557.63 -147.734 53.7796 435.734 154.985
3560.56 9.58366 -75.248 235.418 110.036
3563.49 -87.5932 10.1852 -341.045 -88.4836
3566.41 108.565 86.4833 -159.824 -151.866
3569.34 238.478 101.354 45.2713 -71.0425
3572.27 -42.9797 145.786 -98.5749 -238.585
3575.19 241.858 71.6053 -662.453 -397.659
3578.12 15.9375 19.4172 -431.948 -264.435
3581.05 -199.544 -60.9573 301.095 -129.154
3583.97 0.7346 -101.173 -256.61 -28.7323
3586.9 -104.711 -32.644 -130.682 -120.82
3589.83 6.04403 -35.2262 24.8329 -174.068
3592.75 -7.0121 63.3942 -416.355 -330.832
3595.68 191.151 160.728 -600.974 -486.328
3598.61 298.045 168.653 -441.654 -350.346
3601.53 16.7628 125.909 -8.40957 -185.261
3604.46 62.9181 69.1658 -105.719 -141.156
3607.38 127.816 140.638 -309.338 -215.688
3610.31 231.179 144.683 -232.006 -216.739
3613.24 75.0526 94.4307 -108.872 -88.8406
3616.16 -22.9395 75.1195 74.3559 93.3691
3619.09 173.245 58.5767 314.623 239.794
3622.01 25.4241 -27.4586 330.403 311.678
3624.94 -281.045 -100.2 290.007 278.511
3627.87 -44.979 3.23824 215.122 148.594
3630.79 335.739 161.222 -59.3486 -11.1332
3633.72 192.907 175.734 -189.173 67.7102
3636.64 -1.44537 47.6683 451.652 274.256
3639.57 -48.4563 56.6282 560.288 361.527
3642.49 219.786 66.1693 72.6397 198.365
3645.42 27.1777 143.491 -37.8333 91.6086
3648.35 183.508 84.3528 240.019 147.126
3651.27 42.3722 101.821 239.193 164.209
3654.2 79.5828 2.76698 13.4147 69.1639
3657.12 -113.654 -21.0765 -45.1163 -171.002
3660.05 -29.1581 -33.9244 -481.304 -384.713
3662.97 41.039 114.162 -627.718 -376.333
3665.9 330.606 53.9596 -19.978 -338.788
3668.82 -209.766 6.33201 -368.668 -328.609
3671.75 -101.844 -144.2 -597.18 -470.376
3674.67 -120.989 -50.4796 -445.281 -593.249
3677.6 71.3934 -47.541 -737.286 -425.922
3680.52 -93.0279 -34.2914 -95.1994 -316.122
3683.45 -81.2398 -108.726 -115.88 -124.797
3686.37 -151.911 -135.456 -163.31 -16.7256
3689.3 -173.219 -47.1837 229.014 258.768
3692.22 183.578 -99.6636 710.601 430.958
3695.15 -309.35 -24.2772 353.259 480.803
3698.07 52.9406 -135.039 378.549 324.686
3701 -148.707 23.8931 242.251 268.107
3703.92 167.445 -45.4274 183.521 53.9232
3706.85 -155.021 31.1286 -264.002 -60.6475
3709.77 80.9614 -89.1348 -101.461 -83.5381
3712.7 -193.345 -58.9783 114.849 -82.4513
3715.62 -64.5515 -111.942 -260.742 -92.6063
3718.55 -77.9287 -26.0768 -131.926 -42.9903
3721.47 64.2499 -9.91772 263.697 51.037
3724.39 -16.0743 34.4465 21.34 70.5341
3727.32 55.164 -41.612 -73.4348 -159.667
3730.24 -163.926 -19.1063 -426.906 -425.328
3733.17 51.4427 24.5863 -775.644 -466.611
3736.09 186.242 114.968 -197.282 -481.334
3739.02 107.218 180.275 -471.075 -481.755
3741.94 247.364 133.282 -776.907 -508.715
3744.86 45.2656 71.9164 -278.163 -438.044
3747.79 -76.8801 -30.5503 -259.061 -38.7047
3750.71 -60.0363 -143.398 421.109 3.21049
3753.64 -293.279 -144.738 -152.418 -78.7096
3756.56 -80.8979 -217.024 -504.821 -215.512
3759.48 -276.896 -122.683 10.7009 -241.735
3762.41 -10.2547 -128.847 -231.084 -173.33
3765.33 -99.3892 -21.2884 -299.606 -304.013
3768.25 45.7788 14.2015 -381.349 -437.359
3771.18 96.2149 -59.5563 -631.123 -499.732
3774.1 -320.663 -72.2661 -486.726 -637.788
3777.02 7.64936 -101.864 -795.516 -911.244
3779.95 7.42265 85.3172 -1451.49 -1038.86
3782.87 240.879 87.2788 -869.585 -912.627
3785.79 13.5344 112.977 -416.804 -626.514
3788.72 84.5183 53.563 -593.154 -473.783
3791.64 62.6363 82.5285 -411.392 -506.877
3794.56 100.431 62.8379 -516.086 -311.211
3797.49 25.4465 4.9329 -6.15654 37.8716
3800.41 -111.079 -127.904 635.857 508.972
3803.33 -298.079 -247.663 897.216 951.012
3806.26 -333.832 -213.801 1319.96 1150.44
3809.18 -9.49208 -72.7849 1234.15 1170.33
3812.1 124.969 86.9092 956.882 733.056
3815.03 145.25 186.574 8.13735 243.393
3817.95 289.503 291.69 -234.84 -142.623
3820.87 440.317 279.404 -201.167 -293.338
3823.79 108.391 243.005 -444.007 -128.746
3826.72 180.308 138.685 258.935 -72.3983
3829.64 127.357 81.1567 -32.1235 172.904
3832.56 -64.195 90.5749 291.9 63.3147
3835.48 208.562 68.4005 -69.832 32.9429
3838.41 60.8342 148.783 -123.239 -7.56033
3841.33 176.954 99.55 170.39 123.983
3844.25 60.8619 35.5282 324.799 108.35
3847.17 -131.231 -32.7468 -170.139 -75.4886
3850.1 -27.871 -98.4986 -381.126 -119.913
3853.02 -136.394 46.4827 191.527 9.13327
3855.94 303.713 81.6967 216.999 89.183
3858.86 77.7711 172.79 -140.977 -210.605
3861.78 136.885 165.908 -707.837 -365.973
3864.71 283.068 151.381 -249.105 -460.637
3867.63 34.1891 42.2359 -424.968 -174.324
3870.55 -190.549 12.0495 151.099 -198.854
3873.47 192.508 5.35735 -322.694 -407.435
3876.39 14.1128 3.40599 -1050.71 -688.042
3879.31 -196.403 -86.2534 -690.72 -728.657
3882.24 -76.4697 -84.2593 -444.539 -400.875
3885.16 20.095 -9.69494 -67.3649 -274.263
3888.08 27.2899 6.23884 -310.885 -160.795
3891 -28.6684 55.273 -104.134 -165.305
3893.92 167.198 114.516 -80.8979 -34.0264
3896.84 205.019 116.834 82.9526 -124.696
3899.77 -21.7139 104.651 -376.143 -583.093
3902.69 130.647 38.0783 -1456.09 -605.131
3905.61 5.30199 47.4371 16.8364 -582.457
3908.53 6.36255 16.3033 -308.121 -252.998
3911.45 37.2453 -16.6884 -467.709 -333.509
3914.37 -93.6731 -77.1963 -224.697 -35.0162
3917.29 -175.161 -63.373 587.358 126.197
3920.21 78.7151 -41.3674 15.9293 497.836
3923.13 -27.6562 51.5097 890.22 378.014
3926.06 103.47 91.3124 227.892 425.018
3928.98 198.123 144.582 156.941 -61.7248
3931.9 132.153 -1.51951 -570.007 120.802
3934.82 -334.835 -100.796 775.472 243.345
3937.74 -99.7075 -209.745 524.57 233.186
3940.66 -194.694 -76.6531 -600.485 -82.7338
3943.58 64.442 98.1469 -172.286 -254.797
3946.5 424.692 144.488 8.37918 -76.9396
3949.42 -55.6716 71.4337 -66.9118 -163.646
3952.34 -154.72 -92.2464 -432.406 -158.499
3955.26 -66.348 -36.2644 23.821 -82.5673
3958.18 112.274 -4.61513 160.883 257.705
3961.1 -59.7718 89.2905 588.41 150.957
3964.02 215.369 59.1883 -296.424 -43.7621
3966.94 21.9678 50.4453 -423.273 -240.615
3969.86 -86.0008 -16.527 -2.14831 -317.095
3972.78 14.4519 121.442 -525.865 -282.498
3975.7 435.874 216.539 -319.479 -268.244
3978.62 199.29 314.697 40.6122 -199.698
3981.54 308.927 160.431 -320.226 -519.438
3984.46 -26.9249 188.051 -1278.7 -784.736
3987.38 282.15 121.919 -755.282 -667.238
3990.3 110.533 262.028 32.2685 -310.079
3993.22 393.403 151.746 -207.222 -245.792
3996.14 -48.6983 230.748 -562.421 -1006.1
3999.06 347.54 100.899 -2248.65 -1345.62
4001.98 3.85486 111.731 -1225.78 -1174.42
4004.9 -16.2021 100.344 -48.8128 -862.949
4007.82 313.38 125.725 -1314.25 -661.12
4010.74 79.9963 163.663 -620.292 -925.208
4013.66 97.6134 74.9117 -841.079 -1053.32
4016.58 47.1253 -24.0005 -1698.6 -837.482
4019.5 -216.74 -141.534 27.233 -550.947
4022.42 -254.988 -39.1769 18.5249 -52.1601
4025.33 354.197 5.5882 -202.238 -491.123
4028.25 -82.4448 29.9193 -1289.66 -537.096
4031.17 -181.995 -123.916 -119.394 -565.824
4034.09 -107.31 -19.1559 -288.421 3.94668
4037.01 231.837 23.2777 419.655 31.3416
4039.93 -54.6936 178.01 -37.2095 -79.7872
4042.85 356.888 36.4155 -621.807 -103.205
4045.77 -192.948 186.244 349.403 -519.965
4048.69 394.792 188.062 -1287.49 -685.04
4051.6 362.343 353.012 -1117.03 -920.678
4054.52 301.902 271.003 -357.511 -652.911
4057.44 148.764 100.114 -484.188 -221.565
4060.36 -150.324 -75.2294 177.003 -27.7329
4063.28 -224.129 -82.423 223.987 -60.5672
4066.2 127.183 2.22218 -582.691 -118.051
4069.11 103.612 228.457 4.55018 -198.303
4072.03 454.575 200.439 -16.7671 -97.1156
4074.95 43.13 210.924 -279.13 110.945
4077.87 135.068 128.496 628.731 -67.6389
4080.79 207.291 192.827 -552.518 -140.186
4083.7 236.123 100.98 -496.771 -545.727
4086.62 -140.474 6.98237 -587.893 -153.792
4089.54 -74.7016 -26.3486 623.288 -379.441
4092.46 136.13 -95.4282 -1173.72 -161.06
4095.38 -347.713 -154.881 67.2501 -199.205
4098.29 -253.06 -98.5357 508.854 -281.683
4101.21 305.166 8.87262 -1421.15 -209.069
4104.13 -25.4882 59.5278 285.092 8.52979
4107.05 -101.095 4.47199 1161.65 533.071
4109.96 139.999 0.86584 152.469 553.926
4112.88 -36.3066 214.913 347.656 451.168
4115.8 541.048 249.237 853.38 255.679
4118.72 242.97 247.231 -433.998 219.332
4121.63 -42.3255 -52.7098 238.614 137.342
4124.55 -358.774 -10.6344 607.409 500.413
4127.47 369.196 185.974 655.215 615.242
4130.38 547.501 383.541 583.101 703.181
4133.3 233.925 332.607 871.227 992.403
4136.22 216.395 331.601 1522.88 892.323
4139.14 544.483 325.956 282.859 676.766
4142.05 216.99 410.154 224.557 30.2686
4144.97 468.991 350.967 -416.611 429.261
4147.89 366.92 406.965 1479.84 294.278
4150.8 384.985 351.635 -180.391 103.77
4153.72 303 342.896 -988.137 -276.055
4156.64 340.704 373.976 340.363 -516.127
4159.55 478.223 406.558 -900.607 -519.055
4162.47 400.746 346.874 -996.921 197.903
4165.39 161.653 285.8 2491.24 408.608
4168.3 295.001 249.004 -268.489 692.457
4171.22 290.357 273.801 -145.376 -402.577
4174.13 236.046 212.854 -793.865 -560.056
4177.05 112.158 132.682 -740.928 105.061
4179.97 49.8408 92.1951 1849.97 515.051
4182.88 114.586 279.378 436.106 1072.83
4185.8 673.706 345.228 932.419 381.387
4188.71 247.393 280.394 -224.362 463.25
4191.63 -79.9159 2.10136 681.695 142.908
4194.55 -161.173 1.02396 -28.6075 -163.758
4197.46 244.16 175.961 -1144.36 -667.124
4200.38 444.895 201.874 -828.402 -651.691
4203.29 -83.4338 205.654 17.6928 -373.449
4206.21 255.502 112.453 -309.638 -202.729
4209.12 165.292 268.52 -316.242 468.426
4212.04 384.765 312.537 2031.16 349.287
4214.96 387.553 278.205 -667.056 -37.9927
4217.87 62.2971 110.454 -1478.08 -442.869
4220.79 -118.489 44.7945 816.53 578.173
4223.7 190.575 147.71 2396.07 242.374
4226.62 371.044 214.933 -2485.48 -326.281
4229.53 83.1811 287.434 -889.436 -1172.11
4232.45 408.076 113.428 -141.418 -408.68
4235.36 -150.974 116.849 -195.186 -427.496
4238.28 93.4461 73.4424 -945.884 -808.438
4241.19 277.856 193.26 -1284.24 -802.249
4244.11 208.479 277.655 -176.619 216.44
4247.02 346.63 371.575 2110.18 643.371
4249.94 559.616 348.607 -3.45134 1050.68
4252.85 139.576 450.691 1045.29 496.488
4255.76 652.881 357.691 447.622 526.542
4258.68 280.616 330.116 86.7115 210.691
4261.59 56.8526 212.424 97.7408 -161.123
4264.51 299.805 340.213 -667.821 -109.996
4267.42 663.982 402.876 240.092 48.7057
4270.34 244.841 416.199 573.846 567.784
4273.25 339.773 275.915 889.413 -16.5798
4276.16 243.13 238.927 -1513 84.9716
4279.08 133.877 199.981 878.5 -97.9553
4281.99 222.934 115.79 340.632 788.79
4284.91 -9.44033 70.259 1147.24 851.459
4287.82 -2.71681 58.9123 1066.51 254.485
4290.73 188.894 190.899 -1450.29 451.709
4293.65 386.52 327.221 1738.91 -192.975
4296.56 406.25 453.862 -867.546 46.7154
4299.48 568.815 364.956 -731.215 -643.36
4302.39 119.802 294.965 -331.318 -454.279
4305.3 196.279 190.955 -300.302 405.881
4308.22 256.784 246.329 1849.26 492.66
4311.13 285.925 159.177 -70.9821 866.044
4314.04 -65.1765 63.6253 819.85 -472.114
4316.96 -29.8723 -78.1651 -2165.21 597.694
4319.87 -139.446 8.89609 3138.44 -3.34494
4322.78 196.007 67.7979 -983.267 944.286
4325.7 146.833 98.3493 677.682 501.776
4328.61 -47.7925 -16.8279 1810.91 836.373
4331.52 -149.525 -106.646 20.5231 658.391
4334.43 -122.622 -33.7726 143.737 -164.367
4337.35 170.829 172.398 -657.361 219.269
4340.26 468.988 291.751 1171.43 -187.235
4343.17 235.436 314.145 -1075.78 92.0567
4346.09 238.011 140.474 180.515 -83.7367
4349 -52.0258 74.0897 644.051 -663.295
4351.91 36.2838 54.449 -2814.45 -873.849
4354.82 179.089 278.131 -451.147 -952.638
4357.74 619.021 315.854 407.684 -70.6332
4360.65 149.452 398.847 -168.437 487.377
4363.56 428.07 314.13 1222.89 429.997
4366.47 364.87 306.697 235.542 968.326
4369.38 127.152 326.076 1446.55 388.161
4372.3 486.207 214.205 -517.61 311.233
4375.21 29.2576 296.25 4.75857 76.1934
4378.12 373.285 308.716 741.432 601.65
4381.03 523.604 396.762 1058.76 372.216
4383.94 293.397 357.834 -683.543 390.863
4386.86 256.501 391.686 797.374 617.666
4389.77 625.161 457.387 1739.17 160.324
4392.68 490.498 525.404 -2055.57 1395.65
4395.59 460.553 467.036 4503.34 -388.782
4398.5 450.057 374.413 -3614.11 583.661
4401.41 212.628 306.073 861.76 -820.504
4404.33 255.533 269.911 290.842 760.288
4407.24 341.573 304.335 1128.26 -29.0135
4410.15 315.901 345.162 -1506.14 -476.267
4413.06 378.013 396.851 -1050.92 -566.789
4415.97 496.64 419.452 856.693 449.567
4418.88 383.703 407.504 1542.92 994.09
4421.79 342.169 377.917 582.652 1243.52
4424.7 407.878 376.33 1604.97 976.849
4427.61 378.944 366.623 742.925 816.8
4430.52 313.048 385.248 102.503 -4.9375
4433.44 463.751 298.868 -860.24 342.501
4436.35 119.806 518.021 1785.24 65.2332
4439.26 970.506 401.626 -729.301 1766.36
4442.17 114.566 550.351 4243.14 1806.78
4445.08 565.981 439.668 1906.51 2777.03
4447.99 638.458 550.62 2181.45 770.056
4450.9 447.42 508.993 -1777.78 -373.112
4453.81 441.1 432.355 -1523 546.422
4456.72 408.545 512.772 4940.04 733.796
4459.63 688.671 518.122 -1215.66 875.239
4462.54 457.149 541.033 -1098.67 1036.68
4465.45 477.279 470.264 5424.37 849.709
4468.36 476.364 371.176 -1776.58 1880.23
4471.27 159.885 400.899 1992.9 -147.694
4474.18 566.45 505.077 -659.401 813.674
4477.09 788.898 522.1 1107.53 210.118
4480 210.952 338.684 182.228 682.332
4482.91 16.2014 266.525 757.239 1708.1
4485.82 572.422 437.916 4184.84 456.109
4488.73 725.123 535.465 -3573.75 405.462
4491.64 308.849 501.741 605.298 509.806
4494.55 471.251 381.645 4497.87 303.641
4497.46 364.835 287.874 -4192.25 1209.2
4500.36 27.5375 224.598 3321.97 1330.93
4503.27 281.421 350.67 4863.07 2117.99
4506.18 743.05 559.565 -1831.06 -138.117
4509.09 654.222 475.375 -3446.36 -1195.49
4512 28.8513 470.791 1690.95 -283.609
4514.91 729.299 478.595 904.587 968.713
4517.82 677.635 645.948 310.602 1180.96
4520.73 530.91 530.594 2327.69 -20.8124
4523.64 383.236 263.762 -2700.73 -386.144
4526.54 -122.859 223.929 -785.393 1378.95
4529.45 411.409 292.058 7622.97 1032.95
4532.36 587.623 476.249 -3738.72 1868.14
4535.27 429.715 564.29 1720.17 -208.559
4538.18 675.533 418.788 1392.87 2097.19
4541.09 151.118 502.339 3178.53 1102.1
4543.99 680.368 331.723 -1265.09 1305.82
4546.9 163.683 358.817 2004.03 567.866
4549.81 232.4 231.152 964.662 1016.73
4552.72 297.373 221.529 81.4893 746.075
4555.63 134.815 226.039 1192.07 310.531
4558.53 245.929 255.79 -341.97 161.664
4561.44 386.626 302.988 -365.111 383.119
4564.35 276.41 323.284 1856.44 902.547
4567.26 306.815 317.093 1216.31 904.233
4570.17 368.054 372.444 -360.055 1196.65
4573.07 442.462 518.972 2733.68 147.282
4575.98 746.4 473.35 -1931.78 1395.62
4578.89 231.189 407.796 3384.96 914.394
4581.79 245.799 256.229 1290.01 1578.71
4584.7 291.7 352.929 61.1792 612.265
4587.61 521.289 369.875 485.61 345.013
4590.52 296.637 552.161 488.251 1797.52
4593.42 838.556 637.536 4418.71 2628.46
4596.33 777.416 641.42 2978.44 1450.96
4599.24 308.288 492.052 -3044.27 882.466
4602.14 390.453 457.142 2713.23 568.938
4605.05 672.684 455.775 2037.85 2707.77
4607.96 304.187 571.987 3372.24 1899.44
4610.86 739.09 525.008 288.225 1550.89
4613.77 531.747 491.163 992.214 300.831
4616.68 202.652 468.406 -377.947 711.838
4619.58 670.818 486.874 1521.25 -579.373
4622.49 587.153 501.49 -2881.42 446.229
4625.4 246.5 469.489 2698.86 1433.89
4628.3 574.815 397.272 4484.23 1987.86
4631.21 370.502 510.026 -1219.5 899.683
4634.11 584.76 449.033 -565.677 -238.584
4637.02 391.836 525.695 1069.42 1745.31
4639.93 600.489 545.66 4732.18 1635.37
4642.83 644.655 668.337 -895.498 1642.06
4645.74 759.866 631.822 1089.5 25.0144
4648.64 490.946 583.93 -118.96 309.817
4651.55 500.978 411.884 -41.0901 1760.51
4654.45 243.727 392.239 5441.59 1256.47
4657.36 432.012 368.735 -1631.1 1283.6
4660.27 430.466 411.988 40.2996 1395.36
4663.17 373.485 397.779 5776.89 315.086
4666.08 389.387 499.676 -4871.93 1020.41
4668.98 736.155 672.099 2156.27 -1035.87
4671.89 890.754 610.259 -391.954 1916.8
4674.79 203.868 565.243 3986.08 1223.25
4677.7 601.106 315.684 75.6228 1189.19
4680.6 142.079 352.565 -494.142 102.53
4683.51 314.512 270.093 726.11 -376.715
4686.41 353.688 362.846 -1362.11 645.795
4689.32 420.337 460.608 2573.39 1153.42
4692.22 607.799 432.596 2248.99 2125.92
4695.12 269.651 627.695 1555.37 1707.88
4698.03 1005.63 578.813 1319.29 1359.33
4700.93 461.154 637.084 1203.33 1520.76
4703.84 444.465 512.651 2039.66 1229.7
4706.74 632.333 388.261 446.105 72.4554
4709.65 87.9851 274.754 -2268.4 -54.2297
4712.55 103.945 225.61 1659.61 908.001
4715.45 484.899 476.298 3332.8 1446.16
4718.36 840.05 779.969 -653.925 1768.89
4721.26 1014.96 881.9 2627.78 2370.85
4724.17 790.695 777.726 5138.69 1910.94
4727.07 527.526 548.807 -2033.65 -446.515
4729.97 328.2 420.22 -4444.58 -495.577
4732.88 404.935 542.971 4991.5 715.227
4735.78 895.779 677.6 1598.76 2764.7
4738.68 732.086 763.162 1703.84 1130.23
4741.59 661.622 636.489 88.0833 1036.38
4744.49 515.757 544.539 1317.23 92.7009
4747.39 456.238 391.85 -1127.21 -314.143
4750.3 203.556 500.679 -1132.45 -60.7502
4753.2 842.244 445.816 2077.41 1059.47
4756.1 291.649 612.762 2233.44 2187.14
4759 704.392 557.559 2250.57 2114.32
4761.91 676.636 602.564 1858.95 2068.68
4764.81 426.662 539.324 2096.51 1599.05
4767.71 514.675 532.318 841.683 774.379
4770.62 655.617 471.884 -615.057 401.173
4773.52 245.359 450.14 976.891 1729.84
4776.42 449.442 408.208 4827.69 1844.1
4779.32 529.822 384.227 -272.299 1016.02
4782.23 173.415 504.166 -1507.34 768.368
4785.13 809.26 387.399 4084.74 102.072
4788.03 179.52 413.101 -2271.19 1679.91
4790.93 250.524 291.121 3226.18 276.997
4793.83 443.321 235.269 -124 832.435
4796.74 11.9636 166.45 -604.874 -160.069
4799.64 44.0654 179.527 248.666 1097.43
4802.54 482.552 273.235 3648.5 1443.21
4805.44 293.088 371.628 432.459 1252.99
4808.34 339.245 336.207 -321.986 1442.24
4811.24 376.289 155.23 4216.24 2937.15
4814.15 -249.845 165.775 4917.2 2191.85
4817.05 370.88 148.649 -2557.89 1702.18
4819.95 324.912 285.401 2747.23 367.62
4822.85 160.412 352.907 913.528 2698.74
4825.75 573.397 298.757 4435.46 -22.3867
4828.65 162.462 345.472 -5416.15 155.117
4831.55 300.557 161.521 1446.04 -1121.93
4834.45 21.5454 201.765 604.326 499.732
4837.35 283.191 57.9049 -551.168 -525.314
4840.25 -131.022 256.821 -1629.1 436.721
4843.16 618.295 173.864 3490.43 151.125
4846.06 34.3191 250.146 -1407.96 1662.27
4848.96 97.8242 -0.976922 2904.34 1303.48
4851.86 -135.074 73.8321 2414.05 2185.31
4854.76 258.746 179.76 1237.52 1857.92
4857.66 415.609 403.342 1922.2 394.498
4860.56 535.671 467.296 -1976.23 519.325
4863.46 450.607 495.317 1612.01 131.083
4866.36 499.673 451.209 757.47 411.154
4869.26 403.346 435.728 -1136.02 -25.5183
4872.16 404.166 410.095 301.99 183.78
4875.06 422.772 414.551 1385.36 -207.694
4877.96 416.714 283.937 -2310.44 498.204
4880.86 12.3249 207.059 2419.68 116.183
4883.76 192.137 281.644 239.302 1620.98
4886.66 640.472 373.491 2203.96 1340.66
4889.56 287.865 593.589 1578.72 2344.15
4892.45 852.431 715.323 3249.76 1397.67
4895.35 1005.67 817.624 -635.48 864.071
4898.25 594.769 767.404 -22.0679 -371.809
4901.15 701.771 757.395 -457.879 419.452
4904.05 975.645 714.829 1738.3 304.248
4906.95 467.071 743.749 -367.68 520.759
4909.85 788.53 681.167 191.653 148.197
4912.75 787.901 750.26 620.617 783.073
4915.65 674.35 692.416 1536.95 1209.7
4918.55 614.998 703.526 1471.54 964.733
4921.44 821.229 612.585 -114.289 961.449
4924.34 401.529 779.438 1527.1 863.774
4927.24 1115.56 834.548 1178.51 1244.82
4930.14 986.559 895.189 1028.86 1125.38
4933.04 583.454 744.156 1168.76 1200.85
4935.94 662.454 671.952 1404.93 1156.66
4938.83 769.949 739.617 896.298 2130.54
4941.73 786.447 861.07 4090.38 1852.8
4944.63 1026.81 915.51 571.731 1417.12
4947.53 933.267 975.286 -410.742 837.416
4950.42 965.776 995.158 2351.26 823.851
4953.32 1086.43 1059.46 531.034 1923.74
4956.22 1126.18 984.994 2888.93 2307.41
4959.12 742.371 809.057 3502.27 1994.09
4962.01 558.62 674.689 -408.932 1042.39
4964.91 723.076 705.41 33.8139 167.938
4967.81 834.534 732.107 878.932 329.623
4970.71 638.71 687.06 76.1224 159.294
4973.6 587.936 642.924 -477.172 763.097
4976.5 702.127 560.708 2690.34 653.361
4979.4 392.061 461.259 -253.083 476.292
4982.29 289.59 298.026 -1008.38 -391.008
4985.19 212.427 289.085 88.4388 0.199288
4988.09 365.239 455.285 920.538 927.591
4990.98 788.188 688.737 1773.8 1921.96
4993.88 912.784 737.584 3071.53 2096.01
4996.78 511.78 773.215 1442.7 531.639
4999.67 895.082 566.157 -2919.32 313.428
5002.57 291.61 534.695 2416.9 521.93
5005.47 417.392 478.488 2068.21 1646.07
5008.36 726.462 576.422 453.103 1699.3
5011.26 585.413 644.355 2576.58 1974.24
5014.15 621.192 580.966 2893.05 1324.92
5017.05 536.294 617.26 -1494.88 -38.1641
5019.94 694.294 508.915 -1512.67 -924.897
5022.84 296.158 393.043 232.853 32.7675
5025.74 188.676 370.865 1378.12 833.493
5028.63 627.761 574.352 889.508 1654.84
5031.53 906.62 741.977 2696.9 1876.85
5034.42 691.551 768.512 2044.12 1706.45
5037.32 707.366 517.822 378.319 307.994
5040.21 154.549 417.505 -1498.46 92.1588
5043.11 390.601 386.197 1396.62 745.293
5046 613.442 563.063 2337.72 1552.3
5048.9 685.146 619.213 922.55 1707.98
5051.79 559.05 531.079 1863.68 286.122
5054.69 349.04 409.587 -1927.86 569.412
5057.58 320.672 428.065 1772.42 1027.77
5060.48 614.484 429.119 3238.75 3021.43
5063.37 352.201 510.237 4053.11 1750.15
5066.26 564.024 540.45 -2041.4 1122.82
5069.16 705.126 608.967 1356.75 734.367
5072.05 557.752 699.095 2887.76 1770.73
5074.95 834.406 721.222 1067.69 1672.09
5077.84 771.509 756.663 1060.83 -105.758
5080.74 664.075 592.361 -2445.79 61.052
5083.63 341.5 479.312 1568.12 -545.991
5086.52 432.361 379.597 -760.302 -285.386
5089.42 364.931 543.35 -1663.98 623.958
5092.31 832.758 480.765 4296.15 1579.65
5095.2 244.606 574.659 2106.78 1845.52
5098.1 646.615 470.566 -866.386 403.573
5100.99 520.478 597.387 -29.674 703.98
5103.88 625.069 566.625 3008 353.715
5106.78 554.328 647.196 -1917.18 249.818
5109.67 762.19 672.511 -341.364 -196.474
5112.56 701.015 611.901 1669.12 379.109
5115.46 372.499 503.279 -190.432 1330.81
5118.35 436.322 589.942 2513.73 1269.86
5121.24 961.006 608.129 1486.26 2242.61
5124.13 427.059 542.171 2727.85 2237.01
5127.03 238.449 564.744 2496.92 1964.5
5129.92 1028.72 668.799 668.745 1345.57
5132.81 739.224 895.076 871.055 956.409
5135.7 917.279 670.801 1329.43 238.408
5138.6 355.899 509.746 -1485.26 -567.133
5141.49 256.06 295.398 -1545.57 -249.352
5144.38 274.235 242.203 2282.77 661.031
5147.27 196.315 382.587 1245.89 1345.75
5150.16 677.21 517.4 508.58 698.639
5153.06 678.676 451.544 341.446 327.232
5155.95 -1.25362 312.758 131.671 372.13
5158.84 260.852 285.472 643.274 1207.85
5161.73 596.819 345.2 2848.61 1491.09
5164.62 177.928 441.732 981.381 1508.61
5167.51 550.449 465.451 695.833 658.487
5170.4 667.977 429.435 298.247 -87.5043
5173.3 69.8791 346.142 -1256.59 40.905
5176.19 300.57 335.341 1081.06 934.184
5179.08 635.575 382.049 2978.08 1050.96
5181.97 210.002 463.949 -906.274 1171.71
5184.86 546.268 359.419 1443.31 444.917
5187.75 321.987 396.621 797.715 1263.01
5190.64 321.607 512.785 1548.01 1124.51
5193.53 894.76 566.892 1027.79 881.81
5196.42 484.31 663.446 69.6291 678.344
5199.31 611.268 536.265 937.609 926.794
5202.2 513.218 576.326 1773.14 1468.24
5205.09 604.493 502.605 1693.97 1613.88
5207.98 390.105 537.556 1374.55 575.214
5210.87 618.068 438.024 -1342.87 16.2622
5213.76 305.898 326.04 17.1111 342.973
5216.65 54.152 253.73 2354.68 852.178
5219.54 401.14 490.295 184.743 527.588
5222.43 1015.59 652.539 -956.658 477.351
5225.32 540.882 769.229 2203.97 2325.42
5228.21 751.21 624.557 5728.93 2353.08
5231.1 581.579 716.835 -873.67 1179.53
5233.99 817.715 677.098 -1316.66 458.689
5236.88 631.999 671.638 3566.4 1226.8
5239.77 565.2 554.437 1430.65 2463.39
5242.65 466.11 459.621 2393.1 1948.46
5245.54 347.553 469.171 2021.63 1904.76
5248.43 593.849 467.039 1299.55 916.22
5251.32 459.714 507.379 -572.52 402.338
5254.21 468.574 529.739 479.981 906.644
5257.1 660.928 506.98 2812.47 1596.4
5259.99 391.438 608.477 1496.75 1649.79
5262.87 773.065 646.355 640.146 485.261
5265.76 774.561 613.34 -681.109 -318.351
5268.65 292.395 464.982 -914.09 115.669
5271.54 327.991 386.783 1942.21 640.135
5274.43 539.964 479.967 892.288 2182.64
5277.31 571.947 682.138 3713.42 2098.37
5280.2 934.503 840.868 1689.39 1572.44
5283.09 1016.15 928.438 -685.494 -88.0869
5285.98 834.656 826.065 -1268.16 -691.381
5288.87 627.385 721.003 -120.49 292.807
5291.75 700.968 789.579 2267.07 1968.63
5294.64 1040.38 747.416 3759.32 2581.14
5297.53 500.897 765.237 1717.02 1277.62
5300.41 754.431 210.5 -1643.48 676.391
5303.3 -623.828 203.633 1955.63 380.006
5306.19 480.297 238.856 827.866 1345.56
5309.07 860.099 689.356 1253.18 1102.39
5311.96 727.672 622.749 1226.13 1640.14
5314.85 280.477 466.464 2441.11 1387.07
5317.73 391.243 175.804 493.977 1082.79
5320.62 -144.307 354.598 313.291 1229.45
5323.51 816.857 595.553 2881.08 1558.03
5326.39 1114.11 965.12 1479.73 3236.85
5329.28 964.396 928.91 5349.74 1699.46
5332.17 708.226 947.398 -1731.09 1044.27
5335.05 1169.57 584.364 -485.851 56.0916
5337.94 -124.707 610.191 2385.22 1483.91
5340.82 785.707 534.176 2552.36 1419.58
5343.71 941.529 815.567 -678.84 506.172
5346.59 719.464 832.788 -355.009 -396.343
5349.48 837.372 692.036 -155.18 524.686
5352.36 519.272 661.231 2084.25 646.822
5355.25 627.05 592.472 11.398 1161.74
5358.14 631.096 550.688 1389.58 -143.434
5361.02 393.917 614.143 -1831.28 445.59
5363.91 817.416 188.219 1778.47 885.71
5366.79 -646.677 364.31 2709.95 1668.73
5369.67 922.19 369.685 517.771 1345.1
5372.56 833.542 805.779 807.595 724.537
5375.44 661.604 739.723 848.245 1691.02
5378.33 724.023 181.186 3417.21 1202.8
5381.21 -842.068 238.819 -657.061 976.447
5384.1 834.504 -154.717 169.191 212.363
5386.98 -456.587 316.433 1124.96 2000.16
5389.87 571.383 219.304 4706.34 2130.62
5392.75 543.117 175.762 560.571 1638.49
5395.63 -587.215 136.349 -351.434 1023.61
5398.52 453.146 -226.362 2861.7 740.331
5401.4 -545.016 152.484 -289.274 997.966
5404.28 549.321 200.562 421.471 589.765
5407.17 597.382 654.466 1637.1 1080.35
5410.05 816.694 640.781 1182.47 188.922
5412.93 508.269 667.236 -2252.8 77.5001
5415.82 676.746 552.328 1302.83 -103.139
5418.7 471.968 603.466 640.551 1029.69
5421.58 661.684 616.338 1145.68 1190.33
5424.47 715.363 612.979 1784.75 1195.72
5427.35 461.889 702.722 656.74 1445.65
5430.23 930.914 710.104 1895.46 803.831
5433.11 737.508 838.725 -140.708 1135.96
5436 847.753 724.595 1653.13 959.634
5438.88 588.525 760.552 1366.48 1349.35
5441.76 845.377 878.918 1028.45 1253.78
5444.64 1202.85 885.73 1366.4 440.79
5447.53 608.96 883.899 -1072.48 -67.5804
5450.41 839.885 727.427 -496.665 589.416
5453.29 733.436 763.803 3337.39 1588.15
5456.17 718.088 669.227 1923.71 1600.77
5459.05 556.156 623.542 -458.787 1237.82
5461.94 596.381 610.495 2248.53 1176.07
5464.82 678.949 668.178 1738.47 1932.67
5467.7 729.204 718.843 1811.02 1102.19
5470.58 748.377 643.381 -242.907 1595.01
5473.46 452.564 576.222 3216.93 1190.29
5476.34 527.726 496.322 596.848 1358.38
5479.22 508.677 504.565 261.364 1205.12
5482.1 477.293 349.748 2757.16 1128.12
5484.98 63.2743 356.27 365.836 1576.37
5487.86 528.242 -14.0266 1606.1 625
5490.75 -633.597 -366.129 -96.9408 36.3432
5493.63 -993.031 -235.469 -1400.13 -274.114
5496.51 920.221 -83.2982 674.732 378.313
5499.39 -177.085 356.551 1860.34 1503.3
5502.27 326.516 372.462 1974.82 1339.57
5505.15 967.956 605.727 183.545 620.398
5508.03 522.711 723.548 -297.166 695.97
5510.91 679.976 627.214 2201.53 568.239
5513.79 678.957 776.468 -199.649 936.741
5516.67 970.47 692.076 808.339 995.293
5519.55 426.801 765.619 2377.19 1509.94
5522.42 899.585 420.241 1344.31 1579.6
5525.3 -65.664 249.765 1017.3 1344.63
5528.18 -84.6258 211.564 1672.29 1613.85
5531.06 784.981 454.102 2151.95 1385.35
5533.94 661.95 227.691 331.797 1140.58
5536.82 -763.858 232.819 938.005 763.428
5539.7 800.365 166.426 1020.48 1264.2
5542.58 462.772 654.067 1834.13 814.595
5545.46 699.063 663.602 -410.822 540.173
5548.34 828.97 423.627 197.215 813.333
5551.21 -257.151 324.279 2653.61 1281.81
5554.09 401.02 242.9 994.601 1146.91
5556.97 584.83 461.021 -207.47 -245.506
5559.85 397.212 488.198 -1523.65 367.992
5562.73 482.55 451.402 2835.1 266.791
5565.6 474.444 31.6238 -511.074 1062.9
5568.48 -862.123 132.506 864.679 1190.07
5571.36 785.198 285.318 3216.59 280.028
5574.24 932.879 717.651 -3241.19 431.512
5577.11 434.877 804.111 1319.13 225.822
5579.99 1044.58 75.5615 2599.52 2018.12
5582.87 -1252.77 280.747 2135.69 1865.48
5585.75 1050.43 251.749 861.233 1502.45
5588.62 957.584 1005.07 1510.43 1269.88
5591.5 1007.19 353.891 1437.98 1114.23
5594.38 -903.103 143.339 394.278 524.493
5597.25 325.927 -46.1421 -258.78 -954.457
5600.13 438.749 16.3826 -2998.87 -434.18
5603.01 -715.529 112.392 1955.11 774.79
5605.88 613.957 317.609 3368.13 2404.55
5608.76 1054.4 781.428 1890.41 1855.98
5611.64 675.93 699.741 309.396 1124.24
5614.51 368.896 104.933 1172.91 476.491
5617.39 -730.026 118.372 -52.8349 956.518
5620.26 716.247 99.3326 1749.48 1012.47
5623.14 311.777 535.577 1340.76 1490.01
5626.01 578.707 516.918 1379.79 430.235
5628.89 660.272 631.268 -1429.84 36.9738
5631.77 654.827 637.517 160.974 -198.082
5634.64 597.454 486.499 674.619 760.334
5637.52 207.216 160.838 1445.41 580.85
5640.39 -322.157 107.352 -377.477 862.533
5643.27 436.998 212.676 1519.67 1440.64
5646.14 523.188 403.615 3179.72 1758.85
5649.02 250.658 476.587 577.148 540.713
5651.89 655.916 592.354 -2134.73 -390.551
5654.76 870.489 640.777 385.927 -103.164
5657.64 395.927 418.095 1439.31 1631.27
5660.51 -12.1309 376.644 3068.56 1308.7
5663.39 746.136 88.7245 -581.76 479.909
5666.26 -467.832 332.675 -1047.08 715.795
5669.14 719.722 -124.497 3776.22 1831.51
5672.01 -625.38 176.488 2765.39 1662.18
5674.88 435.123 282.086 -1555.07 407.972
5677.76 1036.51 795.579 13.598 370.371
5680.63 915.099 776.49 2652.58 1342.36
5683.5 377.856 602.931 1360.91 1301.26
5686.38 515.837 490.53 -109.721 610.815
5689.25 577.896 529.575 581.261 848.883
5692.12 494.99 614.885 2075.11 1365.3
5695 771.768 591.626 1439.54 1920.65
5697.87 508.12 754.991 2247.3 1063.65
5700.74 985.084 709.823 -495.895 1412.3
5703.62 636.266 823.108 2485.51 1032.9
5706.49 847.973 753.714 1109.1 1818.22
5709.36 776.903 691.355 1860.06 675.868
5712.23 449.19 216.795 -941.549 982.444
5715.1 -575.707 197.191 2028.82 473.302
5717.98 718.09 287.754 332.63 894.556
5720.85 720.879 752.334 322.215 707.98
5723.72 818.032 810.23 1469.1 858.505
5726.59 891.78 738.257 784.204 782.065
5729.46 504.958 289.35 92.8964 1092.49
5732.34 -528.689 269.758 2400.36 1320.12
5735.21 833.004 249.625 1467.09 1644.95
5738.08 444.559 608.705 1067.41 759.635
5740.95 548.552 548.31 -255.588 1406.18
5743.82 651.818 311.937 3406.72 712.45
5746.69 -264.559 264.357 -1013.78 662.542
5749.56 405.81 149.281 -405.311 -746.958
5752.43 306.591 344.941 -821.778 174.608
5755.3 322.422 413.277 1750.91 1204.45
5758.17 610.819 73.0348 2684.2 971.178
5761.05 -714.136 115.89 -1521.58 -181.176
5763.92 450.989 181.066 -1706.15 570.332
5766.79 806.345 679.524 4938.73 1843.18
5769.66 781.239 698.313 2296.96 2252.3
5772.53 507.355 563.721 -478.786 1198.6
5775.4 402.568 530.15 1777.61 1223.33
5778.27 680.526 263.407 2371.18 1201.43
5781.13 -292.874 482.48 -544.485 354.312
5784 1059.79 463.339 -763.755 584.306
5786.87 623.104 709.576 3061.16 1702.1
5789.74 445.839 484.237 2808.91 1736.69
5792.61 383.768 88.0843 -659.988 1247.5
5795.48 -565.354 119.106 1593.57 119.24
5798.35 538.904 156.329 -575.859 735.198
5801.22 495.439 643.687 1187.89 1017.28
5804.09 896.72 687.864 2439.81 1580.12
5806.96 671.434 744.93 1112.67 1570.27
5809.82 666.638 316.531 1158.32 1781.95
5812.69 -388.48 213.352 3074.86 1570.48
5815.56 361.898 -180.086 478.259 901.888
5818.43 -513.676 -160.861 -847.449 8.14963
5821.3 -330.803 -246.634 393.64 322.095
5824.17 104.578 -1.41184 1420.1 751.172
5827.03 221.99 -84.5877 439.783 -188.233
5829.9 -580.331 121.176 -2424.58 -504.901
5832.77 721.868 238.911 470.091 1144.22
5835.64 575.195 706.178 5387.16 2622.51
5838.5 821.472 737.007 2010.28 1978.32
5841.37 814.355 646.493 -1462.49 243.329
5844.24 303.651 92.2855 182.192 39.3151
5847.1 -841.15 89.9223 1398.24 802.21
5849.97 807.265 -175.28 826.196 916.945
5852.84 -491.955 205.967 526.398 426.851
5855.7 302.59 -315.05 -72.0406 156.385
5858.57 -755.784 164.372 14.7989 750.278
5861.44 946.31 188.026 2308.08 1444.74
5864.3 373.553 561.521 2011.35 915.115
5867.17 364.7 452.806 -1574.08 -94.9759
5870.04 620.167 212.228 -722.198 -396.604
5872.9 -348.183 448.13 1106.46 888.204
5875.77 1072.41 487.375 2280.35 578.285
5878.63 737.903 662.174 -1651.96 373.323
5881.5 176.212 415.785 491.578 -14.766
5884.36 333.241 385.714 1116.08 1454.74
5887.23 647.691 595.193 2756.56 1906.62
5890.09 804.647 217.358 1847.23 1620.89
5892.96 -800.263 247.95 258.898 1109.55
5895.82 739.466 222.921 1222.53 571.506
5898.69 729.561 772.854 233.093 695.719
5901.55 849.536 623.448 631.538 606.593
5904.42 291.247 599.711 955.148 1424.66
5907.28 658.349 415.332 2687.31 1518.06
5910.15 296.401 685.66 911.711 1893.08
5913.01 1102.23 707.41 2080.23 860.869
5915.87 723.601 916.947 -409.33 699.58
5918.74 925.01 773.587 427.844 -5.55233
5921.6 672.15 683.178 -35.1708 1054.48
5924.47 452.374 295.395 2770.78 1052.16
5927.33 -238.339 -131.039 420.879 181.553
5930.19 -607.151 -315.616 -2647 -437.838
5933.06 -101.359 -86.9594 912.604 -94.5336
5935.92 447.632 306.839 1450.79 818.467
5938.78 574.245 524.27 92.0062 1450.01
5941.65 550.934 402.279 2807.23 1957.45
5944.51 81.6564 428.674 2973.1 1784.4
5947.37 653.43 460.226 -427.135 1328.78
5950.23 645.591 601.609 1440.37 532.558
5953.1 505.807 237.903 584.437 649.16
5955.96 -437.69 246.584 -77.3291 547.415
5958.82 671.635 -100.105 1135.14 601.611
5961.68 -534.26 -41.0957 747.024 1607.18
5964.55 -260.663 -113.277 2939.39 2032.95
5967.41 455.09 319.572 2412.45 1805.81
5970.27 764.288 651.618 65.6005 841.249
5973.13 735.477 722.843 45.6965 817.132
5975.99 668.765 585.331 2340.1 887.104
5978.85 351.751 509.844 275.518 1288.74
5981.71 509.016 457.317 1250.59 1102.27
5984.58 511.185 625.944 1780.7 643.228
5987.44 857.633 723.191 -1101.61 509.119
5990.3 800.756 508.148 848.265 573.321
5993.16 -133.945 378.742 1973.31 1632.19
5996.02 469.416 377.046 2074.99 1740.76
5998.88 795.669 526.298 1174 1145.68
6001.74 313.81 320.626 188.045 507.447
6004.6 -147.6 192.993 160.3 664.275
6007.46 412.769 394.751 1644.48 1532.96
6010.32 919.084 616.778 2794.09 1642.09
6013.18 518.481 344.647 487.693 1395.28
6016.04 -403.624 -183.01 904.058 864.873
6018.9 -663.888 -257.213 1202.87 823.924
6021.76 295.873 222.525 364.847 597.921
6024.62 1035.59 652.517 226.047 495.257
6027.48 626.089 707.145 894.875 416.797
6030.34 459.755 126.968 129.467 993.809
6033.2 -704.941 -62.4889 1957.08 1164.62
6036.05 57.7186 30.7365 1407.32 654.663
6038.91 739.432 79.6706 -1400.42 991.241
6041.77 -558.138 301.263 2966.82 1149.91
6044.63 722.496 -174.517 1883.33 1142.9
6047.49 -687.908 -188.91 -1421.44 -197.934
6050.35 -601.319 -260.942 -1055.69 -119.692
6053.2 506.4 175.525 2118.05 1118.85
6056.06 621.494 277.079 2294.2 2092.96
6058.92 -296.657 242.275 1866.62 1346.98
6061.78 401.987 165.227 -119.894 1023.78
6064.64 390.35 395.213 1324.62 373.33
6067.49 393.303 442.205 -84.7378 1091.83
6070.35 542.962 591.169 2035.6 1027.73
6073.21 837.242 619.354 1132.32 1122.61
6076.07 477.859 272.052 199.901 826.063
6078.92 -498.944 183.851 1145.97 1060.31
6081.78 572.638 -131.75 1835.05 1152.59
6084.64 -468.943 384.725 476.75 1431.24
6087.49 1050.48 401.121 1981.91 1224.96
6090.35 621.829 799.957 1216.21 905.239
6093.2 727.565 724.623 -482.402 242.793
6096.06 824.475 756.016 -5.43054 56.8523
6098.92 716.01 624.577 658.389 482.133
6101.77 333.248 439.267 793.442 734.126
6104.63 268.545 396.95 750.547 1228.59
6107.48 589.058 581.095 2141.78 1329.15
6110.34 885.682 724.655 1095.12 1173.33
6113.2 699.225 670.746 283.089 651.991
6116.05 427.333 264.783 577.763 926.359
6118.91 -332.209 126.521 1918.22 673.192
6121.76 284.439 200.366 -476.411 785.553
6124.62 648.869 466.977 914.846 100.235
6127.47 467.623 236.544 -137.73 982.441
6130.32 -406.86 242.153 2170.21 1557.5
6133.18 665.695 -111.425 2640.03 1675.13
6136.03 -593.11 221.788 215.161 764.395
6138.89 592.78 168.768 -562.004 230.526
6141.74 506.633 462.735 1038.42 745.087
6144.6 288.792 207.638 1758.85 856.977
6147.45 -172.51 129.228 -226.335 891.706
6150.3 271.403 147.301 1142.61 980.701
6153.16 343.01 347.035 2025.83 1936.94
6156.01 426.691 203.156 2642.38 654.365
6158.86 -160.234 288.163 -2705.11 288.201
6161.72 598.033 423.016 927.337 162.333
6164.57 831.249 665.919 2264.77 931.289
6167.42 568.476 338.741 -398.24 1352.99
6170.28 -383.503 184.87 2192.45 851.112
6173.13 369.637 -202.937 759.123 833.332
6175.98 -594.945 94.3285 -451.579 342.161
6178.83 508.294 59.1181 718.938 125.32
6181.69 264.006 430.968 108.6 1027.13
6184.54 520.604 457.506 2253.84 223.686
6187.39 587.909 514.167 -1691.39 704.506
6190.24 433.989 188.925 1551.06 -219.286
6193.09 -455.123 283.627 -517.533 582.864
6195.94 872.014 -13.5014 715.062 391.625
6198.8 -457.395 22.6331 977.347 627.912
6201.65 -346.719 -0.140751 191.327 507.179
6204.5 803.692 382.513 352.862 945.272
6207.35 690.566 692.192 2291.63 897.122
6210.2 582.316 255.849 46.8792 297.8
6213.05 -505.337 149.371 -1445.1 6.57044
6215.9 371.132 161.537 1417.94 863.371
6218.75 618.817 586.245 2617.28 2142.7
6221.6 768.785 633.306 2392.9 1558.32
6224.45 512.314 321.743 -335.202 927.293
6227.3 -315.871 -23.2974 724.183 293.156
6230.15 -266.336 -7.35941 490.487 885.815
6233 560.129 -145.141 1442.78 224.863
6235.85 -729.215 51.5638 -1258.68 186.873
6238.7 323.778 -207.001 376.517 438.893
6241.55 -215.565 212.571 2198.84 568.714
6244.4 529.501 265.758 -869.213 -260.515
6247.25 483.336 552.897 -2111.17 -188.732
6250.1 645.855 67.2329 2414.19 503.381
6252.95 -927.492 149.936 1207.12 2162.87
6255.8 731.447 -97.9197 2867.31 1299.72
6258.64 -97.7138 388.757 -175.281 363.092
6261.49 532.539 274.152 -1602.75 -205.508
6264.34 387.632 465.07 1161.51 466.403
6267.19 475.04 243.578 1840.45 1325.2
6270.04 -131.939 284.367 973.639 1074.08
6272.88 510 37.0571 408.141 571.657
6275.73 -266.89 300.223 333.191 69.6051
6278.58 657.56 350.392 -532.517 -242.247
6281.43 660.505 600.854 -527.414 790.164
6284.27 484.498 568.233 3430.42 886.357
6287.12 559.697 278.084 -243.937 1356.95
6289.97 -209.942 288.083 884.374 611.19
6292.82 514.493 -29.9475 1193.13 122.666
6295.66 -394.394 94.7313 -1709.51 245.198
6298.51 164.095 47.9736 1251.97 535.69
6301.36 374.22 -11.5675 2064.61 2090.88
6304.2 -573.017 27.7546 2956.06 1632.44
6307.05 282.061 215.02 -123.342 1119.33
6309.89 936.015 501.205 525.264 346.221
6312.74 285.537 559.071 636.741 859.785
6315.59 455.662 61.7545 1417.35 988.507
6318.43 -555.936 46.0889 911.43 919.231
6321.28 238.541 -39.1975 428.913 945.79
6324.12 199.803 265.012 1497.03 798.258
6326.97 356.693 344.855 468.834 705.011
6329.81 478.068 335.299 149.171 514.926
6332.66 171.137 384.693 926.774 1013.83
6335.5 504.875 350.951 1965.56 769.71
6338.35 376.84 393.267 -583.2 941.068
6341.19 298.085 470.72 1440.85 923.292
6344.04 737.236 484.689 1912.23 1136.77
6346.88 418.748 583.797 57.232 570.958
6349.72 595.407 546.737 -256.587 286.1
6352.57 626.057 705.353 1057.66 637.592
6355.41 894.595 321.391 1111.71 1066.8
6358.25 -556.478 121.871 1031.02 933.252
6361.1 27.4981 26.0899 657.026 448.481
6363.94 607.25 480.844 -342.606 606.394
6366.78 807.783 571.755 1504.76 1027.94
6369.63 300.231 665.249 1921.66 821.559
6372.47 887.734 508.9 -961.743 929.142
6375.31 338.735 192.605 1827.51 986.023
6378.16 -648.653 66.0097 2092.3 1227.45
6381 507.947 140.067 -237.457 664.367
6383.84 560.908 416.983 138.256 288.522
6386.68 182.096 350.239 964.768 1419.85
6389.53 307.712 317.43 3156.52 1673.84
6392.37 462.481 461.68 900.228 1008.38
6395.21 614.846 300.858 -1031.59 470.547
6398.05 -174.752 329.37 1543 763.407
6400.89 548.015 48.5681 1778.81 1442.31
6403.73 -227.558 31.203 1005.13 677.913
6406.57 -226.848 -26.107 -750.204 606.39
6409.42 376.085 155.898 1564.24 391.121
6412.26 318.457 373.15 359.327 615.362
6415.1 424.909 358.584 -77.4802 103.029
6417.94 332.388 380.572 27.2409 239.718
6420.78 384.419 384.528 769.394 760.476
6423.62 436.776 327.431 1484.79 593.1
6426.46 161.097 410.912 -474.888 654.841
6429.3 634.864 430.6 954.614 810.766
6432.14 495.84 522.854 1952.57 596.903
6434.98 437.858 468.483 -1116.48 258.08
6437.82 471.75 136.387 -61.8543 -412.496
6440.66 -500.446 78.7859 -59.1586 340.04
6443.5 265.054 139 1141.13 628.338
6446.34 652.391 369.282 803.038 1071.2
6449.17 190.4 453.439 1269.42 729.717
6452.01 517.525 333.149 116.694 73.4555
6454.85 291.521 417.561 -1165.74 -318.51
6457.69 443.638 380.072 93.5224 -287.598
6460.53 405.057 386.139 209.428 1237.47
6463.37 309.722 261.294 3409.46 1314.1
6466.21 69.1035 -119.274 323.4 1113.3
6469.04 -736.648 -62.144 -392.971 439.263
6471.88 481.113 -125.445 1387.36 889.776
6474.72 -120.801 -182.352 1674.94 1201.32
6477.56 -907.368 -252.726 541.655 573.977
6480.39 269.989 -92.9218 -494.663 265.75
6483.23 358.613 70.2188 750.259 525.103
6486.07 -417.946 114.776 1319.71 458.201
6488.9 403.66 95.4459 -695.37 -15.0789
6491.74 300.624 256.667 -669.58 -325.06
6494.58 65.718 128.365 389.771 207.956
6497.41 18.753 217.689 903.679 955.752
6500.25 568.596 273.165 1573.81 1834.55
6503.09 232.144 362.694 3026.17 1014.75
6505.92 287.342 -37.1306 -1555.73 442.763
6508.76 -630.878 30.2306 -142.145 -185.301
6511.59 434.228 8.89668 1141.97 192.325
6514.43 223.34 92.5958 -422.855 768.189
6517.27 -379.781 30.7727 1585.45 691.592
6520.1 248.759 -186.363 912.184 1318.94
6522.94 -428.067 17.9891 1459.18 618.178
6525.77 233.276 -3.81631 -516.833 -20.5904
6528.61 183.343 341.586 -1004.12 63.9925
6531.44 608.14 408.761 1712.93 857.631
6534.27 434.799 535.992 1864.08 1674.68
6537.11 565.037 463.651 1447.03 1193.46
6539.94 391.115 308.719 269.271 499.266
6542.78 -29.9961 238.975 -218.499 98.5263
6545.61 355.805 195.114 244.807 214.213
6548.44 259.533 249.98 616.331 709.623
6551.28 134.603 379.188 1267.73 674.481
6554.11 743.428 435.167 139.383 146.261
6556.94 427.471 341.528 -968.331 128.153
6559.78 -146.316 294.591 1213.41 1441.77
6562.61 602.618 389.607 4080.25 1699.95
6565.44 712.518 447.854 -193.818 916.876
6568.28 28.4266 564.298 -1135.8 160.178
6571.11 951.95 667.464 1810.15 1253.2
6573.94 1022.02 981.82 3085.26 1825.22
6576.77 971.493 951.753 580.235 829.036
6579.6 861.75 902.362 -1178.39 203.045
6582.44 873.843 902.308 1207.29 546.863
6585.27 971.331 863.937 1611.69 1719.84
6588.1 746.637 925.605 2340.54 1781.36
6590.93 1058.85 724.481 1391.84 1662.97
6593.76 367.962 680.241 1256.54 1530.83
6596.59 613.916 683.527 1944.1 1572.49
6599.42 1068.7 884.947 1516.84 1220.1
6602.26 972.222 897.683 199.375 1486.54
6605.09 652.124 908.747 2743.41 1383.39
6607.92 1101.89 775.616 1207.38 1212.36
6610.75 572.829 915.761 -313.708 1332.29
6613.58 1072.56 684.053 3103.18 1393.8
6616.41 406.77 899.686 1391.92 2165.72
6619.24 1219.73 901.301 2002.06 1249.63
6622.07 1077.4 906.023 354.901 1112.86
6624.9 420.937 896.524 981.619 1230.89
6627.73 1191.23 989.703 2356.14 1782.04
6630.55 1356.94 1239.34 2008.37 1390.27
6633.38 1169.86 1203.12 -193.682 714.198
6636.21 1082.56 843.389 327.906 594.705
6639.04 277.756 672.724 1649.89 1444.08
6641.87 657.858 606.377 2354.44 1348.4
6644.7 883.517 846.897 40.8707 1491.36
6647.53 999.315 983.17 2078.76 1695.58
6650.35 1066.68 1088.54 2967.11 1561.64
6653.18 1199.64 1121.63 -360.965 1181.28
6656.01 1098.58 993.654 937.688 513.241
6658.84 682.742 780.324 962.999 1310.9
6661.66 559.645 781.921 2032.02 1499.31
6664.49 1103.38 968.302 1502.9 1463.2
6667.32 1241.88 1167.24 854.67 938.296
6670.15 1156.47 1081.27 457.315 1212.47
6672.97 845.455 1096.71 2325.42 1702.49
6675.8 1288.21 1088.37 2324.73 1827.25
6678.63 1131.44 972.66 831.587 1373.4
6681.45 498.335 946.425 963.871 1118.48
6684.28 1209.5 730.145 1559.99 1583.87
6687.1 482.602 860.398 2227.76 2089.61
6689.93 889.092 825.086 2481.08 2046.15
6692.76 1103.56 1018.33 1429.6 1538.77
6695.58 1062.34 1065.1 705.637 780.911
6698.41 1029.39 992.776 207.494 723.757
6701.23 886.593 961.289 1258.14 1003.43
6704.06 967.882 861.576 1544.67 1303.04
6706.88 730.253 853.124 1106.32 1299.63
6709.71 861.238 603.472 1247.91 1165.72
6712.53 218.924 380.41 1142.93 317.159
6715.36 61.0688 480.992 -1439.36 530.488
6718.18 1162.98 704.124 1887.89 1087.41
6721 888.319 915.937 2813.69 2205.9
6723.83 696.509 623.008 1916.11 1372.26
6726.65 284.194 280.157 -613.035 1091.46
6729.48 -140.232 114.937 1971.29 1022.65
6732.3 200.849 258.068 1709.69 1521.85
6735.12 713.586 361.857 884.583 381.693
6737.94 171.137 500.166 -1449.2 478.684
6740.77 615.776 541.5 2000.66 892.54
6743.59 837.587 734.66 2126.15 2093.33
6746.41 750.616 757.983 2153.18 1552.12
6749.24 685.745 712.911 377.037 623.14
6752.06 702.373 679.282 -660.799 172.335
6754.88 649.729 733.249 800.767 -392.649
6757.7 847.645 723.806 -1317.91 -32.0631
6760.52 674.045 713.276 420.958 758.032
6763.35 618.139 613.194 3171.05 1750.11
6766.17 547.4 304.345 1658.33 1648.08
6768.99 -252.502 51.678 114.872 516.041
6771.81 -139.863 164.257 -225.076 104.917
6774.63 885.136 458.467 424.956 126.949
6777.45 630.127 657.763 180.967 1087.51
6780.27 458.027 642.537 2656.61 1190.53
6783.09 839.455 648.489 734.011 1490.45
6785.91 647.985 746.41 1080.74 860.862
6788.73 751.789 700.721 767.837 1126.87
6791.55 702.389 614.802 1532.05 1295.82
6794.37 390.229 599.202 1587.57 1460.28
6797.19 704.989 643.627 1261.22 898.305
6800.01 835.663 730.379 -153.884 735.123
6802.83 650.485 779.307 1098.03 841.281
6805.65 851.772 665.138 1579.7 1407.92
6808.47 493.157 653.048 1546.05 723.697
6811.29 614.216 517.956 -954.653 247.754
6814.11 446.495 454.956 151.868 183.327
6816.92 304.157 275.104 1352.76 1248
6819.74 74.6604 49.112 2239.37 1786.95
6822.56 -231.481 189.191 1768.71 1258.92
6825.38 724.393 391.909 -231.328 91.2404
6828.2 682.815 420.709 -1263.66 -261.986
6831.01 -145.08 385.15 709.03 421.213
6833.83 617.714 390.179 1818.27 1026.13
6836.65 697.902 579.492 551.098 1151.6
6839.47 422.86 623.831 1085.45 1309.47
6842.28 750.732 541.63 2291.87 987.094
6845.1 451.297 597.812 -416.037 121.999
6847.92 591.407 613.547 -1509.84 -109.22
6850.73 797.936 453.366 1598.22 447.487
6853.55 -29.2449 377.421 1254.08 1675.38
6856.36 363.573 286.062 2173.83 1077.8
6859.18 523.858 395.064 -194.509 922.065
6862 297.762 422.742 786.871 317.613
6864.81 446.605 180.889 360.476 540.575
6867.63 -201.7 -45.2898 474.378 -202.168
6870.44 -380.775 -187.502 -1441.36 -379.34
6873.26 19.9676 -187.543 -171.042 244.37
6876.07 -201.822 133.268 2345.51 1049.18
6878.89 581.659 212.606 973.068 1286.13
6881.7 257.982 510.251 539.815 142.544
6884.51 691.113 520.387 -1085.25 483.195
6887.33 612.066 510.519 1995.02 141.757
6890.14 228.377 431.903 -484.497 641.9
6892.96 455.265 174.428 415.176 460.797
6895.77 -160.359 239.508 1451.71 1302.59
6898.58 423.617 251.729 2040.88 1262.59
6901.4 491.929 476.28 295.171 995.979
6904.21 513.295 450.343 651.884 305.69
6907.02 345.806 249.234 -29.9845 140.502
6909.84 -111.399 228.737 -200.394 157.611
6912.65 451.804 211.522 703.211 742.462
6915.46 294.16 321.307 1724.57 1548.97
6918.27 217.956 381.41 2219.12 1642.31
6921.09 632.114 300.82 983.242 1554.49
6923.9 52.3882 447.368 1461.11 289.614
6926.71 657.601 370.872 -1575.51 262.786
6929.52 402.626 449.302 902.759 157.08
6932.33 287.68 330.477 1143.99 643.09
6935.14 301.124 341.635 -117.476 331.821
6937.95 436.101 497.825 -31.0504 109.525
6940.76 756.248 383.849 477.102 1092.35
6943.58 -40.8026 403.881 2831.01 981.419
6946.39 496.198 214.155 -363.854 795.554
6949.2 187.071 375.456 -80.4953 255.297
6952.01 443.1 394.902 1210.24 775.559
6954.82 554.535 508.561 1196.93 831.171
6957.63 528.048 452.399 86.3411 319.55
6960.44 274.614 290.857 -324.625 367.291
6963.25 69.9089 248.48 1340.16 676.712
6966.05 400.916 132.874 1014.61 1040.4
6968.86 -72.2023 130.908 766.445 967.221
6971.67 64.0108 75.4049 1120.61 1083.05
6974.48 234.406 265.231 1362.1 836.646
6977.29 497.277 395.627 27.2243 796.535
6980.1 455.199 449.211 1000.28 768.042
6982.91 395.158 393.439 1276.62 735.254
6985.71 329.959 267.635 -71.1405 196.428
6988.52 77.7892 302.727 -616.2 74.7655
6991.33 500.431 277.589 911.637 709.851
6994.14 254.548 412.098 1834.12 1330
6996.94 481.314 404.694 1244.24 1012.93
6999.75 478.22 458.61 -39.5749 42.3409
7002.56 416.296 457.066 -1077.64 39.2786
7005.37 476.681 450.284 1235.06 399.115
7008.17 457.876 488.761 1039.94 1213.24
7010.98 531.726 379.184 1364.72 833.803
7013.78 147.949 364.282 96.7574 819.325
7016.59 413.17 167.005 996.5 800.034
7019.4 -60.1035 219.846 1306.84 879.676
7022.2 306.47 229.344 335.685 637.234
7025.01 441.666 463.746 269.175 878.769
7027.81 643.1 540.074 2031.45 827.173
7030.62 535.457 522.791 180.896 1108.43
7033.42 389.817 438.821 1112.95 853.134
7036.23 391.191 211.69 1265.56 488.955
7039.03 -145.937 227.995 -911.642 462.8
7041.84 438.731 190.548 1034.49 -93.973
7044.64 278.849 376.614 -404.763 747.368
7047.44 412.26 369.617 1612.38 304.8
7050.25 417.742 455.95 -293.217 953.101
7053.05 537.847 310.942 1540.14 1090.87
7055.86 -22.7641 392.185 2025.69 1279.11
7058.66 661.472 352.3 271.509 1162.41
7061.46 418.192 511.549 1190.03 541.648
7064.27 454.982 368.143 163.408 1007.64
7067.07 231.255 363.909 1669.48 1215.47
7069.87 405.491 224.679 1813.52 774.81
7072.67 37.2919 328.938 -1158.57 419.964
7075.48 544.032 310.53 604.943 -103.032
7078.28 350.265 387.854 244.53 985.933
7081.08 269.266 354.616 2108.33 657.503
7083.88 444.317 338.967 -380.348 753.92
7086.68 303.316 273.885 533.781 483.417
7089.48 74.0204 324.556 1296.82 901.603
7092.28 596.333 337.691 874.21 893.398
7095.09 342.72 369.331 509.167 575.211
7097.89 168.939 302.588 342.255 67.7894
7100.69 396.105 155.541 -648.054 -157.592
7103.49 -98.4208 333.641 -166.978 187.331
7106.29 703.24 218.134 1377.02 987.375
7109.09 49.5817 350.66 1752.08 934.922
7111.89 299.158 95.9991 -324.337 209.645
7114.69 -60.7429 19.437 -798.806 107.059
7117.49 -180.105 -21.7876 1444.32 668.16
7120.29 175.484 112.648 1358.97 1467.75
7123.08 342.565 203.771 1599.98 1354.23
7125.88 93.2651 146.987 1103.75 683.561
7128.68 5.13161 116.877 -653.04 86.1948
7131.48 252.235 102.118 -192.124 -177.794
7134.28 48.9875 207.075 311.782 528.727
7137.08 320.002 270.684 1466.52 815.781
7139.87 443.062 380.82 669.038 920.134
7142.67 379.395 383.546 624.844 252.689
7145.47 328.181 226.021 -535.815 233.538
7148.27 -29.5139 200.153 611.586 -168.832
7151.06 301.791 217.699 -582.267 676.505
7153.86 380.82 304.383 2000.2 875.718
7156.66 230.538 95.61 1209.23 1198.4
7159.45 -324.529 100.123 385.767 378.88
7162.25 394.36 152.669 -458.353 122.992
7165.05 388.175 416.005 441.562 372.138
7167.84 465.48 452.64 1133.21 713.462
7170.64 504.266 321.544 565.619 591.267
7173.43 -5.11479 282.852 74.9771 595.577
7176.23 349.406 251.224 1146.14 968.634
7179.03 409.38 361.994 1684.79 1427.29
7181.82 327.196 393.936 1450.94 1101.21
7184.62 445.231 331.911 167.9 552.29
7187.41 223.307 168.961 38.0346 161.511
7190.2 -161.656 69.2942 278.598 636.358
7193 146.231 0.980259 1592.44 708.287
7195.79 18.3651 58.4774 253.82 962.739
7198.59 10.8357 -5.02375 1041.95 781.974
7201.38 -44.272 96.7085 1050.15 839.736
7204.17 323.562 55.7659 427.106 244.211
7206.97 -111.992 241.317 -744.622 23.8157
7209.76 512.381 234.555 388.962 -271.929
7212.55 303.276 449.08 -460.129 486.436
7215.35 531.582 338.831 1530.48 725.227
7218.14 181.634 316.27 1105.33 731.377
7220.93 235.594 268.641 -441.678 171.662
7223.72 388.695 275.389 -148.671 123.23
7226.52 201.877 379.684 960.039 833.226
7229.31 548.481 361.861 1688.31 968.607
7232.1 335.224 369.686 257.469 705.199
7234.89 225.352 288.078 169.817 348.586
7237.68 303.659 322.052 618.47 624.244
7240.47 437.146 222.585 1084.44 728.837
7243.26 -73.0487 359.337 483.597 708.755
7246.05 713.915 260.116 558.224 399.809
7248.84 139.482 327.525 157.606 319.842
7251.63 129.177 237.387 243.695 320.233
7254.42 443.502 297.923 559.398 544.616
7257.21 321.09 149.548 830.754 311.972
7260 -315.948 55.0661 -454.236 371.121
7262.79 160.057 12.2616 736.845 690.906
7265.58 192.676 265.574 1790.11 656.738
7268.37 443.989 313.95 -556.739 217.199
7271.16 305.186 260.124 -581.772 584.346
7273.95 31.198 47.5531 2891.55 1071.19
7276.74 -193.725 -6.34963 903.79 1450.2
7279.53 143.478 103.249 555.27 825.706
7282.31 359.993 43.4271 1018.06 537.488
7285.1 -373.19 -44.4644 39.1381 -57.305
7287.89 -120.197 -158.377 -1229.11 158.761
7290.68 18.2564 -58.212 1666.26 548.875
7293.46 -72.6959 123.258 1209.48 923.482
7296.25 424.215 264.731 -105.29 864.657
7299.04 442.673 226.317 1489.78 137.3
7301.83 -187.937 270.717 -972.593 631.077
7304.61 557.416 265.086 1376.04 223.395
7307.4 425.778 538.268 266.739 876.194
7310.18 631.61 291.953 985.803 1158.84
7312.97 -181.528 50.7652 2223.97 843.169
7315.76 -297.786 -86.0064 -680.269 317.713
7318.54 221.295 -36.2771 -590.565 -294.561
7321.33 -32.3403 -21.3566 387.152 345.584
7324.11 -253.025 -150.931 1240.17 742.898
7326.9 -167.428 -181.885 601.375 1311.35
7329.68 -125.201 9.36516 2092.5 1302.35
7332.47 320.725 305.771 1213.17 920.391
7335.25 721.788 297.765 -544.502 594.804
7338.03 -149.219 205.209 1115.74 382.659
7340.82 43.0587 -16.0214 576.739 432.783
7343.6 58.0956 86.9321 -394.131 622.592
7346.39 159.642 81.6242 1685.17 459.006
7349.17 27.135 231.559 85.9813 1061.61
7351.95 507.9 239.198 1413.68 776.889
7354.73 182.56 425.09 831.006 1116.07
7357.52 584.811 368.476 1103.53 329.684
7360.3 338.059 379.749 -945.482 31.3772
7363.08 216.378 308.038 -63.9139 149.983
7365.86 369.677 319.584 1459.34 924.076
7368.65 372.696 358.98 1376.8 1054.53
7371.43 334.566 302.975 327.454 166.806
7374.21 201.664 309.279 -1203.84 41.7302
7376.99 391.607 329.578 1001.57 516.957
7379.77 395.463 125.104 1753.13 796.85
7382.55 -411.758 6.93505 -364.157 233.174
7385.33 37.0997 -145.656 -689.457 -150.246
7388.11 -62.3113 121.088 602.875 689.76
7390.89 388.477 229.305 2155.86 855.989
7393.67 361.75 315.609 -190.77 498.328
7396.45 196.6 323.739 -470.106 -73.3452
7399.23 412.866 338.2 440.841 428.071
7402.01 405.132 384.52 1313.48 1015.18
7404.79 335.562 398.655 1291.23 805.209
7407.57 455.272 237.848 -189.084 191.35
7410.35 -77.2884 53.3451 -528.1 334.125
7413.13 -217.948 -37.6702 1719.56 1022.78
7415.91 182.226 102.887 1876.88 1073.45
7418.68 344.384 245.09 -376.088 753.205
7421.46 208.66 157.094 758.821 21.475
7424.24 -81.7605 215.292 -318.308 547.994
7427.02 518.976 259.765 1203.47 466.798
7429.8 342.081 447.496 515.232 1132.06
7432.57 481.432 382.049 1677.48 556.302
7435.35 322.635 140.611 -523.805 455.117
7438.13 -382.234 40.2112 211.678 273.823
7440.9 180.233 67.7292 1133.6 382.799
7443.68 405.189 256.468 -196.878 104.465
7446.46 183.983 267.883 -623.325 115.144
7449.23 214.479 231.384 1165.63 467.702
7452.01 295.691 321.849 860.794 947.85
7454.78 455.376 249.262 817.121 522.677
7457.56 -3.28056 244.521 -109.886 522.004
7460.33 281.468 157.353 858.778 -49.765
7463.11 193.872 128.192 -898.187 476.616
7465.88 -90.7629 136.249 1469.26 533.811
7468.66 305.639 163.969 1030.36 1094.78
7471.43 277.031 104.358 784.711 1188.03
7474.2 -269.597 8.97147 1749.01 1134.94
7476.98 19.48 25.3742 871.096 521.971
7479.75 326.24 195.695 -1054.19 -110.729
7482.53 241.366 327.066 -149.091 -191.305
7485.3 413.59 320.667 629.367 190.476
7488.07 307.043 354.882 91.1529 516.096
7490.84 344.014 103.078 827.768 529.753
7493.62 -341.823 58.3039 670.339 1177.68
7496.39 172.721 65.1985 2034.94 1064.26
7499.16 364.698 283.811 487.518 492.671
7501.93 314.014 308.21 -1044.44 -167.853
7504.71 245.918 230.899 53.3626 -90.6614
7507.48 132.764 231.984 719.094 439.858
7510.25 317.271 142.44 547.118 587.311
7513.02 -22.7147 151.502 495.722 583.001
7515.79 159.948 15.3644 706.164 127.852
7518.56 -91.14 272.412 -818.331 318.9
7521.33 748.429 365.355 1068.87 298.773
7524.1 438.775 352.707 645.782 697.721
7526.87 -129.082 275.934 378.513 134.338
7529.64 518.108 204.364 -621.281 -53.0021
7532.41 224.064 346.347 83.7617 189.704
7535.18 296.868 347.763 1106.63 421.399
7537.95 522.356 348.609 73.8035 926.868
7540.72 226.602 371.781 1600.17 487.717
7543.49 366.384 119.629 -210.822 762.248
7546.26 -234.1 -17.3882 897.396 411.799
7549.02 -184.449 -75.6095 548.821 508.435
7551.79 191.72 106.378 79.0859 417.731
7554.56 311.864 151.398 625.286 643.734
7557.33 -49.3917 219.267 1226.83 478.662
7560.09 395.328 211.9 -416.129 454.03
7562.86 289.763 183.582 551.387 191.011
7565.63 -134.345 35.4668 437.775 400.484
7568.4 -49.0177 40.0373 212.29 351.896
7571.16 303.475 230.259 405.624 542.506
7573.93 436.319 331.326 1009.61 477.722
7576.69 254.185 335.093 17.9374 206.55
7579.46 314.775 281.344 -407.891 565.847
7582.23 275.073 176.476 2087.5 676.958
7584.99 -60.4211 148.482 351.269 930.753
7587.76 230.794 132.668 353.492 187.751
7590.52 227.629 217.883 -141.51 302.219
7593.29 195.224 219.362 694.675 339.639
7596.05 235.233 167.941 465.753 875.661
7598.82 73.3671 134.053 1466.55 532.945
7601.58 93.5602 44.5703 -333.474 294.746
7604.34 -33.2165 56.0948 -248.841 -294.755
7607.11 107.941 12.7051 -301.951 -189.265
7609.87 -36.609 43.1149 -17.0032 -40.1119
7612.63 58.0128 112.241 198.618 162.654
7615.4 315.32 223.154 306.347 98.7994
7618.16 296.128 276.97 -208.567 326.077
7620.92 219.46 256.198 880.451 437.47
7623.68 253.006 276.476 640.525 614.683
7626.45 356.963 192.354 323.073 377.772
7629.21 -32.9066 139.434 169.719 388.336
7631.97 94.2452 100.47 672.216 411.279
7634.73 240.073 157.581 391.903 241.419
7637.49 138.425 187.568 -339.863 174.245
7640.25 184.208 151.195 470.696 171.965
7643.02 130.954 81.3935 385.061 234.502
7645.78 -70.9811 115.879 -152.252 -357.685
7648.54 287.664 133.155 -1305.86 -296.259
7651.3 182.782 195.792 569.34 101.213
7654.06 116.929 136.309 1040.16 735.522
7656.82 109.215 159.305 597.062 609.597
7659.58 251.77 162.002 191.563 199.549
7662.33 125.019 215.248 -189.98 130.534
7665.09 268.955 218.979 390.019 331.136
7667.85 262.965 270.659 793.37 44.2924
7670.61 280.058 224.995 -1050.51 188.777
7673.37 131.962 289.085 823.474 595.49
7676.13 455.235 316.669 2013.51 1035.34
7678.89 362.81 329.981 269.047 638.789
7681.64 171.898 269.288 -366.188 277.927
7684.4 273.154 88.4567 930.923 319.642
7687.16 -179.683 13.685 394.192 478.735
7689.92 -52.4163 -2.2677 111.091 448.97
7692.67 225.296 114.889 841.628 664.752
7695.43 171.788 142.724 1041.54 970.209
7698.19 31.0887 156.149 1027.46 764.68
7700.94 265.571 267.245 225.041 516.356
7703.7 505.076 311.397 296.565 223.142
7706.45 163.543 321.637 147.821 385.037
7709.21 296.292 291.429 710.724 245.827
7711.96 414.453 261.715 -121.064 75.3686
7714.72 74.3992 59.9796 -363.554 639.269
7717.47 -308.914 67.1879 2402.42 859.312
7720.23 436.078 156.626 539.065 1066.46
7722.98 342.715 270.381 257.9 481.212
7725.74 32.349 200.548 646.672 432.379
7728.49 226.579 194.097 392.567 525.694
7731.24 323.362 96.1378 537.843 722.979
7734 -261.528 130.422 1238.53 826.482
7736.75 329.433 113.951 703.076 436.925
7739.5 273.948 251.257 -630.827 113.445
7742.26 150.391 229.715 268.087 284.737
7745.01 264.806 302.441 1216.95 827.52
7747.76 492.127 196.822 997.524 979.585
7750.51 -166.466 141.153 724.279 1065.1
7753.26 97.7962 148.7 1473.5 1235.75
7756.02 514.768 281.295 1509.48 952.379
7758.77 231.32 344.233 -125.847 632.512
7761.52 286.611 136.443 513.9 169.176
7764.27 -108.603 149.46 119.476 263.119
7767.02 270.372 147.73 155.981 134.292
7769.77 281.42 164.369 127.418 92.3848
7772.52 -58.6859 130.865 -6.24438 319.788
7775.27 169.86 118.045 838.191 601.608
7778.02 242.961 151.393 972.879 662.905
7780.77 41.3586 207.263 177.645 750.878
7783.52 337.469 78.6417 1102.11 352.556
7786.27 -142.903 158.314 -222.087 237.271
7789.02 280.377 198.186 -168.21 180.343
7791.77 457.085 292.441 931.324 747.868
7794.51 139.862 255.636 1480.49 775.165
7797.26 169.963 139.035 -86.3178 292.556
7800.01 107.282 88.2025 -516.503 175.672
7802.76 -12.6374 130.653 1129.84 106.437
7805.51 297.315 127.784 -294.023 263.519
7808.25 98.6743 260.716 -45.2568 -72.8022
7811 386.159 211.818 120.873 409.671
7813.75 150.62 88.7808 1153.4 281.304
7816.49 -270.437 82.9944 -430.357 560.227
7819.24 368.8 111.954 957.641 805.48
7821.98 237.498 284.321 1889.16 1141.16
7824.73 246.665 275.454 576.673 630.566
7827.48 342.197 248.718 -574.131 263.002
7830.22 157.293 223.625 786.463 63.7093
7832.97 171.386 175.138 -21.2044 467.449
7835.71 196.735 193.894 637.087 351.936
7838.46 213.561 258.997 439.927 303.109
7841.2 366.696 330.94 -167.688 -111.783
7843.94 412.563 311.121 -607.589 301.526
7846.69 154.105 246.668 1679.86 733.516
7849.43 173.336 101.82 1128.28 923.57
7852.18 -21.9822 97.8708 -37.4253 868.856
7854.92 142.259 155.899 1515.71 439.334
7857.66 347.42 276.152 -160.284 568.746
7860.4 338.778 316.229 350.811 463.192
7863.15 262.49 336.901 1199.05 601.652
7865.89 409.434 289.602 255.094 796.644
7868.63 196.881 108.638 935.789 807.754
7871.37 -280.4 -51.7904 1232.38 560.654
7874.11 -71.8522 -33.726 -486.204 588.005
7876.86 251.074 137.333 1017.84 172.446
7879.6 232.776 208.028 -14.2981 727.76
7882.34 140.234 183.78 1179.74 686.894
7885.08 178.33 261.6 895.24 722.382
7887.82 466.236 223.516 92.1661 515.662
7890.56 25.9826 300.332 559.579 498.538
7893.3 408.779 262.154 843.868 846.228
7896.04 351.701 255.118 1135.24 387.82
7898.78 4.87382 202.75 -815.645 256.302
7901.52 251.675 136.62 449.313 -26.0031
7904.26 153.311 248.573 288.322 437.617
7906.99 340.732 216.529 575.216 432.055
7909.73 155.545 256.529 432.626 397.038
7912.47 273.311 204.71 183.272 489.43
7915.21 185.273 248.875 852.391 764.251
7917.95 288.04 228.519 1257.09 868.343
7920.68 212.244 225.35 495.548 342.769
7923.42 175.765 6.54279 -724.333 10.895
7926.16 -368.381 -5.1372 261.47 206.967
7928.89 177.204 -109.76 1083.77 447.985
7931.63 -138.104 57.1374 -1.28045 257.927
7934.37 132.312 86.8323 -308.703 108.05
7937.1 266.289 221.928 634.134 282.587
7939.84 267.184 196.315 522.331 567.336
7942.57 55.4721 164.643 545.544 503.332
7945.31 171.272 137.68 442.121 549.631
7948.04 186.296 167.369 661.229 280.021
7950.78 144.537 134.024 -263.286 -110.838
7953.51 71.2402 153.831 -730.456 -393.883
7956.25 245.716 84.6282 -187.907 18.5831
7958.98 -63.0721 -22.8078 974.112 606.936
7961.72 -251.068 -50.4654 1034.6 1141.32
7964.45 162.743 142.303 1415.23 692.203
7967.18 515.232 166.308 -373.227 357.57
7969.92 -179.052 114.921 30.7028 90.8138
7972.65 8.58347 82.0964 614.965 282.604
7975.38 416.757 -6.52378 202.146 152.907
7978.11 -444.912 93.6105 -358.39 310.144
7980.84 308.986 5.07115 1086.68 256.24
7983.58 151.139 275.544 40.4321 376.2
7986.31 366.506 215.419 1.49094 489.168
7989.04 128.613 268.585 1425.58 827.01
7991.77 310.634 265.407 1053.96 904.018
7994.5 356.974 206.043 232.515 156.49
7997.23 -49.481 75.5606 -817.001 -198.605
7999.96 -80.8115 67.2307 -11.3288 55.8307
8002.69 331.985 72.3285 995.822 671.644
8005.42 -34.1874 169.597 1030.44 918.291
8008.15 210.995 50.3179 728.613 578.873
8010.88 -25.8536 125.587 -22.4305 447.872
8013.61 191.62 21.8203 637.435 -36.7239
8016.34 -100.305 87.0946 -725.176 290.548
8019.07 169.969 42.558 959.386 400.714
8021.8 58.0098 18.4181 967.931 456.282
8024.52 -172.725 14.5118 -558.472 101.425
8027.25 158.251 117.584 -105.183 -168.663
8029.98 367.227 264.619 157.666 282.932
8032.71 268.381 179.12 796.314 377.758
8035.43 -98.2492 133.027 179.295 133.711
8038.16 228.948 87.0532 -574.476 97.9086
8040.89 130.461 163.357 688.907 358.478
8043.61 130.663 171.544 961.003 746.303
8046.34 253.508 159.613 588.999 788.358
8049.07 94.6686 149.442 815.071 347.266
8051.79 100.149 80.5384 -362.273 354.727
8054.52 46.7976 84.4935 611.383 362.077
8057.24 106.534 81.7931 837.122 302.532
8059.97 92.0476 63.6274 -540.91 189.628
8062.69 -7.69942 -10.377 272.672 230.512
8065.41 -115.479 76.3904 959.775 645.266
8068.14 352.35 39.928 703.351 379.893
8070.86 -117.087 50.1616 -523.448 31.6488
8073.59 -84.7783 35.128 -84.9568 29.4206
8076.31 307.249 77.4972 696.667 271.435
8079.03 10.0209 160.661 202.595 479.344
8081.76 164.714 141.657 538.769 292.203
8084.48 250.235 172.929 135.245 406.034
8087.2 103.838 169.673 544.087 364.681
8089.92 154.947 225.916 414.71 132.872
8092.64 418.964 236.874 -560.18 32.3512
8095.37 136.71 290.88 242.524 -119.507
8098.09 316.965 178.612 -40.8655 289.739
8100.81 82.1613 169.343 667.557 323.846
8103.53 108.903 145.286 344.846 412.138
8106.25 244.794 77.9239 224.009 171.267
8108.97 -119.926 43.3065 -55.0545 292.899
8111.69 5.05139 -15.0642 709.744 266.714
8114.41 69.6817 -2.20564 145.453 255.373
8117.13 -81.3501 38.2657 -89.0765 -146.622
8119.85 126.465 43.1183 -496.243 -32.4284
8122.57 84.2396 143.47 488.035 -62.3388
8125.29 219.705 19.0777 -178.808 241.128
8128 -246.711 -7.52424 414.156 192.226
8130.72 4.43374 -19.6109 341.33 371.331
8133.44 183.445 154.079 358.508 469.924
8136.16 274.358 218.072 709.935 309.646
8138.87 196.414 225.809 -139.505 184.69
8141.59 206.656 177.825 -16.3586 241.934
8144.31 130.406 174.444 881.667 458.973
8147.03 186.269 148.824 511.611 417.498
8149.74 129.797 103.623 -140.784 198.297
8152.46 -5.19606 63.8718 224.065 26.9146
8155.17 67.0142 4.14744 -2.53674 110.184
8157.89 -49.3758 34.1918 109.023 257.956
8160.6 84.9369 80.904 667.383 456.408
8163.32 207.151 155.637 592.818 500.637
8166.03 174.825 165.582 241.709 424.727
8168.75 114.771 154.857 439.653 121.187
8171.46 174.975 127.733 -317.801 10.3101
8174.18 93.4538 149.483 -90.9219 74.7677
8176.89 180.021 142.972 633.026 347.111
8179.6 155.441 221.406 499.228 150.437
8182.32 328.757 167.315 -680.943 -127.987
8185.03 17.7473 164.262 -202.245 40.2702
8187.74 146.28 121.205 1004 470.058
8190.46 199.586 155.145 608.42 496.902
8193.17 119.568 135.716 -121.711 -297.534
8195.88 87.9925 122.477 -1379.31 -547.858
8198.59 159.87 164.582 -142.552 -101.304
8201.3 245.884 170.004 1217.95 363.638
8204.01 104.257 191.279 15.5144 448.32
8206.72 223.694 191.749 111.494 115.849
8209.44 247.294 202.956 220.539 287.094
8212.15 137.881 113.148 529.248 368.46
8214.86 -45.73 51.2702 355.593 537.082
8217.57 61.6599 45.7635 726.406 372.071
8220.28 121.361 30.3522 34.2131 128.594
8222.98 -91.9636 55.2215 -374.838 18.2664
8225.69 136.267 62.0364 395.424 12.7522
8228.4 141.805 132.391 17.6708 164.031
8231.11 119.101 70.8561 78.9999 210.071
8233.82 -48.3382 9.8648 533.543 219.56
8236.53 -41.1686 -13.2526 46.1369 85.2985
8239.23 49.749 6.83017 -323.785 167.718
8241.94 11.9101 97.5443 780.803 64.8595
8244.65 230.974 98.9496 -262.44 318.887
8247.36 53.9649 181.977 438.297 276.635
8250.06 260.991 161.856 654.049 513.097
8252.77 170.612 214.004 446.946 442.615
8255.48 210.409 149.312 226.849 238.797
8258.18 66.9151 90.6448 42.5973 82.8051
8260.89 -5.38919 93.8419 -21.0309 160.795
8263.59 220 41.3714 460.82 46.0008
8266.3 -90.4964 28.0297 -301.786 47.9773
8269 -45.4143 -31.4855 -15.1017 -24.1071
8271.71 41.4541 62.031 244.567 206.191
8274.41 190.053 145.041 389.107 142.473
8277.11 203.615 204.521 -206.256 217.722
8279.82 219.893 104.371 470.314 29.4974
8282.52 -110.394 102.776 -175.565 380.248
8285.22 198.828 -60.7576 845.994 321.048
8287.93 -270.707 71.3375 292.716 507.453
8290.63 285.891 45.1449 383.649 205.501
8293.33 120.25 84.2042 -59.8631 -18.0422
8296.03 -153.529 83.6581 -377.913 -181.106
8298.74 284.253 115.464 -105.542 354.69
8301.44 215.667 210.475 1547.52 386.123
8304.14 131.505 76.2447 -283.614 52.1006
8306.84 -118.438 77.6209 -1107.61 -151.164
8309.54 219.796 41.8537 937.732 252.282
8312.24 24.2031 153.192 926.722 835.257
8314.94 215.578 108.276 641.316 647.45
8317.64 85.0461 180.912 374.311 262.572
8320.34 242.113 148.09 -227.91 -218.749
8323.04 117.112 87.6152 -802.647 -292.381
8325.74 -96.3788 -4.94798 153.414 55.2563
8328.44 -35.5767 65.3363 815.001 365.983
8331.14 327.964 122.861 129.533 277.982
8333.83 76.1957 171.261 -110.59 37.8589
8336.53 109.622 176.216 94.6334 271.755
8339.23 342.83 303.882 831.222 213.691
8341.93 459.193 310.017 -284.784 325.952
8344.62 128.027 267.526 431.417 140.86
8347.32 215.358 158.452 275.946 -208.624
8350.02 131.973 225.149 -1333.24 236.943
8352.71 328.117 223.529 1768.12 126.375
8355.41 210.498 139.59 -55.7576 746.061
8358.11 -119.846 108.26 525.823 99.0883
8360.8 234.128 94.7772 -172.801 278.521
8363.5 170.049 188.513 482.541 173.207
8366.19 161.363 129.537 209.88 256.569
8368.89 57.1986 143.113 77.2858 -117.915
8371.58 210.779 140.941 -640.911 -92.7201
8374.27 154.846 267.715 285.465 190.691
8376.97 437.52 312.957 927.519 324.757
8379.66 346.506 340.477 -238.713 261.764
8382.35 237.406 248.891 96.4866 -61.3195
8385.05 162.761 113.053 -41.7326 337.387
8387.74 -61.0079 99.2531 957.407 220.547
8390.43 196.007 70.4772 -254.033 144.708
8393.12 76.4328 227.194 -269.248 149.2
8395.82 409.142 303.239 970.883 136.372
8398.51 424.142 358.33 -292.517 264.219
8401.2 241.707 257.062 114.292 -130.727
8403.89 105.337 170.586 -213.957 30.8081
8406.58 164.713 122.705 192.089 -78.2909
8409.27 98.0648 146.869 -213.005 -99.2081
8411.96 177.828 122.517 -276.708 172.89
8414.65 91.657 147.82 1008.38 303.843
8417.34 173.975 156.811 179.853 514.475
8420.03 204.802 195.306 355.187 512.782
8422.72 207.141 269.541 1003.31 209.077
8425.41 396.679 249.666 -731.262 539.224
8428.1 145.177 278.641 1345.63 469.599
8430.78 294.066 170.833 794.431 605.136
8433.47 73.2565 92.7632 -324.651 274.627
8436.16 -89.0327 84.2675 354.101 -134.772
8438.85 268.579 130.337 -433.767 211.871
8441.53 211.464 175.973 715.278 282.39
8444.22 47.8751 118.31 565.658 387.713
8446.91 95.5916 113.336 -117.799 -149.558
8449.59 196.541 135.972 -896.534 -81.1013
8452.28 115.782 221.592 771.029 277.092
8454.97 352.452 194.728 956.78 618.513
8457.65 115.949 199.963 127.729 223.522
8460.34 131.489 93.8383 -413.944 2.78939
8463.02 34.0768 28.8595 294.582 347.367
8465.71 -78.9871 18.3152 1161.46 346.8
8468.39 99.856 -12.9994 -415.643 148.571
8471.07 -59.8671 79.0798 -300.103 -128.131
8473.76 197.251 105.227 331.353 -11.2699
8476.44 178.298 133.157 -65.0591 156.702
8479.12 23.9227 88.0964 203.811 142.95
8481.81 62.0688 72.4509 290.099 43.0471
8484.49 131.361 33.9247 -364.768 58.909
8487.17 -91.6557 106.173 251.397 73.2676
8489.85 278.813 152.404 333.175 64.7678
8492.53 270.055 167.916 -390.268 16.4253
8495.22 -45.1213 145.316 106.369 169.852
8497.9 211.013 138.249 793.456 245.678
8500.58 248.856 223.928 -162.79 240.999
8503.26 211.916 191.62 92.3316 24.1454
8505.94 114.088 94.0344 142.895 -43.247
8508.62 -43.9001 3.30361 -364.968 -114.696
8511.3 -60.2766 -1.8748 -122.016 -31.7705
8513.98 98.5523 21.3544 391.673 271.013
8516.66 25.7874 47.9726 543.383 346.453
8519.34 19.5782 66.8815 104.303 103.605
8522.01 155.279 99.9716 -336.871 -163.878
8524.69 125.058 117.559 -259.066 -178.427
8527.37 72.3402 103.446 60.6551 -66.8173
8530.05 112.941 86.385 -2.0412 312.623
8532.72 73.8734 88.2535 879.255 298.402
8535.4 77.9456 99.2781 17.9933 278.547
8538.08 146.015 110.431 -61.6083 33.4843
8540.75 107.333 142.954 144.068 191.751
8543.43 175.514 124.385 492.794 80.9601
8546.11 90.3087 186.15 -393.982 -8.52545
8548.78 292.628 199.886 -124.389 -105.447
8551.46 216.721 223.305 202.031 76.5231
8554.13 160.565 167.205 151.928 306.671
8556.81 124.328 138.419 566.055 197.23
8559.48 130.365 137.053 -126.293 269.719
8562.16 156.466 136.203 369.395 13.2968
8564.83 121.777 152.096 -203.211 170.951
8567.5 178.044 198.1 346.668 105.301
8570.18 294.479 198.067 172.445 49.8549
8572.85 121.679 159.674 -369.548 -25.6076
8575.52 62.8654 98.0526 120.281 -21.6529
8578.19 109.614 118.341 184.309 95.1718
8580.87 182.544 169.814 -19.0742 74.3568
8583.54 217.285 236.364 57.8357 26.4601
8586.21 309.262 229.542 40.6187 182.425
8588.88 162.078 202.16 448.822 92.7078
8591.55 135.14 121.639 -211.317 103.342
8594.22 67.6985 146.075 72.5216 -37.6122
8596.89 235.386 160.594 25.9593 111.727
8599.56 178.698 154.362 236.701 147.566
8602.23 48.9999 44.7061 180.037 279.647
8604.9 -93.5801 41.0534 422.203 163.186
8607.57 167.74 79.4223 -112.684 137.726
8610.24 164.106 179.188 103.66 26.6101
8612.91 205.716 208.45 88.8539 162.72
8615.58 255.528 207.264 295.646 166.331
8618.24 160.549 200.224 114.494 101.628
8620.91 184.595 150.765 -105.258 17.6163
8623.58 107.15 115.932 43.6124 45.759
8626.25 56.0517 134.727 198.922 358.767
8628.91 240.98 168.261 833.767 389.653
8631.58 207.75 109.046 136.27 281.901
8634.24 -121.593 37.3006 -124.335 -103.427
8636.91 25.7446 -29.2421 -322.217 -25.9762
8639.58 8.12222 25.9575 368.623 257.018
8642.24 44.0057 96.1945 724.647 339.668
8644.91 236.456 133.382 -74.2646 45.2476
8647.57 119.683 150.658 -514.639 -220.496
8650.23 95.8362 118.625 -72.5826 -273.11
8652.9 140.356 100.963 -232.108 -17.3664
8655.56 66.6979 128.138 252.591 -17.4504
8658.23 177.36 107.26 -72.8348 202.576
8660.89 77.7233 115.289 427.972 260.936
8663.55 90.7847 158.491 427.671 382.628
8666.21 306.965 183.063 292.242 111.816
8668.88 151.439 149.228 -384.465 48.3784
8671.54 -10.72 111.436 237.358 38.0818
8674.2 193.588 104.9 261.352 224.005
8676.86 131.831 159.555 173.304 227.88
8679.52 153.244 169.342 248.986 241.375
8682.18 222.951 143.896 301.836 216.855
8684.84 55.4917 123.51 99.7427 164.895
8687.5 92.0861 89.0339 93.1064 60.6306
8690.16 119.524 86.6186 -10.9573 128.232
8692.82 48.2457 126.454 302.547 180.888
8695.48 211.591 155.186 251.075 275.775
8698.14 205.72 184.765 273.703 135.983
8700.8 136.983 131.71 -116.829 26.88
8703.46 52.427 134.874 -76.234 32.6108
8706.11 215.211 183.453 290.895 -4.33878
8708.77 282.72 219.715 -227.678 174.599
8711.43 161.213 233.952 460.58 57.6886
8714.09 257.922 188.258 -59.8363 179.506
8716.74 145.638 180.56 137.775 104.912
8719.4 138.12 165.695 236.798 205.421
8722.06 213.326 182.253 241.691 170.869
8724.71 195.314 181.677 34.1178 95.6113
8727.37 136.389 171.215 11.0251 33.212
8730.02 181.942 179.325 54.4929 125.292
8732.68 219.644 201.635 310.359 105.168
8735.33 203.318 195.39 -49.3474 12.5439
8737.99 163.209 160.796 -223.38 16.3829
8740.64 115.861 180.833 321.876 -12.6992
8743.29 263.428 225.116 -136.593 76.2634
8745.95 296.059 249.911 43.5079 72.7089
8748.6 190.248 176.206 311.212 145.817
8751.25 42.3129 150.667 82.7303 169.5
8753.9 219.44 131.896 114.558 139.174
8756.56 133.935 249.955 220.232 96.1125
8759.21 396.491 263.841 -46.4529 51.8633
8761.86 261.098 274.347 -18.1895 -86.4617
8764.51 165.453 229.476 -194.743 92.3668
8767.16 261.877 141.391 490.033 206.081
8769.81 -3.15582 179.146 322.952 153.487
8772.46 278.717 129.688 -352.523 -176.064
8775.11 113.503 180.467 -498.62 -146.864
8777.76 149.18 143.031 410.55 155.453
8780.41 166.411 229.397 554.429 324.052
8783.06 372.599 230.582 7.17566 171.839
8785.71 152.735 244.073 -46.0884 -136.407
8788.36 206.884 207.171 -370.307 -73.1986
8791 261.896 266.204 196.8 -13.9979
8793.65 329.833 291.029 131.514 107.955
8796.3 281.357 310.162 -4.4477 85.3961
8798.95 319.294 238.775 129.122 166.528
8801.59 115.673 234.569 374.909 194.25
8804.24 268.74 180.56 78.7181 185.262
8806.89 157.267 219.571 102.158 67.1097
8809.53 232.705 155.734 20.4526 31.7556
8812.18 77.2311 158.744 -27.344 -45.6971
8814.82 166.296 126.675 -130.2 -8.82403
8817.47 136.498 160.756 131.072 -8.37432
8820.11 179.476 239.134 -25.9949 69.4317
8822.76 401.427 149.856 103.218 122.571
8825.4 -131.336 91.7714 290.49 296.098
8828.04 5.22298 94.3591 494.584 436.372
8830.69 409.19 243.018 524.042 554.578
8833.33 314.639 325.91 645.107 274.805
8835.97 253.901 181.238 -344.735 -36.0873
8838.62 -24.8266 148.5 -408.634 -264.91
8841.26 216.425 189.007 -41.362 -220.308
8843.9 375.421 267.448 -210.929 -123.498
8846.54 210.498 279.941 -118.204 -131.101
8849.18 253.903 233.386 -64.1716 -62.3694
8851.82 235.757 194.592 -4.73281 -43.5343
8854.46 94.1145 128.997 -61.6984 -91.5083
8857.1 57.1195 103.157 -208.094 -111.037
8859.74 158.238 130.627 -63.3199 -43.427
8862.38 176.525 168.147 141.133 54.0339
8865.02 169.678 209.481 84.2889 87.3212
8867.66 282.24 203.621 36.542 45.1351
8870.3 158.944 212.69 14.5745 6.17849
8872.94 196.886 202.105 -32.581 16.1359
8875.57 250.485 229.905 66.4142 -33.6242
8878.21 242.344 205.258 -134.706 86.216
8880.85 122.946 256.738 326.94 106.115
8883.49 404.925 219.756 126.11 74.7437
8886.12 131.397 247.264 -228.818 -89.587
8888.76 205.47 111.777 -166.053 -111.196
8891.39 -1.53618 91.5134 61.2826 -131.518
8894.03 70.6064 50.8603 -289.784 -112.265
8896.67 83.5107 110.543 -108.294 -116.432
8899.3 177.513 153.497 48.7821 -4.86479
8901.94 199.467 106.842 44.9174 68.002
8904.57 -56.4556 167.419 110.306 17.0182
8907.2 359.246 160.917 -104.169 12.1232
8909.84 179.962 242.051 30.2325 -40.276
8912.47 186.946 163.931 -46.8914 74.9193
8915.1 124.885 202.679 241.417 53.4493
8917.74 296.206 203.561 -34.1774 6.07213
8920.37 189.593 239.345 -189.023 -31.6675
8923 232.237 206.224 128.198 -72.899
8925.63 196.843 258.34 -157.872 25.0134
8928.26 345.94 222.752 104.714 -44.9105
8930.89 125.472 212.077 -81.5736 10.9733
8933.53 164.82 131.796 9.77951 21.8862
8936.16 105.095 138.329 137.453 -2.91374
8938.79 145.074 108.229 -155.973 -91.6224
8941.42 74.5171 165.611 -256.346 -132.136
8944.05 277.244 120.429 15.912 -29.6882
8946.67 9.52709 146.658 151.37 71.8329
8949.3 153.204 135.603 48.2168 31.3471
8951.93 244.08 169.731 -105.545 -66.2162
8954.56 111.91 263.13 -141.32 -119.192
8957.19 433.401 217.014 -110.71 -116.174
8959.82 105.729 178.858 -96.4911 109.484
8962.44 -2.55519 -21.469 535.654 84.6734
8965.07 -167.581 -44.1741 -185.142 19.3791
8967.7 37.6139 -1.61859 -292.374 -156.165
8970.32 125.111 82.5555 9.02098 -146.082
8972.95 84.9412 70.0175 -154.892 -48.6238
