wavelength spectrum_sum 3smoothed_sum spectrum_optimal 3smoothed_optimal
3402.44 -18.2064 -4.45187 -90.2292 -52.7463
3405.37 4.85081 -25.4439 -68.0097 -183.312
3408.3 -62.9761 -17.6911 -391.698 -279.337
3411.23 5.05212 -15.0411 -378.304 -287.649
3414.16 12.8007 16.3634 -92.9436 -8.9289
3417.09 31.2375 29.5247 444.461 -85.3214
3420.02 44.536 23.1541 -607.481 -142.667
3422.95 -6.31111 23.6425 -264.981 -87.9363
3425.88 32.7027 25.4932 608.653 179.382
3428.8 50.0881 31.2427 194.474 180.764
3431.73 10.9373 16.8982 -260.836 -122.374
3434.66 -10.3309 1.33395 -300.759 -213.108
3437.59 3.39542 13.0772 -77.7292 -63.364
3440.52 46.1671 27.9881 188.396 50.6373
3443.45 34.4018 41.1173 41.2453 81.7369
3446.38 42.7832 20.1711 15.5694 105.01
3449.3 -16.6717 3.7041 258.214 217.655
3452.23 -14.9991 -1.30838 379.183 210.007
3455.16 27.7457 -11.6861 -7.37482 71.7755
3458.09 -47.8049 -7.16957 -156.482 28.677
3461.02 -1.44955 -11.7808 249.887 49.3911
3463.95 13.9121 1.46295 54.7673 95.5194
3466.88 -8.07368 -8.5226 -18.0964 10.8666
3469.8 -31.4062 1.11241 -4.07108 5.49152
3472.73 42.8171 -12.0182 38.6421 -62.2727
3475.66 -47.4655 -33.1845 -221.389 -9.5384
3478.59 -94.9053 -51.8394 154.132 -81.993
3481.52 -13.1474 -36.2138 -178.722 -227.424
3484.44 -0.588717 -6.76872 -657.681 -372.861
3487.37 -6.57005 -13.8989 -282.181 -196.023
3490.3 -34.5378 -28.8558 351.793 74.4913
3493.23 -45.4594 -56.2014 153.861 40.7524
3496.16 -88.607 -44.1212 -383.397 -175.394
3499.08 1.70275 -29.204 -296.645 -151.932
3502.01 -0.707653 2.33492 224.245 30.8747
3504.94 6.00965 -7.32111 165.024 138.783
3507.87 -27.2653 -8.22769 27.0792 92.119
3510.8 -3.42739 -7.53545 84.2538 -57.3325
3513.72 8.08636 9.59184 -283.33 -269.172
3516.65 24.1166 23.513 -608.439 -342.013
3519.58 38.336 30.8435 -134.269 -191.199
3522.51 30.078 27.8467 169.11 34.0741
3525.43 15.1262 32.1305 67.3811 165.704
3528.36 51.1875 40.9391 260.621 8.97287
3531.29 56.5037 57.4132 -301.083 -84.3971
3534.22 64.5483 88.1866 -212.729 -67.5433
3537.14 143.508 96.5415 311.182 5.5223
3540.07 81.5684 91.1863 -81.8864 139.06
3543 48.4826 64.5461 187.883 180.347
3545.92 63.5874 42.6888 435.046 116.996
3548.85 15.9963 41.974 -271.941 -196.03
3551.78 46.3382 2.73647 -751.196 -409.778
3554.71 -54.1251 13.4761 -206.198 -173.886
3557.63 48.2152 20.4653 435.734 154.985
3560.56 67.3059 11.6783 235.418 110.036
3563.49 -80.4863 -12.9109 -341.045 -88.4836
3566.41 -25.5521 -13.9181 -159.824 -151.866
3569.34 64.284 13.9587 45.2713 -71.0425
3572.27 3.14419 22.0452 -98.5749 -238.585
3575.19 -1.2926 -22.6763 -662.453 -397.659
3578.12 -69.8804 -28.6484 -431.948 -264.435
3581.05 -14.7723 -22.6066 301.095 -129.154
3583.97 16.8328 4.82355 -256.61 -28.7323
3586.9 12.4101 22.5066 -130.682 -120.82
3589.83 38.2768 -6.33888 24.8329 -174.068
3592.75 -69.7035 7.75094 -416.355 -330.832
3595.68 54.6796 17.232 -600.974 -486.328
3598.61 66.72 50.3171 -441.654 -350.346
3601.53 29.5519 20.0433 -8.40957 -185.261
3604.46 -36.142 -26.4748 -105.719 -141.156
3607.38 -72.8341 -8.69561 -309.338 -215.688
3610.31 82.8893 19.0259 -232.006 -216.739
3613.24 47.0226 65.1907 -108.872 -88.8406
3616.16 65.6603 52.1972 74.3559 93.3691
3619.09 43.9088 68.8612 314.623 239.794
3622.01 97.0145 49.4842 330.403 311.678
3624.94 7.52915 60.2101 290.007 278.511
3627.87 76.0867 45.8684 215.122 148.594
3630.79 53.9895 88.3545 -59.3486 -11.1332
3633.72 134.987 92.9547 -189.173 67.7102
3636.64 89.8873 148.593 451.652 274.256
3639.57 220.904 132.527 560.288 361.527
3642.49 86.7898 124.35 72.6397 198.365
3645.42 65.3553 84.3389 -37.8333 91.6086
3648.35 100.872 116.104 240.019 147.126
3651.27 182.084 118.877 239.193 164.209
3654.2 73.6746 120.331 13.4147 69.1639
3657.12 105.235 53.9487 -45.1163 -171.002
3660.05 -17.0638 13.4376 -481.304 -384.713
3662.97 -47.8586 3.35127 -627.718 -376.333
3665.9 74.9762 -17.0693 -19.978 -338.788
3668.82 -78.3256 -36.9924 -368.668 -328.609
3671.75 -107.628 -70.2766 -597.18 -470.376
3674.67 -24.8765 -56.3827 -445.281 -593.249
3677.6 -36.6438 -40.2279 -737.286 -425.922
3680.52 -59.1633 -36.8951 -95.1994 -316.122
3683.45 -14.878 -55.916 -115.88 -124.797
3686.37 -93.7067 -48.2186 -163.31 -16.7256
3689.3 -36.0712 -19.9631 229.014 258.768
3692.22 69.8886 18.7759 710.601 430.958
3695.15 22.5103 40.8822 353.259 480.803
3698.07 30.2478 15.0159 378.549 324.686
3701 -7.71047 36.3155 242.251 268.107
3703.92 86.4092 20.54 183.521 53.9232
3706.85 -17.0789 31.9812 -264.002 -60.6475
3709.77 26.6133 -15.5797 -101.461 -83.5381
3712.7 -56.2734 -31.2052 114.849 -82.4513
3715.62 -63.9555 -26.0887 -260.742 -92.6063
3718.55 41.9628 -3.82226 -131.926 -42.9903
3721.47 10.5259 33.6699 263.697 51.037
3724.39 48.521 34.7469 21.34 70.5341
3727.32 45.1939 8.68769 -73.4348 -159.667
3730.24 -67.6518 -7.62236 -426.906 -425.328
3733.17 -0.409171 -11.5888 -775.644 -466.611
3736.09 33.2945 40.3901 -197.282 -481.334
3739.02 88.2849 66.281 -471.075 -481.755
3741.94 77.2635 84.6718 -776.907 -508.715
3744.86 88.4671 85.5397 -278.163 -438.044
3747.79 90.8884 68.1781 -259.061 -38.7047
3750.71 25.1787 75.1231 421.109 3.21049
3753.64 109.302 38.6221 -152.418 -78.7096
3756.56 -18.6146 33.6692 -504.821 -215.512
3759.48 10.3199 4.35732 10.7009 -241.735
3762.41 21.3667 -46.9967 -231.084 -173.33
3765.33 -172.677 -56.4384 -299.606 -304.013
3768.25 -18.0053 -6.14091 -381.349 -437.359
3771.18 172.259 23.1479 -631.123 -499.732
3774.1 -84.8103 40.5749 -486.726 -637.788
3777.02 34.2758 -27.2274 -795.516 -911.244
3779.95 -31.1477 -43.0092 -1451.49 -1038.86
3782.87 -132.156 -47.3728 -869.585 -912.627
3785.79 21.1851 -41.4359 -416.804 -626.514
3788.72 -13.3373 41.9768 -593.154 -473.783
3791.64 118.083 13.8546 -411.392 -506.877
3794.56 -63.1817 22.4697 -516.086 -311.211
3797.49 12.5082 5.55171 -6.15654 37.8716
3800.41 67.3287 57.6456 635.857 508.972
3803.33 93.1 70.0271 897.216 951.012
3806.26 49.6526 109.337 1319.96 1150.44
3809.18 185.258 95.0752 1234.15 1170.33
3812.1 50.315 90.0725 956.882 733.056
3815.03 34.6445 59.7416 8.13735 243.393
3817.95 94.2652 85.3607 -234.84 -142.623
3820.87 127.172 83.235 -201.167 -293.338
3823.79 28.2674 75.6626 -444.007 -128.746
3826.72 71.548 70.0116 258.935 -72.3983
3829.64 110.219 82.0069 -32.1235 172.904
3832.56 64.2533 62.4242 291.9 63.3147
3835.48 12.7998 26.9725 -69.832 32.9429
3838.41 3.86427 24.1792 -123.239 -7.56033
3841.33 55.8736 32.8302 170.39 123.983
3844.25 38.7526 57.8471 324.799 108.35
3847.17 78.915 33.6514 -170.139 -75.4886
3850.1 -16.7134 7.79607 -381.126 -119.913
3853.02 -38.8134 14.7167 191.527 9.13327
3855.94 99.6771 36.29 216.999 89.183
3858.86 48.0064 39.5974 -140.977 -210.605
3861.78 -28.8913 35.7647 -707.837 -365.973
3864.71 88.1789 25.2302 -249.105 -460.637
3867.63 16.4031 27.5938 -424.968 -174.324
3870.55 -21.8006 19.2368 151.099 -198.854
3873.47 63.1078 28.1934 -322.694 -407.435
3876.39 43.273 5.44095 -1050.71 -688.042
3879.31 -90.0579 -61.7432 -690.72 -728.657
3882.24 -138.445 -68.0189 -444.539 -400.875
3885.16 24.4459 -71.3971 -67.3649 -274.263
3888.08 -100.192 -73.3078 -310.885 -160.795
3891 -144.177 -61.7345 -104.134 -165.305
3893.92 59.166 -38.3119 -80.8979 -34.0264
3896.84 -29.9247 1.77646 82.9526 -124.696
3899.77 -23.912 -38.4261 -376.143 -583.093
3902.69 -61.4416 -23.3723 -1456.09 -605.131
3905.61 15.2367 10.3587 16.8364 -582.457
3908.53 77.2809 29.876 -308.121 -252.998
3911.45 -2.88968 2.16516 -467.709 -333.509
3914.37 -67.8957 -36.7669 -224.697 -35.0162
3917.29 -39.5152 -50.4675 587.358 126.197
3920.21 -43.9915 -23.7605 15.9293 497.836
3923.13 12.2252 -7.99403 890.22 378.014
3926.06 7.78421 48.2537 227.892 425.018
3928.98 124.752 74.3694 156.941 -61.7248
3931.9 90.5723 63.595 -570.007 120.802
3934.82 -24.5389 29.868 775.472 243.345
3937.74 23.5705 -6.82618 524.57 233.186
3940.66 -19.5101 -8.13931 -600.485 -82.7338
3943.58 -28.4783 29.1741 -172.286 -254.797
3946.5 135.511 18.8628 8.37918 -76.9396
3949.42 -50.4438 9.8412 -66.9118 -163.646
3952.34 -55.5433 -30.2939 -432.406 -158.499
3955.26 15.1053 -32.2838 23.821 -82.5673
3958.18 -56.4134 4.5538 160.883 257.705
3961.1 54.9696 22.9274 588.41 150.957
3964.02 70.2262 74.6286 -296.424 -43.7621
3966.94 98.6901 78.1211 -423.273 -240.615
3969.86 65.4469 75.6333 -2.14831 -317.095
3972.78 62.7628 73.1261 -525.865 -282.498
3975.7 91.1685 40.1862 -319.479 -268.244
3978.62 -33.3726 58.3233 40.6122 -199.698
3981.54 117.174 42.5884 -320.226 -519.438
3984.46 43.9639 81.0229 -1278.7 -784.736
3987.38 81.9306 98.7238 -755.282 -667.238
3990.3 170.277 136.794 32.2685 -310.079
3993.22 158.174 146.505 -207.222 -245.792
3996.14 111.065 90.9012 -562.421 -1006.1
3999.06 3.46476 81.6674 -2248.65 -1345.62
4001.98 130.473 104.359 -1225.78 -1174.42
4004.9 179.138 177.917 -48.8128 -862.949
4007.82 224.139 125.841 -1314.25 -661.12
4010.74 -25.7522 160.318 -620.292 -925.208
4013.66 282.567 107.731 -841.079 -1053.32
4016.58 66.3773 137.715 -1698.6 -837.482
4019.5 64.2012 66.4302 27.233 -550.947
4022.42 68.712 111.458 18.5249 -52.1601
4025.33 201.461 137.679 -202.238 -491.123
4028.25 142.865 177.415 -1289.66 -537.096
4031.17 187.92 161.127 -119.394 -565.824
4034.09 152.596 143.3 -288.421 3.94668
4037.01 89.3845 126.443 419.655 31.3416
4039.93 137.349 133.841 -37.2095 -79.7872
4042.85 174.788 139.525 -621.807 -103.205
4045.77 106.439 138.5 349.403 -519.965
4048.69 134.272 141.564 -1287.49 -685.04
4051.6 183.981 163.03 -1117.03 -920.678
4054.52 170.836 171.662 -357.511 -652.911
4057.44 160.17 137.697 -484.188 -221.565
4060.36 82.0854 118.872 177.003 -27.7329
4063.28 114.361 101.518 223.987 -60.5672
4066.2 108.107 111.737 -582.691 -118.051
4069.11 112.743 125.31 4.55018 -198.303
4072.03 155.081 92.6079 -16.7671 -97.1156
4074.95 9.99955 113.955 -279.13 110.945
4077.87 176.784 85.7203 628.731 -67.6389
4080.79 70.3773 147.598 -552.518 -140.186
4083.7 195.632 69.2281 -496.771 -545.727
4086.62 -58.3249 75.4388 -587.893 -153.792
4089.54 89.0093 -3.83465 623.288 -379.441
4092.46 -42.1884 54.6275 -1173.72 -161.06
4095.38 117.062 88.9238 67.2501 -199.205
4098.29 191.898 154.025 508.854 -281.683
4101.21 153.116 120.164 -1421.15 -209.069
4104.13 15.4792 83.2074 285.092 8.52979
4107.05 81.0268 48.2046 1161.65 533.071
4109.96 48.1077 71.1657 152.469 553.926
4112.88 84.3626 148.968 347.656 451.168
4115.8 314.433 196.45 853.38 255.679
4118.72 190.555 222.233 -433.998 219.332
4121.63 161.713 172.464 238.614 137.342
4124.55 165.125 167.303 607.409 500.413
4127.47 175.073 211.832 655.215 615.242
4130.38 295.3 198.631 583.101 703.181
4133.3 125.521 224.352 871.227 992.403
4136.22 252.234 232.911 1522.88 892.323
4139.14 320.976 247.746 282.859 676.766
4142.05 170.029 204.076 224.557 30.2686
4144.97 121.222 202.873 -416.611 429.261
4147.89 317.368 236.469 1479.84 294.278
4150.8 270.817 244.777 -180.391 103.77
4153.72 146.146 218.65 -988.137 -276.055
4156.64 238.987 206.187 340.363 -516.127
4159.55 233.429 222.363 -900.607 -519.055
4162.47 194.675 233.003 -996.921 197.903
4165.39 270.906 227.203 2491.24 408.608
4168.3 216.028 247.959 -268.489 692.457
4171.22 256.943 223.174 -145.376 -402.577
4174.13 196.55 221.904 -793.865 -560.056
4177.05 212.219 155.42 -740.928 105.061
4179.97 57.4891 175.894 1849.97 515.051
4182.88 257.974 173.295 436.106 1072.83
4185.8 204.421 207.858 932.419 381.387
4188.71 161.178 190.834 -224.362 463.25
4191.63 206.904 228.277 681.695 142.908
4194.55 316.749 252.325 -28.6075 -163.758
4197.46 233.322 272.93 -1144.36 -667.124
4200.38 268.72 218.011 -828.402 -651.691
4203.29 151.99 252.477 17.6928 -373.449
4206.21 336.721 255.832 -309.638 -202.729
4209.12 278.786 316.879 -316.242 468.426
4212.04 335.131 257.111 2031.16 349.287
4214.96 157.416 242.746 -667.056 -37.9927
4217.87 235.692 149.028 -1478.08 -442.869
4220.79 53.977 156.619 816.53 578.173
4223.7 180.188 170.604 2396.07 242.374
4226.62 277.647 218.168 -2485.48 -326.281
4229.53 196.668 226.862 -889.436 -1172.11
4232.45 206.27 133.022 -141.418 -408.68
4235.36 -3.87241 120.291 -195.186 -427.496
4238.28 158.476 78.937 -945.884 -808.438
4241.19 82.2076 172.609 -1284.24 -802.249
4244.11 277.144 168.76 -176.619 216.44
4247.02 146.928 210.871 2110.18 643.371
4249.94 208.54 241.493 -3.45134 1050.68
4252.85 369.01 298.768 1045.29 496.488
4255.76 318.753 286.997 447.622 526.542
4258.68 173.228 213.473 86.7115 210.691
4261.59 148.438 106.549 97.7408 -161.123
4264.51 -2.01864 193.457 -667.821 -109.996
4267.42 433.951 222.817 240.092 48.7057
4270.34 236.519 357.015 573.846 567.784
4273.25 400.574 269.99 889.413 -16.5798
4276.16 172.877 280.662 -1513 84.9716
4279.08 268.534 199.315 878.5 -97.9553
4281.99 156.536 208.447 340.632 788.79
4284.91 200.272 194.392 1147.24 851.459
4287.82 226.369 225.393 1066.51 254.485
4290.73 249.536 226.909 -1450.29 451.709
4293.65 204.821 191.32 1738.91 -192.975
4296.56 119.604 97.7256 -867.546 46.7154
4299.48 -31.2481 58.4031 -731.215 -643.36
4302.39 86.8534 44.8035 -331.318 -454.279
4305.3 78.8053 116.959 -300.302 405.881
4308.22 185.218 117.099 1849.26 492.66
4311.13 87.2747 90.6299 -70.9821 866.044
4314.04 -0.602877 50.5463 819.85 -472.114
4316.96 64.9671 56.1724 -2165.21 597.694
4319.87 104.153 56.464 3138.44 -3.34494
4322.78 0.271965 27.5019 -983.267 944.286
4325.7 -21.9192 17.6295 677.682 501.776
4328.61 74.5357 44.9993 1810.91 836.373
4331.52 82.3813 68.1553 20.5231 658.391
4334.43 47.549 44.9865 143.737 -164.367
4337.35 5.02903 -4.911 -657.361 219.269
4340.26 -67.3111 9.82543 1171.43 -187.235
4343.17 91.7583 20.2152 -1075.78 92.0567
4346.09 36.1982 67.4656 180.515 -83.7367
4349 74.4404 70.1948 644.051 -663.295
4351.91 99.9459 120.488 -2814.45 -873.849
4354.82 187.079 148.865 -451.147 -952.638
4357.74 159.569 160.95 407.684 -70.6332
4360.65 136.203 102.186 -168.437 487.377
4363.56 10.7863 118.581 1222.89 429.997
4366.47 208.754 148.147 235.542 968.326
4369.38 224.902 242.637 1446.55 388.161
4372.3 294.256 243.422 -517.61 311.233
4375.21 211.108 203.155 4.75857 76.1934
4378.12 104.1 152.729 741.432 601.65
4381.03 142.98 131.332 1058.76 372.216
4383.94 146.917 161.656 -683.543 390.863
4386.86 195.071 240.14 797.374 617.666
4389.77 378.432 279.49 1739.17 160.324
4392.68 264.966 339.96 -2055.57 1395.65
4395.59 376.483 290.673 4503.34 -388.782
4398.5 230.57 286.935 -3614.11 583.661
4401.41 253.752 202.921 861.76 -820.504
4404.33 124.44 188.805 290.842 760.288
4407.24 188.225 150.335 1128.26 -29.0135
4410.15 138.339 203.648 -1506.14 -476.267
4413.06 284.382 202.6 -1050.92 -566.789
4415.97 185.078 261.633 856.693 449.567
4418.88 315.44 206.363 1542.92 994.09
4421.79 118.57 287.984 582.652 1243.52
4424.7 429.942 265.276 1604.97 976.849
4427.61 247.315 266.983 742.925 816.8
4430.52 123.692 143.732 102.503 -4.9375
4433.44 60.1888 129.053 -860.24 342.501
4436.35 203.278 168.583 1785.24 65.2332
4439.26 242.283 169.182 -729.301 1766.36
4442.17 61.9838 201.722 4243.14 1806.78
4445.08 300.897 181.338 1906.51 2777.03
4447.99 181.134 209.911 2181.45 770.056
4450.9 147.702 239.815 -1777.78 -373.112
4453.81 390.608 246.769 -1523 546.422
4456.72 201.996 316.39 4940.04 733.796
4459.63 356.565 265.556 -1215.66 875.239
4462.54 238.108 290.806 -1098.67 1036.68
4465.45 277.746 208.93 5424.37 849.709
4468.36 110.935 174.249 -1776.58 1880.23
4471.27 134.067 104.774 1992.9 -147.694
4474.18 69.3215 153.122 -659.401 813.674
4477.09 255.977 227.866 1107.53 210.118
4480 358.299 242.811 182.228 682.332
4482.91 114.156 253.929 757.239 1708.1
4485.82 289.331 198.342 4184.84 456.109
4488.73 191.538 244.749 -3573.75 405.462
4491.64 253.379 249.26 605.298 509.806
4494.55 302.863 237.623 4497.87 303.641
4497.46 156.628 212.732 -4192.25 1209.2
4500.36 178.706 185.051 3321.97 1330.93
4503.27 219.818 249.729 4863.07 2117.99
4506.18 350.663 300.986 -1831.06 -138.117
4509.09 332.476 328.493 -3446.36 -1195.49
4512 302.34 237.313 1690.95 -283.609
4514.91 77.1236 201.523 904.587 968.713
4517.82 225.105 199.796 310.602 1180.96
4520.73 297.16 183.478 2327.69 -20.8124
4523.64 28.1689 161.571 -2700.73 -386.144
4526.54 159.385 125.88 -785.393 1378.95
4529.45 190.087 266.506 7622.97 1032.95
4532.36 450.046 275.35 -3738.72 1868.14
4535.27 185.917 282.449 1720.17 -208.559
4538.18 211.383 213.761 1392.87 2097.19
4541.09 243.984 287.753 3178.53 1102.1
4543.99 407.893 310.763 -1265.09 1305.82
4546.9 280.413 282.951 2004.03 567.866
4549.81 160.547 146.528 964.662 1016.73
4552.72 -1.37532 111.231 81.4893 746.075
4555.63 174.52 78.7245 1192.07 310.531
4558.53 63.0287 192.365 -341.97 161.664
4561.44 339.546 197.033 -365.111 383.119
4564.35 188.525 234.248 1856.44 902.547
4567.26 174.672 159.201 1216.31 904.233
4570.17 114.406 189.649 -360.055 1196.65
4573.07 279.868 237.935 2733.68 147.282
4575.98 319.529 263.862 -1931.78 1395.62
4578.89 192.187 235.252 3384.96 914.394
4581.79 194.04 245.218 1290.01 1578.71
4584.7 349.428 243.943 61.1792 612.265
4587.61 188.36 237.916 485.61 345.013
4590.52 175.961 226.044 488.251 1797.52
4593.42 313.81 194.838 4418.71 2628.46
4596.33 94.7426 259.012 2978.44 1450.96
4599.24 368.482 286.507 -3044.27 882.466
4602.14 396.297 318.52 2713.23 568.938
4605.05 190.781 352.718 2037.85 2707.77
4607.96 471.077 311.243 3372.24 1899.44
4610.86 271.871 345.436 288.225 1550.89
4613.77 293.359 324.262 992.214 300.831
4616.68 407.556 380.674 -377.947 711.838
4619.58 441.106 427.263 1521.25 -579.373
4622.49 433.127 374.008 -2881.42 446.229
4625.4 247.792 326.273 2698.86 1433.89
4628.3 297.901 322.55 4484.23 1987.86
4631.21 421.957 396.584 -1219.5 899.683
4634.11 469.893 394.179 -565.677 -238.584
4637.02 290.688 383.931 1069.42 1745.31
4639.93 391.211 420.048 4732.18 1635.37
4642.83 578.246 478.411 -895.498 1642.06
4645.74 465.776 517.879 1089.5 25.0144
4648.64 509.614 439.548 -118.96 309.817
4651.55 343.254 394.671 -41.0901 1760.51
4654.45 331.145 328.25 5441.59 1256.47
4657.36 310.35 370.328 -1631.1 1283.6
4660.27 469.487 310.662 40.2996 1395.36
4663.17 152.149 287.577 5776.89 315.086
4666.08 241.095 278.24 -4871.93 1020.41
4668.98 441.476 349.027 2156.27 -1035.87
4671.89 364.51 354.238 -391.954 1916.8
4674.79 256.729 368.649 3986.08 1223.25
4677.7 484.709 326.505 75.6228 1189.19
4680.6 238.078 328.034 -494.142 102.53
4683.51 261.315 270.796 726.11 -376.715
4686.41 312.995 304.813 -1362.11 645.795
4689.32 340.131 366.484 2573.39 1153.42
4692.22 446.327 371.82 2248.99 2125.92
4695.12 329.003 418.094 1555.37 1707.88
4698.03 478.954 423.494 1319.29 1359.33
4700.93 462.526 455.884 1203.33 1520.76
4703.84 426.172 392.866 2039.66 1229.7
4706.74 289.902 385.6 446.105 72.4554
4709.65 440.727 361.526 -2268.4 -54.2297
4712.55 353.95 347.771 1659.61 908.001
4715.45 248.637 297.871 3332.8 1446.16
4718.36 291.025 269.759 -653.925 1768.89
4721.26 269.616 396.076 2627.78 2370.85
4724.17 627.588 422.272 5138.69 1910.94
4727.07 369.612 485.844 -2033.65 -446.515
4729.97 460.333 417.51 -4444.58 -495.577
4732.88 422.585 505.907 4991.5 715.227
4735.78 634.803 520.907 1598.76 2764.7
4738.68 505.334 517.89 1703.84 1130.23
4741.59 413.533 409.599 88.0833 1036.38
4744.49 309.931 337.839 1317.23 92.7009
4747.39 290.054 335.579 -1127.21 -314.143
4750.3 406.752 351.493 -1132.45 -60.7502
4753.2 357.673 412.582 2077.41 1059.47
4756.1 473.322 408.254 2233.44 2187.14
4759 393.768 415.307 2250.57 2114.32
4761.91 378.832 373.695 1858.95 2068.68
4764.81 348.485 307.867 2096.51 1599.05
4767.71 196.285 311.273 841.683 774.379
4770.62 389.048 266.158 -615.057 401.173
4773.52 213.142 295.93 976.891 1729.84
4776.42 285.6 273.289 4827.69 1844.1
4779.32 321.124 250.952 -272.299 1016.02
4782.23 146.131 265.31 -1507.34 768.368
4785.13 328.676 223.126 4084.74 102.072
4788.03 194.57 274.438 -2271.19 1679.91
4790.93 300.067 268.037 3226.18 276.997
4793.83 309.474 270.624 -124 832.435
4796.74 202.331 219.856 -604.874 -160.069
4799.64 147.764 193.326 248.666 1097.43
4802.54 229.883 177.619 3648.5 1443.21
4805.44 155.212 153.552 432.459 1252.99
4808.34 75.5623 113.993 -321.986 1442.24
4811.24 111.205 124.762 4216.24 2937.15
4814.15 187.52 164.632 4917.2 2191.85
4817.05 195.17 193.013 -2557.89 1702.18
4819.95 196.349 100.615 2747.23 367.62
4822.85 -89.6741 14.9492 913.528 2698.74
4825.75 -61.8277 3.33718 4435.46 -22.3867
4828.65 161.513 52.7665 -5416.15 155.117
4831.55 58.6139 89.0929 1446.04 -1121.93
4834.45 47.1515 79.8879 604.326 499.732
4837.35 133.898 27.2351 -551.168 -525.314
4840.25 -99.3445 81.2579 -1629.1 436.721
4843.16 209.22 21.0017 3490.43 151.125
4846.06 -46.8705 68.9021 -1407.96 1662.27
4848.96 44.3569 37.4623 2904.34 1303.48
4851.86 114.9 82.0838 2414.05 2185.31
4854.76 86.9942 167.295 1237.52 1857.92
4857.66 299.99 175.438 1922.2 394.498
4860.56 139.329 196.81 -1976.23 519.325
4863.46 151.111 173.826 1612.01 131.083
4866.36 231.038 271.423 757.47 411.154
4869.26 432.121 287.962 -1136.02 -25.5183
4872.16 200.726 369.802 301.99 183.78
4875.06 476.56 343.34 1385.36 -207.694
4877.96 352.735 423.001 -2310.44 498.204
4880.86 439.708 443.292 2419.68 116.183
4883.76 537.433 457.903 239.302 1620.98
4886.66 396.567 475.779 2203.96 1340.66
4889.56 493.336 499.241 1578.72 2344.15
4892.45 607.82 562.298 3249.76 1397.67
4895.35 585.737 528.892 -635.48 864.071
4898.25 393.118 507.979 -22.0679 -371.809
4901.15 545.081 486.989 -457.879 419.452
4904.05 522.767 528.746 1738.3 304.248
4906.95 518.389 531.803 -367.68 520.759
4909.85 554.253 550.793 191.653 148.197
4912.75 579.735 555.605 620.617 783.073
4915.65 532.826 612.83 1536.95 1209.7
4918.55 725.929 612.405 1471.54 964.733
4921.44 578.459 657.173 -114.289 961.449
4924.34 667.13 637.421 1527.1 863.774
4927.24 666.674 673.74 1178.51 1244.82
4930.14 687.415 618.33 1028.86 1125.38
4933.04 500.903 605.195 1168.76 1200.85
4935.94 627.268 566.964 1404.93 1156.66
4938.83 572.723 650.785 896.298 2130.54
4941.73 752.364 681.394 4090.38 1852.8
4944.63 719.094 698.812 571.731 1417.12
4947.53 624.978 668.792 -410.742 837.416
4950.42 662.305 585.863 2351.26 823.851
4953.32 470.305 615.99 531.034 1923.74
4956.22 715.359 551.498 2888.93 2307.41
4959.12 468.83 560.26 3502.27 1994.09
4962.01 496.592 532.618 -408.932 1042.39
4964.91 632.432 537.778 33.8139 167.938
4967.81 484.309 534.491 878.932 329.623
4970.71 486.73 529.733 76.1224 159.294
4973.6 618.161 587.979 -477.172 763.097
4976.5 659.045 563.879 2690.34 653.361
4979.4 414.43 534.389 -253.083 476.292
4982.29 529.693 488.656 -1008.38 -391.008
4985.19 521.845 530.594 88.4388 0.199288
4988.09 540.243 551.679 920.538 927.591
4990.98 592.947 598.4 1773.8 1921.96
4993.88 662.01 623.479 3071.53 2096.01
4996.78 615.478 675.076 1442.7 531.639
4999.67 747.74 605.953 -2919.32 313.428
5002.57 454.64 591.835 2416.9 521.93
5005.47 573.126 584.456 2068.21 1646.07
5008.36 725.602 550.158 453.103 1699.3
5011.26 351.746 503.464 2576.58 1974.24
5014.15 433.043 442.651 2893.05 1324.92
5017.05 543.163 425.046 -1494.88 -38.1641
5019.94 298.932 383.013 -1512.67 -924.897
5022.84 306.944 318.273 232.853 32.7675
5025.74 348.942 342.709 1378.12 833.493
5028.63 372.241 390.639 889.508 1654.84
5031.53 450.732 476.293 2696.9 1876.85
5034.42 605.906 498.573 2044.12 1706.45
5037.32 439.081 479.582 378.319 307.994
5040.21 393.76 425.939 -1498.46 92.1588
5043.11 444.976 492.843 1396.62 745.293
5046 639.794 509.402 2337.72 1552.3
5048.9 443.438 497.743 922.55 1707.98
5051.79 409.996 473.079 1863.68 286.122
5054.69 565.804 479.925 -1927.86 569.412
5057.58 463.976 531.193 1772.42 1027.77
5060.48 563.799 506.265 3238.75 3021.43
5063.37 491.02 505.262 4053.11 1750.15
5066.26 460.966 429.577 -2041.4 1122.82
5069.16 336.743 431.913 1356.75 734.367
5072.05 498.031 432.316 2887.76 1770.73
5074.95 462.173 559.374 1067.69 1672.09
5077.84 717.919 501.137 1060.83 -105.758
5080.74 323.32 518.246 -2445.79 61.052
5083.63 513.499 444.312 1568.12 -545.991
5086.52 496.117 515.343 -760.302 -285.386
5089.42 536.414 557.201 -1663.98 623.958
5092.31 639.073 540.342 4296.15 1579.65
5095.2 445.539 522.766 2106.78 1845.52
5098.1 483.685 496.639 -866.386 403.573
5100.99 560.693 492.507 -29.674 703.98
5103.88 433.144 503.131 3008 353.715
5106.78 515.558 510.162 -1917.18 249.818
5109.67 581.785 529.547 -341.364 -196.474
5112.56 491.298 522.756 1669.12 379.109
5115.46 495.186 470.221 -190.432 1330.81
5118.35 424.178 492.131 2513.73 1269.86
5121.24 557.03 493.489 1486.26 2242.61
5124.13 499.26 513.352 2727.85 2237.01
5127.03 483.768 525.253 2496.92 1964.5
5129.92 592.731 483.693 668.745 1345.57
5132.81 374.58 521.821 871.055 956.409
5135.7 598.152 481.554 1329.43 238.408
5138.6 471.93 550.953 -1485.26 -567.133
5141.49 582.775 529.539 -1545.57 -249.352
5144.38 533.912 557.583 2282.77 661.031
5147.27 556.061 503.083 1245.89 1345.75
5150.16 419.276 510.3 508.58 698.639
5153.06 555.562 471.881 341.446 327.232
5155.95 440.804 471.317 131.671 372.13
5158.84 417.585 406.353 643.274 1207.85
5161.73 360.67 385.392 2848.61 1491.09
5164.62 377.921 358.925 981.381 1508.61
5167.51 338.184 348.847 695.833 658.487
5170.4 330.437 337.033 298.247 -87.5043
5173.3 342.478 322.355 -1256.59 40.905
5176.19 294.151 332.251 1081.06 934.184
5179.08 360.125 307.943 2978.08 1050.96
5181.97 269.553 339.572 -906.274 1171.71
5184.86 389.037 402.137 1443.31 444.917
5187.75 547.822 437.742 797.715 1263.01
5190.64 376.367 454.266 1548.01 1124.51
5193.53 438.608 409.738 1027.79 881.81
5196.42 414.241 433.994 69.6291 678.344
5199.31 449.133 382.995 937.609 926.794
5202.2 285.612 388.182 1773.14 1468.24
5205.09 429.8 390.123 1693.97 1613.88
5207.98 454.957 444.866 1374.55 575.214
5210.87 449.841 471.693 -1342.87 16.2622
5213.76 510.282 454.298 17.1111 342.973
5216.65 402.772 467.962 2354.68 852.178
5219.54 490.831 467.502 184.743 527.588
5222.43 508.905 490.501 -956.658 477.351
5225.32 471.767 461.516 2203.97 2325.42
5228.21 403.877 450.093 5728.93 2353.08
5231.1 474.637 402 -873.67 1179.53
5233.99 327.488 414.083 -1316.66 458.689
5236.88 440.126 403.285 3566.4 1226.8
5239.77 442.241 462.07 1430.65 2463.39
5242.65 503.845 477.187 2393.1 1948.46
5245.54 485.475 493.945 2021.63 1904.76
5248.43 492.517 513.591 1299.55 916.22
5251.32 562.781 573.027 -572.52 402.338
5254.21 663.782 627.827 479.981 906.644
5257.1 656.917 625.163 2812.47 1596.4
5259.99 554.791 643.835 1496.75 1649.79
5262.87 719.798 579.784 640.146 485.261
5265.76 464.764 599.242 -681.109 -318.351
5268.65 613.165 550.911 -914.09 115.669
5271.54 574.804 585.953 1942.21 640.135
5274.43 569.89 561.444 892.288 2182.64
5277.31 539.637 567.504 3713.42 2098.37
5280.2 592.986 576.061 1689.39 1572.44
5283.09 595.561 574.107 -685.494 -88.0869
5285.98 533.773 534.023 -1268.16 -691.381
5288.87 472.735 515.747 -120.49 292.807
5291.75 540.734 559.787 2267.07 1968.63
5294.64 665.891 600.586 3759.32 2581.14
5297.53 595.134 597.95 1717.02 1277.62
5300.41 532.825 504.043 -1643.48 676.391
5303.3 384.169 457.381 1955.63 380.006
5306.19 455.148 437.195 827.866 1345.56
5309.07 472.266 461.552 1253.18 1102.39
5311.96 457.241 446.726 1226.13 1640.14
5314.85 410.672 423.823 2441.11 1387.07
5317.73 403.557 428.669 493.977 1082.79
5320.62 471.777 467.266 313.291 1229.45
5323.51 526.466 509.641 2881.08 1558.03
5326.39 530.682 502.967 1479.73 3236.85
5329.28 451.755 490.193 5349.74 1699.46
5332.17 488.144 456.12 -1731.09 1044.27
5335.05 428.462 510.955 -485.851 56.0916
5337.94 616.26 508.104 2385.22 1483.91
5340.82 479.591 515.593 2552.36 1419.58
5343.71 450.928 411.75 -678.84 506.172
5346.59 304.733 440.409 -355.009 -396.343
5349.48 565.567 428.543 -155.18 524.686
5352.36 415.328 436.149 2084.25 646.822
5355.25 327.551 428.452 11.398 1161.74
5358.14 542.475 452.199 1389.58 -143.434
5361.02 486.57 486.777 -1831.28 445.59
5363.91 431.285 442.846 1778.47 885.71
5366.79 410.681 445.415 2709.95 1668.73
5369.67 494.277 456.882 517.771 1345.1
5372.56 465.688 437.884 807.595 724.537
5375.44 353.686 432.601 848.245 1691.02
5378.33 478.428 446.607 3417.21 1202.8
5381.21 507.707 474.973 -657.061 976.447
5384.1 438.785 475.898 169.191 212.363
5386.98 481.202 444.51 1124.96 2000.16
5389.87 413.545 449.324 4706.34 2130.62
5392.75 453.225 437.549 560.571 1638.49
5395.63 445.877 457.873 -351.434 1023.61
5398.52 474.516 497.449 2861.7 740.331
5401.4 571.954 467.545 -289.274 997.966
5404.28 356.163 519.712 421.471 589.765
5407.17 631.019 533.436 1637.1 1080.35
5410.05 613.125 583.11 1182.47 188.922
5412.93 505.186 498.569 -2252.8 77.5001
5415.82 377.395 414.458 1302.83 -103.139
5418.7 360.794 462.212 640.551 1029.69
5421.58 648.447 477.329 1145.68 1190.33
5424.47 422.746 502.223 1784.75 1195.72
5427.35 435.475 386.716 656.74 1445.65
5430.23 301.928 367.129 1895.46 803.831
5433.11 363.984 324.354 -140.708 1135.96
5436 307.15 394.944 1653.13 959.634
5438.88 513.698 404.713 1366.48 1349.35
5441.76 393.292 449.595 1028.45 1253.78
5444.64 441.794 436.049 1366.4 440.79
5447.53 473.06 435.434 -1072.48 -67.5804
5450.41 391.448 455.867 -496.665 589.416
5453.29 503.092 467.219 3337.39 1588.15
5456.17 507.117 476.721 1923.71 1600.77
5459.05 419.954 457.681 -458.787 1237.82
5461.94 445.971 444.966 2248.53 1176.07
5464.82 468.973 459.547 1738.47 1932.67
5467.7 463.696 467.996 1811.02 1102.19
5470.58 471.319 422.433 -242.907 1595.01
5473.46 332.282 424.458 3216.93 1190.29
5476.34 469.773 433.631 596.848 1358.38
5479.22 498.836 483.357 261.364 1205.12
5482.1 481.462 549.473 2757.16 1128.12
5484.98 668.122 469.09 365.836 1576.37
5487.86 257.685 412.57 1606.1 625
5490.75 311.904 280.087 -96.9408 36.3432
5493.63 270.672 342.299 -1400.13 -274.114
5496.51 444.322 405.716 674.732 378.313
5499.39 502.155 474.729 1860.34 1503.3
5502.27 477.711 493.813 1974.82 1339.57
5505.15 501.574 476.58 183.545 620.398
5508.03 450.455 458.629 -297.166 695.97
5510.91 423.859 421.971 2201.53 568.239
5513.79 391.601 475.629 -199.649 936.741
5516.67 611.428 493.312 808.339 995.293
5519.55 476.909 517.7 2377.19 1509.94
5522.42 464.764 449.89 1344.31 1579.6
5525.3 407.997 461.337 1017.3 1344.63
5528.18 511.248 447.532 1672.29 1613.85
5531.06 423.352 440.023 2151.95 1385.35
5533.94 385.469 415.491 331.797 1140.58
5536.82 437.653 448.991 938.005 763.428
5539.7 523.851 500.412 1020.48 1264.2
5542.58 539.733 491.604 1834.13 814.595
5545.46 411.229 477.91 -410.822 540.173
5548.34 482.767 501.953 197.215 813.333
5551.21 611.862 494.881 2653.61 1281.81
5554.09 390.013 484.971 994.601 1146.91
5556.97 453.038 440.047 -207.47 -245.506
5559.85 477.091 470.47 -1523.65 367.992
5562.73 481.281 446.733 2835.1 266.791
5565.6 381.828 438.474 -511.074 1062.9
5568.48 452.313 398.619 864.679 1190.07
5571.36 361.717 467.362 3216.59 280.028
5574.24 588.057 447.832 -3241.19 431.512
5577.11 393.722 494.578 1319.13 225.822
5579.99 501.954 485.83 2599.52 2018.12
5582.87 561.815 515.061 2135.69 1865.48
5585.75 481.412 407.516 861.233 1502.45
5588.62 179.321 407.115 1510.43 1269.88
5591.5 560.613 321.68 1437.98 1114.23
5594.38 225.107 401.02 394.278 524.493
5597.25 417.34 326.703 -258.78 -954.457
5600.13 337.661 389.257 -2998.87 -434.18
5603.01 412.771 369.79 1955.11 774.79
5605.88 358.938 428.736 3368.13 2404.55
5608.76 514.498 447.663 1890.41 1855.98
5611.64 469.552 494.619 309.396 1124.24
5614.51 499.806 458.999 1172.91 476.491
5617.39 407.638 484.995 -52.8349 956.518
5620.26 547.542 486.346 1749.48 1012.47
5623.14 503.857 485.817 1340.76 1490.01
5626.01 406.05 431.611 1379.79 430.235
5628.89 384.926 422.808 -1429.84 36.9738
5631.77 477.448 430.999 160.974 -198.082
5634.64 430.622 436.445 674.619 760.334
5637.52 401.264 425.979 1445.41 580.85
5640.39 446.051 429.8 -377.477 862.533
5643.27 442.085 414.107 1519.67 1440.64
5646.14 354.186 438.034 3179.72 1758.85
5649.02 517.831 460.894 577.148 540.713
5651.89 510.666 505.377 -2134.73 -390.551
5654.76 487.634 496.577 385.927 -103.164
5657.64 491.43 439.855 1439.31 1631.27
5660.51 340.5 446.586 3068.56 1308.7
5663.39 507.829 484.204 -581.76 479.909
5666.26 604.282 517.196 -1047.08 715.795
5669.14 439.477 459.442 3776.22 1831.51
5672.01 334.568 415.198 2765.39 1662.18
5674.88 471.548 465.427 -1555.07 407.972
5677.76 590.164 509.631 13.598 370.371
5680.63 467.182 488.779 2652.58 1342.36
5683.5 408.993 475.281 1360.91 1301.26
5686.38 549.67 457.647 -109.721 610.815
5689.25 414.279 469.804 581.261 848.883
5692.12 445.463 409.513 2075.11 1365.3
5695 368.797 412.167 1439.54 1920.65
5697.87 422.24 439.8 2247.3 1063.65
5700.74 528.363 454.838 -495.895 1412.3
5703.62 413.911 453.5 2485.51 1032.9
5706.49 418.226 425.071 1109.1 1818.22
5709.36 443.077 449.159 1860.06 675.868
5712.23 486.174 433.088 -941.549 982.444
5715.1 370.013 449.818 2028.82 473.302
5717.98 493.266 436.803 332.63 894.556
5720.85 447.13 460.871 322.215 707.98
5723.72 442.216 443.682 1469.1 858.505
5726.59 441.7 474.438 784.204 782.065
5729.46 539.397 454.347 92.8964 1092.49
5732.34 381.942 430.935 2400.36 1320.12
5735.21 371.467 366.418 1467.09 1644.95
5738.08 345.846 410.046 1067.41 759.635
5740.95 512.826 439.261 -255.588 1406.18
5743.82 459.11 484.158 3406.72 712.45
5746.69 480.537 448.214 -1013.78 662.542
5749.56 404.994 453.272 -405.311 -746.958
5752.43 474.285 471.806 -821.778 174.608
5755.3 536.138 495.581 1750.91 1204.45
5758.17 476.32 490.009 2684.2 971.178
5761.05 457.57 478.2 -1521.58 -181.176
5763.92 500.71 462.743 -1706.15 570.332
5766.79 429.949 430.845 4938.73 1843.18
5769.66 361.875 441.717 2296.96 2252.3
5772.53 533.327 474.165 -478.786 1198.6
5775.4 527.294 465.255 1777.61 1223.33
5778.27 335.143 438.103 2371.18 1201.43
5781.13 451.87 420.511 -544.485 354.312
5784 474.52 465.428 -763.755 584.306
5786.87 469.893 481.125 3061.16 1702.1
5789.74 498.962 446.347 2808.91 1736.69
5792.61 370.186 427.53 -659.988 1247.5
5795.48 413.443 437.532 1593.57 119.24
5798.35 528.967 458.78 -575.859 735.198
5801.22 433.93 518.389 1187.89 1017.28
5804.09 592.272 484.242 2439.81 1580.12
5806.96 426.523 511.362 1112.67 1570.27
5809.82 515.292 470.142 1158.32 1781.95
5812.69 468.612 464.016 3074.86 1570.48
5815.56 408.143 433.951 478.259 901.888
5818.43 425.097 379.102 -847.449 8.14963
5821.3 304.066 415.225 393.64 322.095
5824.17 516.512 413.58 1420.1 751.172
5827.03 420.162 449.746 439.783 -188.233
5829.9 412.564 446.96 -2424.58 -504.901
5832.77 508.154 427.561 470.091 1144.22
5835.64 361.967 461.401 5387.16 2622.51
5838.5 514.083 443.56 2010.28 1978.32
5841.37 454.629 460.779 -1462.49 243.329
5844.24 413.625 414.582 182.192 39.3151
5847.1 375.493 406.846 1398.24 802.21
5849.97 431.42 414.055 826.196 916.945
5852.84 435.252 429.993 526.398 426.851
5855.7 423.308 452.477 -72.0406 156.385
5858.57 498.871 426.846 14.7989 750.278
5861.44 358.357 433.49 2308.08 1444.74
5864.3 443.242 380.244 2011.35 915.115
5867.17 339.134 367.992 -1574.08 -94.9759
5870.04 321.601 397.407 -722.198 -396.604
5872.9 531.485 455.503 1106.46 888.204
5875.77 513.424 486.255 2280.35 578.285
5878.63 413.856 434.989 -1651.96 373.323
5881.5 377.687 376.911 491.578 -14.766
5884.36 339.19 368.739 1116.08 1454.74
5887.23 389.34 384.932 2756.56 1906.62
5890.09 426.266 389.551 1847.23 1620.89
5892.96 353.047 392.326 258.898 1109.55
5895.82 397.667 323.478 1222.53 571.506
5898.69 219.72 345.078 233.093 695.719
5901.55 417.848 327.016 631.538 606.593
5904.42 343.481 392.838 955.148 1424.66
5907.28 417.185 419.3 2687.31 1518.06
5910.15 497.235 499.445 911.711 1893.08
5913.01 583.914 498.758 2080.23 860.869
5915.87 415.125 520.596 -409.33 699.58
5918.74 562.749 490.356 427.844 -5.55233
5921.6 493.196 456.228 -35.1708 1054.48
5924.47 312.738 409.071 2770.78 1052.16
5927.33 421.279 360.273 420.879 181.553
5930.19 346.801 429.972 -2647 -437.838
5933.06 521.837 482.334 912.604 -94.5336
5935.92 578.363 517.039 1450.79 818.467
5938.78 450.918 534.421 92.0062 1450.01
5941.65 573.981 530.975 2807.23 1957.45
5944.51 568.026 580.174 2973.1 1784.4
5947.37 598.514 539.82 -427.135 1328.78
5950.23 452.921 476.977 1440.37 532.558
5953.1 379.496 387.624 584.437 649.16
5955.96 330.456 425.024 -77.3291 547.415
5958.82 565.121 466.281 1135.14 601.611
5961.68 503.264 516.82 747.024 1607.18
5964.55 482.075 469.635 2939.39 2032.95
5967.41 423.566 475.099 2412.45 1805.81
5970.27 519.657 462.112 65.6005 841.249
5973.13 443.115 469.221 45.6965 817.132
5975.99 444.893 479.191 2340.1 887.104
5978.85 549.566 527.784 275.518 1288.74
5981.71 588.895 527.245 1250.59 1102.27
5984.58 443.275 530.152 1780.7 643.228
5987.44 558.286 526.307 -1101.61 509.119
5990.3 577.36 520.712 848.265 573.321
5993.16 426.491 480.777 1973.31 1632.19
5996.02 438.481 439.268 2074.99 1740.76
5998.88 452.833 431.835 1174 1145.68
6001.74 404.19 430.658 188.045 507.447
6004.6 434.95 397.282 160.3 664.275
6007.46 352.706 406.361 1644.48 1532.96
6010.32 431.428 459.668 2794.09 1642.09
6013.18 594.868 520.547 487.693 1395.28
6016.04 535.345 535.091 904.058 864.873
6018.9 475.061 499.094 1202.87 823.924
6021.76 486.876 479.36 364.847 597.921
6024.62 476.144 501.969 226.047 495.257
6027.48 542.887 486.759 894.875 416.797
6030.34 441.247 471.951 129.467 993.809
6033.2 431.718 435.145 1957.08 1164.62
6036.05 432.469 485.171 1407.32 654.663
6038.91 591.327 456.21 -1400.42 991.241
6041.77 344.833 468.662 2966.82 1149.91
6044.63 469.825 399.212 1883.33 1142.9
6047.49 382.978 421.184 -1421.44 -197.934
6050.35 410.748 408.432 -1055.69 -119.692
6053.2 431.569 463.878 2118.05 1118.85
6056.06 549.316 499.991 2294.2 2092.96
6058.92 519.088 468.603 1866.62 1346.98
6061.78 337.404 461.475 -119.894 1023.78
6064.64 527.932 439.12 1324.62 373.33
6067.49 452.022 488.516 -84.7378 1091.83
6070.35 485.595 531.587 2035.6 1027.73
6073.21 657.143 521.888 1132.32 1122.61
6076.07 422.927 521.716 199.901 826.063
6078.92 485.078 470.383 1145.97 1060.31
6081.78 503.145 499.37 1835.05 1152.59
6084.64 509.889 463.712 476.75 1431.24
6087.49 378.102 433.797 1981.91 1224.96
6090.35 413.4 388.875 1216.21 905.239
6093.2 375.122 404.462 -482.402 242.793
6096.06 424.864 472.48 -5.43054 56.8523
6098.92 617.452 504.566 658.389 482.133
6101.77 471.381 496.386 793.442 734.126
6104.63 400.326 458.664 750.547 1228.59
6107.48 504.285 450.155 2141.78 1329.15
6110.34 445.854 472.622 1095.12 1173.33
6113.2 467.728 453.686 283.089 651.991
6116.05 447.475 460.003 577.763 926.359
6118.91 464.805 451.159 1918.22 673.192
6121.76 441.195 472.232 -476.411 785.553
6124.62 510.697 450.637 914.846 100.235
6127.47 400.019 456.583 -137.73 982.441
6130.32 459.033 458.538 2170.21 1557.5
6133.18 516.561 496.89 2640.03 1675.13
6136.03 515.075 492.836 215.161 764.395
6138.89 446.873 480.103 -562.004 230.526
6141.74 478.361 436.874 1038.42 745.087
6144.6 385.388 493.488 1758.85 856.977
6147.45 616.714 494.394 -226.335 891.706
6150.3 481.081 536.209 1142.61 980.701
6153.16 510.833 491.523 2025.83 1936.94
6156.01 482.656 464.679 2642.38 654.365
6158.86 400.548 462.295 -2705.11 288.201
6161.72 503.682 487.441 927.337 162.333
6164.57 558.092 519.546 2264.77 931.289
6167.42 496.863 515.207 -398.24 1352.99
6170.28 490.668 478.154 2192.45 851.112
6173.13 446.933 465.854 759.123 833.332
6175.98 459.961 466.574 -451.579 342.161
6178.83 492.827 448.676 718.938 125.32
6181.69 393.239 461.042 108.6 1027.13
6184.54 497.06 398.491 2253.84 223.686
6187.39 305.172 441.066 -1691.39 704.506
6190.24 520.966 444.455 1551.06 -219.286
6193.09 507.228 518.57 -517.533 582.864
6195.94 527.517 526.733 715.062 391.625
6198.8 545.455 538.157 977.347 627.912
6201.65 541.499 555.438 191.327 507.179
6204.5 579.36 494.889 352.862 945.272
6207.35 363.808 463.454 2291.63 897.122
6210.2 447.195 468.691 46.8792 297.8
6213.05 595.069 513.098 -1445.1 6.57044
6215.9 497.03 495.335 1417.94 863.371
6218.75 393.904 438.383 2617.28 2142.7
6221.6 424.216 439.198 2392.9 1558.32
6224.45 499.474 488.062 -335.202 927.293
6227.3 540.496 480.119 724.183 293.156
6230.15 400.388 476.037 490.487 885.815
6233 487.227 413.217 1442.78 224.863
6235.85 352.036 420.704 -1258.68 186.873
6238.7 422.849 452.098 376.517 438.893
6241.55 581.409 499.95 2198.84 568.714
6244.4 495.593 506.382 -869.213 -260.515
6247.25 442.145 503.483 -2111.17 -188.732
6250.1 572.71 509.888 2414.19 503.381
6252.95 514.807 508.915 1207.12 2162.87
6255.8 439.227 483.605 2867.31 1299.72
6258.64 496.779 449.389 -175.281 363.092
6261.49 412.16 496.978 -1602.75 -205.508
6264.34 581.994 528.069 1161.51 466.403
6267.19 590.053 539.921 1840.45 1325.2
6270.04 447.715 484.847 973.639 1074.08
6272.88 416.772 433.199 408.141 571.657
6275.73 435.109 466.518 333.191 69.6051
6278.58 547.674 481.668 -532.517 -242.247
6281.43 462.22 446.384 -527.414 790.164
6284.27 329.258 439.983 3430.42 886.357
6287.12 528.472 432.884 -243.937 1356.95
6289.97 440.92 479.958 884.374 611.19
6292.82 470.482 506.6 1193.13 122.666
6295.66 608.398 480.268 -1709.51 245.198
6298.51 361.925 535.266 1251.97 535.69
6301.36 635.474 474.108 2064.61 2090.88
6304.2 424.924 486.558 2956.06 1632.44
6307.05 399.275 438.687 -123.342 1119.33
6309.89 491.861 450.002 525.264 346.221
6312.74 458.871 470.36 636.741 859.785
6315.59 460.35 473.884 1417.35 988.507
6318.43 502.431 474.336 911.43 919.231
6321.28 460.228 424.483 428.913 945.79
6324.12 310.79 387.93 1497.03 798.258
6326.97 392.772 386.659 468.834 705.011
6329.81 456.415 424.44 149.171 514.926
6332.66 424.132 437.903 926.774 1013.83
6335.5 433.16 434.625 1965.56 769.71
6338.35 446.582 415.487 -583.2 941.068
6341.19 366.718 439.003 1440.85 923.292
6344.04 503.708 449.26 1912.23 1136.77
6346.88 477.353 474.736 57.232 570.958
6349.72 443.147 467.242 -256.587 286.1
6352.57 481.226 471.361 1057.66 637.592
6355.41 489.71 459.56 1111.71 1066.8
6358.25 407.743 447.309 1031.02 933.252
6361.1 444.475 463.806 657.026 448.481
6363.94 539.2 462.347 -342.606 606.394
6366.78 403.366 454.965 1504.76 1027.94
6369.63 422.33 430.107 1921.66 821.559
6372.47 464.626 425.631 -961.743 929.142
6375.31 389.938 456.44 1827.51 986.023
6378.16 514.755 441.877 2092.3 1227.45
6381 420.937 415.783 -237.457 664.367
6383.84 311.657 396.532 138.256 288.522
6386.68 457.002 418.423 964.768 1419.85
6389.53 486.611 450.411 3156.52 1673.84
6392.37 407.622 465.002 900.228 1008.38
6395.21 500.775 414.887 -1031.59 470.547
6398.05 336.266 420.461 1543 763.407
6400.89 424.344 359.241 1778.81 1442.31
6403.73 317.113 381.71 1005.13 677.913
6406.57 403.674 339.002 -750.204 606.39
6409.42 296.218 361.376 1564.24 391.121
6412.26 384.236 306.57 359.327 615.362
6415.1 239.255 310.938 -77.4802 103.029
6417.94 309.323 263.462 27.2409 239.718
6420.78 241.808 251.881 769.394 760.476
6423.62 204.513 185.431 1484.79 593.1
6426.46 109.97 182.649 -474.888 654.841
6429.3 233.463 119.191 954.614 810.766
6432.14 14.1405 183.612 1952.57 596.903
6434.98 303.232 128.378 -1116.48 258.08
6437.82 67.7614 199.446 -61.8543 -412.496
6440.66 227.344 153.208 -59.1586 340.04
6443.5 164.518 168.957 1141.13 628.338
6446.34 115.008 125.154 803.038 1071.2
6449.17 95.9364 117.116 1269.42 729.717
6452.01 140.403 87.5921 116.694 73.4555
6454.85 26.4366 118.368 -1165.74 -318.51
6457.69 188.265 95.735 93.5224 -287.598
6460.53 72.5032 118.725 209.428 1237.47
6463.37 95.4067 50.1853 3409.46 1314.1
6466.21 -17.354 38.8127 323.4 1113.3
6469.04 38.3856 24.6769 -392.971 439.263
6471.88 52.9992 85.7249 1387.36 889.776
6474.72 165.79 112.156 1674.94 1201.32
6477.56 117.68 133.096 541.655 573.977
6480.39 115.817 121.978 -494.663 265.75
6483.23 132.438 134.238 750.259 525.103
6486.07 154.458 128.901 1319.71 458.201
6488.9 99.8077 194.105 -695.37 -15.0789
6491.74 328.05 134.097 -669.58 -325.06
6494.58 -25.566 125.611 389.771 207.956
6497.41 74.3492 45.0503 903.679 955.752
6500.25 86.3677 50.7775 1573.81 1834.55
6503.09 -8.38457 74.4618 3026.17 1014.75
6505.92 145.402 90.6381 -1555.73 442.763
6508.76 134.897 141.877 -142.145 -185.301
6511.59 145.334 148.098 1141.97 192.325
6514.43 164.063 137.385 -422.855 768.189
6517.27 102.76 151.11 1585.45 691.592
6520.1 186.507 150.496 912.184 1318.94
6522.94 162.221 197.098 1459.18 618.178
6525.77 242.567 224.101 -516.833 -20.5904
6528.61 267.515 254.917 -1004.12 63.9925
6531.44 254.669 255.316 1712.93 857.631
6534.27 243.764 241.903 1864.08 1674.68
6537.11 227.277 236.647 1447.03 1193.46
6539.94 238.9 237.21 269.271 499.266
6542.78 245.452 275.26 -218.499 98.5263
6545.61 341.428 299.591 244.807 214.213
6548.44 311.892 318.311 616.331 709.623
6551.28 301.612 313.002 1267.73 674.481
6554.11 325.502 341.176 139.383 146.261
6556.94 396.413 414.202 -968.331 128.153
6559.78 520.691 500.684 1213.41 1441.77
6562.61 584.948 560.913 4080.25 1699.95
6565.44 577.099 583.945 -193.818 916.876
6568.28 589.79 608.32 -1135.8 160.178
6571.11 658.072 654.411 1810.15 1253.2
6573.94 715.373 657.536 3085.26 1825.22
6576.77 599.163 680.128 580.235 829.036
6579.6 725.848 703.237 -1178.39 203.045
6582.44 784.7 800.306 1207.29 546.863
6585.27 890.369 815.066 1611.69 1719.84
6588.1 770.13 829.297 2340.54 1781.36
6590.93 827.391 807.868 1391.84 1662.97
6593.76 826.083 853.123 1256.54 1530.83
6596.59 905.896 894.306 1944.1 1572.49
6599.42 950.94 931.179 1516.84 1220.1
6602.26 936.701 949.368 199.375 1486.54
6605.09 960.462 969.498 2743.41 1383.39
6607.92 1011.33 1023.39 1207.38 1212.36
6610.75 1098.38 1025.71 -313.708 1332.29
6613.58 967.429 1053.28 3103.18 1393.8
6616.41 1094.03 1075.22 1391.92 2165.72
6619.24 1164.21 1073.42 2002.06 1249.63
6622.07 962.028 1049.95 354.901 1112.86
6624.9 1023.6 980.279 981.619 1230.89
6627.73 955.207 1024.76 2356.14 1782.04
6630.55 1095.47 1060.47 2008.37 1390.27
6633.38 1130.73 1071.8 -193.682 714.198
6636.21 989.205 1034.49 327.906 594.705
6639.04 983.55 1026.1 1649.89 1444.08
6641.87 1105.54 1024.57 2354.44 1348.4
6644.7 984.632 1069.58 40.8707 1491.36
6647.53 1118.56 1046.64 2078.76 1695.58
6650.35 1036.73 1093.23 2967.11 1561.64
6653.18 1124.4 1104.15 -360.965 1181.28
6656.01 1151.31 1108.78 937.688 513.241
6658.84 1050.63 1068.25 962.999 1310.9
6661.66 1002.81 1028.4 2032.02 1499.31
6664.49 1031.78 1037.09 1502.9 1463.2
6667.32 1076.69 1035.31 854.67 938.296
6670.15 997.461 1017.77 457.315 1212.47
6672.97 979.151 987.603 2325.42 1702.49
6675.8 986.196 983.131 2324.73 1827.25
6678.63 984.046 983.076 831.587 1373.4
6681.45 978.985 988.506 963.871 1118.48
6684.28 1002.49 935.701 1559.99 1583.87
6687.1 825.629 940.257 2227.76 2089.61
6689.93 992.654 882.055 2481.08 2046.15
6692.76 827.882 910.834 1429.6 1538.77
6695.58 911.966 872.317 705.637 780.911
6698.41 877.103 863.782 207.494 723.757
6701.23 802.277 824.963 1258.14 1003.43
6704.06 795.51 834.357 1544.67 1303.04
6706.88 905.284 852.077 1106.32 1299.63
6709.71 855.438 854.215 1247.91 1165.72
6712.53 801.923 778.35 1142.93 317.159
6715.36 677.689 751.82 -1439.36 530.488
6718.18 775.848 726.345 1887.89 1087.41
6721 725.499 744.464 2813.69 2205.9
6723.83 732.046 723.698 1916.11 1372.26
6726.65 713.548 744.743 -613.035 1091.46
6729.48 788.634 730.218 1971.29 1022.65
6732.3 688.47 690.293 1709.69 1521.85
6735.12 593.774 671.295 884.583 381.693
6737.94 731.641 649.577 -1449.2 478.684
6740.77 623.315 689.828 2000.66 892.54
6743.59 714.527 681.333 2126.15 2093.33
6746.41 706.158 679.609 2153.18 1552.12
6749.24 618.141 660.755 377.037 623.14
6752.06 657.966 615.689 -660.799 172.335
6754.88 570.958 625.222 800.767 -392.649
6757.7 646.74 649.598 -1317.91 -32.0631
6760.52 731.096 668.437 420.958 758.032
6763.35 627.475 621.772 3171.05 1750.11
6766.17 506.745 548.963 1658.33 1648.08
6768.99 512.669 520.979 114.872 516.041
6771.81 543.524 561.698 -225.076 104.917
6774.63 628.902 591.454 424.956 126.949
6777.45 601.937 540.336 180.967 1087.51
6780.27 390.169 523.603 2656.61 1190.53
6783.09 578.702 539.855 734.011 1490.45
6785.91 650.695 594.833 1080.74 860.862
6788.73 555.101 555.343 767.837 1126.87
6791.55 460.233 526.722 1532.05 1295.82
6794.37 564.832 530.865 1587.57 1460.28
6797.19 567.53 550.413 1261.22 898.305
6800.01 518.877 584.82 -153.884 735.123
6802.83 668.052 584.551 1098.03 841.281
6805.65 566.724 551.29 1579.7 1407.92
6808.47 419.093 517.51 1546.05 723.697
6811.29 566.714 485.782 -954.653 247.754
6814.11 471.54 510.215 151.868 183.327
6816.92 492.391 471.673 1352.76 1248
6819.74 451.088 453.883 2239.37 1786.95
6822.56 418.17 426.606 1768.71 1258.92
6825.38 410.56 451.4 -231.328 91.2404
6828.2 525.472 422.109 -1263.66 -261.986
6831.01 330.295 476.699 709.03 421.213
6833.83 574.331 469.198 1818.27 1026.13
6836.65 502.969 504.968 551.098 1151.6
6839.47 437.604 489.772 1085.45 1309.47
6842.28 528.742 444.314 2291.87 987.094
6845.1 366.597 422.092 -416.037 121.999
6847.92 370.938 394.947 -1509.84 -109.22
6850.73 447.307 461.789 1598.22 447.487
6853.55 567.123 478.406 1254.08 1675.38
6856.36 420.789 476.531 2173.83 1077.8
6859.18 441.682 434.589 -194.509 922.065
6862 441.295 437.539 786.871 317.613
6864.81 429.641 392.738 360.476 540.575
6867.63 307.279 330.545 474.378 -202.168
6870.44 254.713 299.037 -1441.36 -379.34
6873.26 335.12 302.087 -171.042 244.37
6876.07 316.427 324.587 2345.51 1049.18
6878.89 322.214 342.399 973.068 1286.13
6881.7 388.557 387.65 539.815 142.544
6884.51 452.178 375.67 -1085.25 483.195
6887.33 286.275 360.783 1995.02 141.757
6890.14 343.896 353.872 -484.497 641.9
6892.96 431.447 363.241 415.176 460.797
6895.77 314.379 366.723 1451.71 1302.59
6898.58 354.344 391.46 2040.88 1262.59
6901.4 505.656 409.131 295.171 995.979
6904.21 367.392 403.544 651.884 305.69
6907.02 337.585 379.581 -29.9845 140.502
6909.84 433.765 387.475 -200.394 157.611
6912.65 391.076 396.522 703.211 742.462
6915.46 364.726 383.061 1724.57 1548.97
6918.27 393.382 384.575 2219.12 1642.31
6921.09 395.616 403.676 983.242 1554.49
6923.9 422.03 402.062 1461.11 289.614
6926.71 388.541 411.238 -1575.51 262.786
6929.52 423.143 390.726 902.759 157.08
6932.33 360.495 390.327 1143.99 643.09
6935.14 387.343 361.29 -117.476 331.821
6937.95 336.032 385.613 -31.0504 109.525
6940.76 433.463 387.968 477.102 1092.35
6943.58 394.41 420.313 2831.01 981.419
6946.39 433.064 413.555 -363.854 795.554
6949.2 413.192 408.88 -80.4953 255.297
6952.01 380.383 386.765 1210.24 775.559
6954.82 366.721 386.7 1196.93 831.171
6957.63 412.995 350.994 86.3411 319.55
6960.44 273.266 367.235 -324.625 367.291
6963.25 415.444 350.108 1340.16 676.712
6966.05 361.615 358.708 1014.61 1040.4
6968.86 299.065 379.057 766.445 967.221
6971.67 476.49 398.381 1120.61 1083.05
6974.48 419.589 408.424 1362.1 836.646
6977.29 329.195 358.212 27.2243 796.535
6980.1 325.854 346.885 1000.28 768.042
6982.91 385.608 335.504 1276.62 735.254
6985.71 295.049 341.145 -71.1405 196.428
6988.52 342.778 360.804 -616.2 74.7655
6991.33 444.583 348.343 911.637 709.851
6994.14 257.668 343.034 1834.12 1330
6996.94 326.85 267.305 1244.24 1012.93
6999.75 217.396 289.357 -39.5749 42.3409
7002.56 323.825 314.506 -1077.64 39.2786
7005.37 402.297 371.825 1235.06 399.115
7008.17 389.353 393.567 1039.94 1213.24
7010.98 389.052 355.918 1364.72 833.803
7013.78 289.349 350.744 96.7574 819.325
7016.59 373.832 327.473 996.5 800.034
7019.4 319.237 335.471 1306.84 879.676
7022.2 313.344 332.095 335.685 637.234
7025.01 363.704 361.375 269.175 878.769
7027.81 407.076 399.486 2031.45 827.173
7030.62 427.678 377.606 180.896 1108.43
7033.42 298.063 358.393 1112.95 853.134
7036.23 349.436 348.748 1265.56 488.955
7039.03 398.745 353.627 -911.642 462.8
7041.84 312.7 321.638 1034.49 -93.973
7044.64 253.469 338.092 -404.763 747.368
7047.44 448.106 381.871 1612.38 304.8
7050.25 444.039 448.925 -293.217 953.101
7053.05 454.63 433.219 1540.14 1090.87
7055.86 400.988 403.377 2025.69 1279.11
7058.66 354.513 390.109 271.509 1162.41
7061.46 414.824 405.975 1190.03 541.648
7064.27 448.588 420.619 163.408 1007.64
7067.07 398.446 387.294 1669.48 1215.47
7069.87 314.847 368.079 1813.52 774.81
7072.67 390.944 364.358 -1158.57 419.964
7075.48 387.283 362.217 604.943 -103.032
7078.28 308.425 348.353 244.53 985.933
7081.08 349.35 337.225 2108.33 657.503
7083.88 353.9 363.676 -380.348 753.92
7086.68 387.779 376.033 533.781 483.417
7089.48 386.421 363.043 1296.82 901.603
7092.28 314.931 355.663 874.21 893.398
7095.09 365.638 340.735 509.167 575.211
7097.89 341.635 350.702 342.255 67.7894
7100.69 344.834 369.21 -648.054 -157.592
7103.49 421.161 410.757 -166.978 187.331
7106.29 466.277 425.645 1377.02 987.375
7109.09 389.496 426.802 1752.08 934.922
7111.89 424.632 389.636 -324.337 209.645
7114.69 354.78 400.181 -798.806 107.059
7117.49 421.132 395.824 1444.32 668.16
7120.29 411.559 366.926 1358.97 1467.75
7123.08 268.087 335.315 1599.98 1354.23
7125.88 326.298 276.698 1103.75 683.561
7128.68 235.709 294.854 -653.04 86.1948
7131.48 322.555 316.541 -192.124 -177.794
7134.28 391.361 348.367 311.782 528.727
7137.08 331.185 327.155 1466.52 815.781
7139.87 258.919 313.605 669.038 920.134
7142.67 350.712 307.97 624.844 252.689
7145.47 314.278 342.431 -535.815 233.538
7148.27 362.304 357.358 611.586 -168.832
7151.06 395.491 383.146 -582.267 676.505
7153.86 391.642 368.827 2000.2 875.718
7156.66 319.347 315.716 1209.23 1198.4
7159.45 236.16 300.333 385.767 378.88
7162.25 345.49 364.112 -458.353 122.992
7165.05 510.685 449.649 441.562 372.138
7167.84 492.771 481.505 1133.21 713.462
7170.64 441.059 433.03 565.619 591.267
7173.43 365.259 366.389 74.9771 595.577
7176.23 292.848 344.104 1146.14 968.634
7179.03 374.206 306.935 1684.79 1427.29
7181.82 253.751 317.613 1450.94 1101.21
7184.62 324.883 298.727 167.9 552.29
7187.41 317.548 300.415 38.0346 161.511
7190.2 258.816 283.919 278.598 636.358
7193 275.395 254.041 1592.44 708.287
7195.79 227.913 260.142 253.82 962.739
7198.59 277.119 244.243 1041.95 781.974
7201.38 227.698 288.418 1050.15 839.736
7204.17 360.438 296.913 427.106 244.211
7206.97 302.603 317.954 -744.622 23.8157
7209.76 290.821 290.586 388.962 -271.929
7212.55 278.334 298.389 -460.129 486.436
7215.35 326.013 311.082 1530.48 725.227
7218.14 328.9 329.288 1105.33 731.377
7220.93 332.952 325.131 -441.678 171.662
7223.72 313.54 311.885 -148.671 123.23
7226.52 289.164 330.983 960.039 833.226
7229.31 390.245 303.982 1688.31 968.607
7232.1 232.537 322.055 257.469 705.199
7234.89 343.384 287.398 169.817 348.586
7237.68 286.273 333.491 618.47 624.244
7240.47 370.817 309.7 1084.44 728.837
7243.26 272.011 352.806 483.597 708.755
7246.05 415.59 313.18 558.224 399.809
7248.84 251.938 329.536 157.606 319.842
7251.63 321.081 287.83 243.695 320.233
7254.42 290.471 270.063 559.398 544.616
7257.21 198.638 228.918 830.754 311.972
7260 197.646 227.159 -454.236 371.121
7262.79 285.193 259.745 736.845 690.906
7265.58 296.396 278.337 1790.11 656.738
7268.37 253.421 269.031 -556.739 217.199
7271.16 257.276 259.093 -581.772 584.346
7273.95 266.583 278.251 2891.55 1071.19
7276.74 310.893 281.962 903.79 1450.2
7279.53 268.409 298.622 555.27 825.706
7282.31 316.565 274.085 1018.06 537.488
7285.1 237.281 263.84 39.1381 -57.305
7287.89 237.675 264.957 -1229.11 158.761
7290.68 319.915 288.373 1666.26 548.875
7293.46 307.528 298.002 1209.48 923.482
7296.25 266.563 264.071 -105.29 864.657
7299.04 218.122 248.24 1489.78 137.3
7301.83 260.037 271.145 -972.593 631.077
7304.61 335.277 274.717 1376.04 223.395
7307.4 228.836 306.837 266.739 876.194
7310.18 356.398 307.692 985.803 1158.84
7312.97 337.842 325.04 2223.97 843.169
7315.76 280.88 285.205 -680.269 317.713
7318.54 236.892 290.092 -590.565 -294.561
7321.33 352.504 303.85 387.152 345.584
7324.11 322.153 351.822 1240.17 742.898
7326.9 380.81 361.824 601.375 1311.35
7329.68 382.509 361.352 2092.5 1302.35
7332.47 320.737 355.313 1213.17 920.391
7335.25 362.695 339.784 -544.502 594.804
7338.03 335.922 310.375 1115.74 382.659
7340.82 232.507 283.908 576.739 432.783
7343.6 283.296 263.11 -394.131 622.592
7346.39 273.527 293.782 1685.17 459.006
7349.17 324.523 314.117 85.9813 1061.61
7351.95 344.3 355.429 1413.68 776.889
7354.73 397.464 387.47 831.006 1116.07
7357.52 420.646 404.161 1103.53 329.684
7360.3 394.372 350.655 -945.482 31.3772
7363.08 236.946 358.791 -63.9139 149.983
7365.86 445.054 351.629 1459.34 924.076
7368.65 372.887 354.466 1376.8 1054.53
7371.43 245.458 332.789 327.454 166.806
7374.21 380.021 333.706 -1203.84 41.7302
7376.99 375.638 372.368 1001.57 516.957
7379.77 361.445 345.78 1753.13 796.85
7382.55 300.257 312.572 -364.157 233.174
7385.33 276.014 312.72 -689.457 -150.246
7388.11 361.891 320.971 602.875 689.76
7390.89 325.009 305.338 2155.86 855.989
7393.67 229.113 275.915 -190.77 498.328
7396.45 273.622 265.109 -470.106 -73.3452
7399.23 292.593 320.382 440.841 428.071
7402.01 394.93 309.217 1313.48 1015.18
7404.79 240.128 309.086 1291.23 805.209
7407.57 292.199 276.456 -189.084 191.35
7410.35 297.041 313.42 -528.1 334.125
7413.13 351.019 324.788 1719.56 1022.78
7415.91 326.304 322.032 1876.88 1073.45
7418.68 288.773 302.973 -376.088 753.205
7421.46 293.842 314.589 758.821 21.475
7424.24 361.152 324.556 -318.308 547.994
7427.02 318.674 292.319 1203.47 466.798
7429.8 197.131 296.106 515.232 1132.06
7432.57 372.513 279.973 1677.48 556.302
7435.35 270.276 306.009 -523.805 455.117
7438.13 275.238 274.253 211.678 273.823
7440.9 277.244 302.732 1133.6 382.799
7443.68 355.714 297.317 -196.878 104.465
7446.46 258.995 301.092 -623.325 115.144
7449.23 288.567 283.767 1165.63 467.702
7452.01 303.739 292.793 860.794 947.85
7454.78 286.075 291.608 817.121 522.677
7457.56 285.01 300.085 -109.886 522.004
7460.33 329.171 280.802 858.778 -49.765
7463.11 228.226 288.497 -898.187 476.616
7465.88 308.093 295.637 1469.26 533.811
7468.66 350.592 330.768 1030.36 1094.78
7471.43 333.62 333.661 784.711 1188.03
7474.2 316.77 278.145 1749.01 1134.94
7476.98 184.046 238.467 871.096 521.971
7479.75 214.585 237.464 -1054.19 -110.729
7482.53 313.761 242.553 -149.091 -191.305
7485.3 199.314 238.828 629.367 190.476
7488.07 203.409 218.112 91.1529 516.096
7490.84 251.611 248.48 827.768 529.753
7493.62 290.418 256.051 670.339 1177.68
7496.39 226.122 257.981 2034.94 1064.26
7499.16 257.401 237.954 487.518 492.671
7501.93 230.338 257.499 -1044.44 -167.853
7504.71 284.759 253.513 53.3626 -90.6614
7507.48 245.444 271.509 719.094 439.858
7510.25 284.324 260.24 547.118 587.311
7513.02 250.953 264.792 495.722 583.001
7515.79 259.098 251.605 706.164 127.852
7518.56 244.762 255.039 -818.331 318.9
7521.33 261.256 229.19 1068.87 298.773
7524.1 181.552 192.86 645.782 697.721
7526.87 135.771 201.303 378.513 134.338
7529.64 286.586 204.764 -621.281 -53.0021
7532.41 191.934 254.634 83.7617 189.704
7535.18 285.382 263.003 1106.63 421.399
7537.95 311.693 269.498 73.8035 926.868
7540.72 211.418 265.267 1600.17 487.717
7543.49 272.691 246.511 -210.822 762.248
7546.26 255.424 244.567 897.396 411.799
7549.02 205.586 258.39 548.821 508.435
7551.79 314.159 262.41 79.0859 417.731
7554.56 267.485 268.023 625.286 643.734
7557.33 222.426 209.057 1226.83 478.662
7560.09 137.262 209.478 -416.129 454.03
7562.86 268.747 196.959 551.387 191.011
7565.63 184.869 204.253 437.775 400.484
7568.4 159.144 204.5 212.29 351.896
7571.16 269.486 216.187 405.624 542.506
7573.93 219.933 240.458 1009.61 477.722
7576.69 231.957 240.336 17.9374 206.55
7579.46 269.118 252.2 -407.891 565.847
7582.23 255.525 255.713 2087.5 676.958
7584.99 242.497 231.935 351.269 930.753
7587.76 197.783 205.192 353.492 187.751
7590.52 175.296 177.284 -141.51 302.219
7593.29 158.774 159.401 694.675 339.639
7596.05 144.134 118.557 465.753 875.661
7598.82 52.7619 102.918 1466.55 532.945
7601.58 111.859 79.2809 -333.474 294.746
7604.34 73.2216 75.9278 -248.841 -294.755
7607.11 42.7025 73.0018 -301.951 -189.265
7609.87 103.081 68.5151 -17.0032 -40.1119
7612.63 59.7615 96.0932 198.618 162.654
7615.4 125.437 125.119 306.347 98.7994
7618.16 190.16 174.514 -208.567 326.077
7620.92 207.946 163.993 880.451 437.47
7623.68 93.8738 137.835 640.525 614.683
7626.45 111.684 78.768 323.073 377.772
7629.21 30.7466 103.3 169.719 388.336
7631.97 167.469 101.136 672.216 411.279
7634.73 105.193 125.031 391.903 241.419
7637.49 102.43 120.731 -339.863 174.245
7640.25 154.57 121.144 470.696 171.965
7643.02 106.431 155.4 385.061 234.502
7645.78 205.198 164.344 -152.252 -357.685
7648.54 181.402 186.075 -1305.86 -296.259
7651.3 171.625 161.261 569.34 101.213
7654.06 130.756 165.687 1040.16 735.522
7656.82 194.678 170.468 597.062 609.597
7659.58 185.968 202.408 191.563 199.549
7662.33 226.578 188.061 -189.98 130.534
7665.09 151.638 181.683 390.019 331.136
7667.85 166.834 175.103 793.37 44.2924
7670.61 206.837 165.304 -1050.51 188.777
7673.37 122.24 187.143 823.474 595.49
7676.13 232.352 208.333 2013.51 1035.34
7678.89 270.408 222.475 269.047 638.789
7681.64 164.666 236.591 -366.188 277.927
7684.4 274.699 195.342 930.923 319.642
7687.16 146.661 188.814 394.192 478.735
7689.92 145.083 163.207 111.091 448.97
7692.67 197.877 152.186 841.628 664.752
7695.43 113.597 168.878 1041.54 970.209
7698.19 195.161 170.216 1027.46 764.68
7700.94 201.891 203.143 225.041 516.356
7703.7 212.379 188.665 296.565 223.142
7706.45 151.725 217.751 147.821 385.037
7709.21 289.15 220.206 710.724 245.827
7711.96 219.744 207.381 -121.064 75.3686
7714.72 113.25 200.062 -363.554 639.269
7717.47 267.191 204.793 2402.42 859.312
7720.23 233.936 221.998 539.065 1066.46
7722.98 164.867 220.393 257.9 481.212
7725.74 262.376 231.283 646.672 432.379
7728.49 266.606 262.136 392.567 525.694
7731.24 257.427 249.603 537.843 722.979
7734 224.776 244.595 1238.53 826.482
7736.75 251.581 242.049 703.076 436.925
7739.5 249.789 218.311 -630.827 113.445
7742.26 153.563 197.806 268.087 284.737
7745.01 190.067 221.499 1216.95 827.52
7747.76 320.867 254.021 997.524 979.585
7750.51 251.128 240.537 724.279 1065.1
7753.26 149.617 200.772 1473.5 1235.75
7756.02 201.57 216.147 1509.48 952.379
7758.77 297.255 230.029 -125.847 632.512
7761.52 191.263 207.032 513.9 169.176
7764.27 132.579 165.554 119.476 263.119
7767.02 172.82 170.432 155.981 134.292
7769.77 205.897 161.866 127.418 92.3848
7772.52 106.881 145.324 -6.24438 319.788
7775.27 123.194 142.629 838.191 601.608
7778.02 197.811 182.335 972.879 662.905
7780.77 226 198.171 177.645 750.878
7783.52 170.702 189.397 1102.11 352.556
7786.27 171.491 175.347 -222.087 237.271
7789.02 183.849 189.629 -168.21 180.343
7791.77 213.548 226.112 931.324 747.868
7794.51 280.937 223.217 1480.49 775.165
7797.26 175.166 178.83 -86.3178 292.556
7800.01 80.3855 152.499 -516.503 175.672
7802.76 201.945 139.844 1129.84 106.437
7805.51 137.201 168.029 -294.023 263.519
7808.25 164.942 167.712 -45.2568 -72.8022
7811 200.992 170.11 120.873 409.671
7813.75 144.396 186.832 1153.4 281.304
7816.49 215.106 217.639 -430.357 560.227
7819.24 293.413 241.697 957.641 805.48
7821.98 216.571 261.792 1889.16 1141.16
7824.73 275.391 243.406 576.673 630.566
7827.48 238.255 236.051 -574.131 263.002
7830.22 194.507 192.211 786.463 63.7093
7832.97 143.873 173.571 -21.2044 467.449
7835.71 182.333 174.894 637.087 351.936
7838.46 198.478 217.004 439.927 303.109
7841.2 270.202 211.97 -167.688 -111.783
7843.94 167.231 207.584 -607.589 301.526
7846.69 185.318 161.647 1679.86 733.516
7849.43 132.391 162.357 1128.28 923.57
7852.18 169.361 174.742 -37.4253 868.856
7854.92 222.473 181.402 1515.71 439.334
7857.66 152.372 171.369 -160.284 568.746
7860.4 139.263 141.021 350.811 463.192
7863.15 131.429 173.607 1199.05 601.652
7865.89 250.13 184.811 255.094 796.644
7868.63 172.873 218.508 935.789 807.754
7871.37 232.52 192.692 1232.38 560.654
7874.11 172.682 179.5 -486.204 588.005
7876.86 133.298 159.443 1017.84 172.446
7879.6 172.348 171.632 -14.2981 727.76
7882.34 209.25 231.735 1179.74 686.894
7885.08 313.608 242.427 895.24 722.382
7887.82 204.423 219.69 92.1661 515.662
7890.56 141.039 183.056 559.579 498.538
7893.3 203.706 196.381 843.868 846.228
7896.04 244.398 203.773 1135.24 387.82
7898.78 163.215 215.567 -815.645 256.302
7901.52 239.087 211.062 449.313 -26.0031
7904.26 230.883 219.485 288.322 437.617
7906.99 188.485 228.056 575.216 432.055
7909.73 264.8 236.559 432.626 397.038
7912.47 256.391 237.389 183.272 489.43
7915.21 190.976 236.673 852.391 764.251
7917.95 262.651 192.919 1257.09 868.343
7920.68 125.13 189.038 495.548 342.769
7923.42 179.331 177.13 -724.333 10.895
7926.16 226.928 191.194 261.47 206.967
7928.89 167.322 181.643 1083.77 447.985
7931.63 150.679 150.06 -1.28045 257.927
7934.37 132.178 153.838 -308.703 108.05
7937.1 178.657 160.501 634.134 282.587
7939.84 170.669 177.829 522.331 567.336
7942.57 184.162 164.418 545.544 503.332
7945.31 138.423 191.409 442.121 549.631
7948.04 251.641 181.727 661.229 280.021
7950.78 155.117 202.688 -263.286 -110.838
7953.51 201.305 171.76 -730.456 -393.883
7956.25 158.858 204.451 -187.907 18.5831
7958.98 253.191 206.283 974.112 606.936
7961.72 206.802 216.148 1034.6 1141.32
7964.45 188.451 194.873 1415.23 692.203
7967.18 189.365 152.005 -373.227 357.57
7969.92 78.1977 122.918 30.7028 90.8138
7972.65 101.19 119.419 614.965 282.604
7975.38 178.868 157.278 202.146 152.907
7978.11 191.775 164.728 -358.39 310.144
7980.84 123.541 151.268 1086.68 256.24
7983.58 138.488 162.653 40.4321 376.2
7986.31 225.932 193.852 1.49094 489.168
7989.04 217.136 230.343 1425.58 827.01
7991.77 247.962 220.679 1053.96 904.018
7994.5 196.938 206.565 232.515 156.49
7997.23 174.797 199.341 -817.001 -198.605
7999.96 226.288 206.741 -11.3288 55.8307
8002.69 219.138 186.03 995.822 671.644
8005.42 112.665 173.359 1030.44 918.291
8008.15 188.273 166.065 728.613 578.873
8010.88 197.258 190.408 -22.4305 447.872
8013.61 185.693 175.738 637.435 -36.7239
8016.34 144.264 166.111 -725.176 290.548
8019.07 168.376 158.009 959.386 400.714
8021.8 161.388 190.12 967.931 456.282
8024.52 240.596 168.702 -558.472 101.425
8027.25 104.122 181.081 -105.183 -168.663
8029.98 198.526 142.707 157.666 282.932
8032.71 125.474 148.075 796.314 377.758
8035.43 120.224 125.247 179.295 133.711
8038.16 130.042 127.087 -574.476 97.9086
8040.89 130.995 163.497 688.907 358.478
8043.61 229.453 180.315 961.003 746.303
8046.34 180.496 177.444 588.999 788.358
8049.07 122.384 145.9 815.071 347.266
8051.79 134.821 137.548 -362.273 354.727
8054.52 155.439 164.349 611.383 362.077
8057.24 202.786 154.058 837.122 302.532
8059.97 103.95 157.172 -540.91 189.628
8062.69 164.778 147.445 272.672 230.512
8065.41 173.606 195.2 959.775 645.266
8068.14 247.217 175.853 703.351 379.893
8070.86 106.736 162.27 -523.448 31.6488
8073.59 132.858 148.02 -84.9568 29.4206
8076.31 204.465 165.462 696.667 271.435
8079.03 159.063 184.02 202.595 479.344
8081.76 188.53 178.481 538.769 292.203
8084.48 187.85 164.492 135.245 406.034
8087.2 117.096 165.494 544.087 364.681
8089.92 191.536 161.807 414.71 132.872
8092.64 176.789 184.702 -560.18 32.3512
8095.37 185.78 187.593 242.524 -119.507
8098.09 200.21 178.715 -40.8655 289.739
8100.81 150.154 160.058 667.557 323.846
8103.53 129.809 127.694 344.846 412.138
8106.25 103.12 145.677 224.009 171.267
8108.97 204.102 140.93 -55.0545 292.899
8111.69 115.568 142.328 709.744 266.714
8114.41 107.314 102.863 145.453 255.373
8117.13 85.7067 105.81 -89.0765 -146.622
8119.85 124.409 117.538 -496.243 -32.4284
8122.57 142.5 149.593 488.035 -62.3388
8125.29 181.87 146.573 -178.808 241.128
8128 115.349 139.644 414.156 192.226
8130.72 121.714 159.014 341.33 371.331
8133.44 239.978 193.101 358.508 469.924
8136.16 217.612 199.988 709.935 309.646
8138.87 142.374 172.623 -139.505 184.69
8141.59 157.883 155.242 -16.3586 241.934
8144.31 165.47 175.458 881.667 458.973
8147.03 203.021 192.321 511.611 417.498
8149.74 208.473 202.486 -140.784 198.297
8152.46 195.963 164.686 224.065 26.9146
8155.17 89.6225 155.989 -2.53674 110.184
8157.89 182.381 137.232 109.023 257.956
8160.6 139.691 156.204 667.383 456.408
8163.32 146.539 152.348 592.818 500.637
8166.03 170.814 154.692 241.709 424.727
8168.75 146.723 162.147 439.653 121.187
8171.46 168.903 151.78 -317.801 10.3101
8174.18 139.713 168.199 -90.9219 74.7677
8176.89 195.98 139.317 633.026 347.111
8179.6 82.258 140.169 499.228 150.437
8182.32 142.269 101.506 -680.943 -127.987
8185.03 79.991 131.304 -202.245 40.2702
8187.74 171.653 144.567 1004 470.058
8190.46 182.056 152.435 608.42 496.902
8193.17 103.595 137.951 -121.711 -297.534
8195.88 128.2 124.594 -1379.31 -547.858
8198.59 141.985 136.682 -142.552 -101.304
8201.3 139.861 140.172 1217.95 363.638
8204.01 138.671 136.188 15.5144 448.32
8206.72 130.033 146.215 111.494 115.849
8209.44 169.942 174.596 220.539 287.094
8212.15 223.814 182.689 529.248 368.46
8214.86 154.31 193.464 355.593 537.082
8217.57 202.267 166.305 726.406 372.071
8220.28 142.337 157.334 34.2131 128.594
8222.98 127.399 137.041 -374.838 18.2664
8225.69 141.386 118.286 395.424 12.7522
8228.4 86.0723 108.515 17.6708 164.031
8231.11 98.088 126.541 78.9999 210.071
8233.82 195.461 148.356 533.543 219.56
8236.53 151.518 159.991 46.1369 85.2985
8239.23 132.992 141.842 -323.785 167.718
8241.94 141.017 140.978 780.803 64.8595
8244.65 148.925 142.438 -262.44 318.887
8247.36 137.373 152.757 438.297 276.635
8250.06 171.974 158.591 654.049 513.097
8252.77 166.427 168.066 446.946 442.615
8255.48 165.797 147.932 226.849 238.797
8258.18 111.571 134.277 42.5973 82.8051
8260.89 125.461 137.146 -21.0309 160.795
8263.59 174.404 148.524 460.82 46.0008
8266.3 145.707 136.364 -301.786 47.9773
8269 88.9799 114.377 -15.1017 -24.1071
8271.71 108.445 110.908 244.567 206.191
8274.41 135.301 129.839 389.107 142.473
8277.11 145.772 107.719 -206.256 217.722
8279.82 42.0839 88.576 470.314 29.4974
8282.52 77.8722 84.6217 -175.565 380.248
8285.22 133.909 80.6464 845.994 321.048
8287.93 30.1583 97.534 292.716 507.453
8290.63 128.535 83.7469 383.649 205.501
8293.33 92.5475 112.156 -59.8631 -18.0422
8296.03 115.386 124.925 -377.913 -181.106
8298.74 166.842 143.413 -105.542 354.69
8301.44 148.011 148.696 1547.52 386.123
8304.14 131.234 124.147 -283.614 52.1006
8306.84 93.1945 113.599 -1107.61 -151.164
8309.54 116.368 129.17 937.732 252.282
8312.24 177.946 149.344 926.722 835.257
8314.94 153.717 145.159 641.316 647.45
8317.64 103.815 122.473 374.311 262.572
8320.34 109.887 100.02 -227.91 -218.749
8323.04 86.3569 110.156 -802.647 -292.381
8325.74 134.224 122.647 153.414 55.2563
8328.44 147.359 154.253 815.001 365.983
8331.14 181.176 147.217 129.533 277.982
8333.83 113.116 122.548 -110.59 37.8589
8336.53 73.3515 135.049 94.6334 271.755
8339.23 218.678 151.278 831.222 213.691
8341.93 161.805 179.114 -284.784 325.952
8344.62 156.859 134.079 431.417 140.86
8347.32 83.5739 118.767 275.946 -208.624
8350.02 115.867 77.6519 -1333.24 236.943
8352.71 33.5147 95.3528 1768.12 126.375
8355.41 136.677 84.6919 -55.7576 746.061
8358.11 83.8845 111.277 525.823 99.0883
8360.8 113.27 91.1395 -172.801 278.521
8363.5 76.264 111.908 482.541 173.207
8366.19 146.191 114.594 209.88 256.569
8368.89 121.326 131.711 77.2858 -117.915
8371.58 127.617 124.096 -640.911 -92.7201
8374.27 123.347 132.069 285.465 190.691
8376.97 145.244 143.363 927.519 324.757
8379.66 161.497 163.578 -238.713 261.764
8382.35 183.993 148.737 96.4866 -61.3195
8385.05 100.721 122.195 -41.7326 337.387
8387.74 81.8701 82.5978 957.407 220.547
8390.43 65.2026 89.2001 -254.033 144.708
8393.12 120.527 117.835 -269.248 149.2
8395.82 167.775 145.436 970.883 136.372
8398.51 148.006 142.422 -292.517 264.219
8401.2 111.485 135.545 114.292 -130.727
8403.89 147.144 133.766 -213.957 30.8081
8406.58 142.67 101.786 192.089 -78.2909
8409.27 15.544 88.1444 -213.005 -99.2081
8411.96 106.219 66.7588 -276.708 172.89
8414.65 78.5131 91.3966 1008.38 303.843
8417.34 89.4573 83.1816 179.853 514.475
8420.03 81.5744 74.6178 355.187 512.782
8422.72 52.8218 92.0645 1003.31 209.077
8425.41 141.797 85.5829 -731.262 539.224
8428.1 62.1297 121.004 1345.63 469.599
8430.78 159.084 120.628 794.431 605.136
8433.47 140.669 83.5201 -324.651 274.627
8436.16 -49.193 78.6035 354.101 -134.772
8438.85 144.334 52.7149 -433.767 211.871
8441.53 63.0034 100.72 715.278 282.39
8444.22 94.8213 71.4041 565.658 387.713
8446.91 56.3877 65.0626 -117.799 -149.558
8449.59 43.9789 72.7767 -896.534 -81.1013
8452.28 117.964 75.2663 771.029 277.092
8454.97 63.8564 90.2027 956.78 618.513
8457.65 88.7881 80.1639 127.729 223.522
8460.34 87.8471 88.4846 -413.944 2.78939
8463.02 88.8185 59.3762 294.582 347.367
8465.71 1.46301 55.3266 1161.46 346.8
8468.39 75.6982 31.295 -415.643 148.571
8471.07 16.7239 50.8104 -300.103 -128.131
8473.76 60.0092 43.8144 331.353 -11.2699
8476.44 54.7101 50.246 -65.0591 156.702
8479.12 36.0187 41.2514 203.811 142.95
8481.81 33.0255 29.6056 290.099 43.0471
8484.49 19.7726 37.5685 -364.768 58.909
8487.17 59.9073 62.4603 251.397 73.2676
8489.85 107.701 98.8582 333.175 64.7678
8492.53 128.966 91.8849 -390.268 16.4253
8495.22 38.9875 71.9725 106.369 169.852
8497.9 47.9639 46.7156 793.456 245.678
8500.58 53.1955 37.4685 -162.79 240.999
8503.26 11.2461 41.8146 92.3316 24.1454
8505.94 61.0022 52.119 142.895 -43.247
8508.62 84.1086 59.1421 -364.968 -114.696
8511.3 32.3155 51.1353 -122.016 -31.7705
8513.98 36.9818 32.6989 391.673 271.013
8516.66 28.7994 42.4951 543.383 346.453
8519.34 61.7042 36.9519 104.303 103.605
8522.01 20.3521 54.0268 -336.871 -163.878
8524.69 80.0241 62.8499 -259.066 -178.427
8527.37 88.1736 73.3684 60.6551 -66.8173
8530.05 51.9074 45.3973 -2.0412 312.623
8532.72 -3.88902 18.0439 879.255 298.402
8535.4 6.11328 18.8236 17.9933 278.547
8538.08 54.2466 30.4642 -61.6083 33.4843
8540.75 31.0329 68.3454 144.068 191.751
8543.43 119.757 56.7643 492.794 80.9601
8546.11 19.5033 92.2506 -393.982 -8.52545
8548.78 137.492 100.084 -124.389 -105.447
8551.46 143.256 139.803 202.031 76.5231
8554.13 138.661 124.856 151.928 306.671
8556.81 92.6518 112.936 566.055 197.23
8559.48 107.495 94.6485 -126.293 269.719
8562.16 83.7989 92.4925 369.395 13.2968
8564.83 86.1836 78.8302 -203.211 170.951
8567.5 66.5082 101.177 346.668 105.301
8570.18 150.839 109.281 172.445 49.8549
8572.85 110.497 115.709 -369.548 -25.6076
8575.52 85.7918 108.417 120.281 -21.6529
8578.19 128.961 119.092 184.309 95.1718
8580.87 142.524 136.093 -19.0742 74.3568
8583.54 136.795 141.701 57.8357 26.4601
8586.21 145.783 133.02 40.6187 182.425
8588.88 116.483 149.082 448.822 92.7078
8591.55 184.979 122.355 -211.317 103.342
8594.22 65.6021 138.235 72.5216 -37.6122
8596.89 164.124 123.795 25.9593 111.727
8599.56 141.66 137.524 236.701 147.566
8602.23 106.788 96.245 180.037 279.647
8604.9 40.2865 77.0814 422.203 163.186
8607.57 84.1695 77.9066 -112.684 137.726
8610.24 109.264 94.2834 103.66 26.6101
8612.91 89.4166 106.283 88.8539 162.72
8615.58 120.167 90.1835 295.646 166.331
8618.24 60.9668 94.0316 114.494 101.628
8620.91 100.961 95.2977 -105.258 17.6163
8623.58 123.965 106.386 43.6124 45.759
8626.25 94.2317 99.2702 198.922 358.767
8628.91 79.6136 90.3286 833.767 389.653
8631.58 97.1406 73.6111 136.27 281.901
8634.24 44.0791 81.2301 -124.335 -103.427
8636.91 102.471 66.0847 -322.217 -25.9762
8639.58 51.7041 69.1613 368.623 257.018
8642.24 53.309 65.6807 724.647 339.668
8644.91 92.0291 96.8747 -74.2646 45.2476
8647.57 145.286 112.827 -514.639 -220.496
8650.23 101.166 104.627 -72.5826 -273.11
8652.9 67.4288 77.8006 -232.108 -17.3664
8655.56 64.8068 86.0191 252.591 -17.4504
8658.23 125.822 81.056 -72.8348 202.576
8660.89 52.5394 88.2541 427.972 260.936
8663.55 86.4011 79.177 427.671 382.628
8666.21 98.5904 99.537 292.242 111.816
8668.88 113.619 95.7819 -384.465 48.3784
8671.54 75.136 112.119 237.358 38.0818
8674.2 147.601 116.179 261.352 224.005
8676.86 125.799 123.223 173.304 227.88
8679.52 96.268 117.323 248.986 241.375
8682.18 129.901 107.401 301.836 216.855
8684.84 96.0332 128.367 99.7427 164.895
8687.5 159.167 130.296 93.1064 60.6306
8690.16 135.687 135.357 -10.9573 128.232
8692.82 111.216 140.904 302.547 180.888
8695.48 175.808 156.316 251.075 275.775
8698.14 181.923 177.494 273.703 135.983
8700.8 174.751 175.759 -116.829 26.88
8703.46 170.603 170.542 -76.234 32.6108
8706.11 166.273 164.683 290.895 -4.33878
8708.77 157.173 163.714 -227.678 174.599
8711.43 167.697 173.555 460.58 57.6886
8714.09 195.795 180.645 -59.8363 179.506
8716.74 178.445 171.073 137.775 104.912
8719.4 138.979 160.241 236.798 205.421
8722.06 163.298 151.74 241.691 170.869
8724.71 152.943 169.864 34.1178 95.6113
8727.37 193.352 176.038 11.0251 33.212
8730.02 181.82 180.241 54.4929 125.292
8732.68 165.55 167.95 310.359 105.168
8735.33 156.48 183.486 -49.3474 12.5439
8737.99 228.428 191.698 -223.38 16.3829
8740.64 190.185 199.7 321.876 -12.6992
8743.29 180.486 201.73 -136.593 76.2634
8745.95 234.519 191.062 43.5079 72.7089
8748.6 158.181 185.233 311.212 145.817
8751.25 163 172.001 82.7303 169.5
8753.9 194.821 158.491 114.558 139.174
8756.56 117.652 180.42 220.232 96.1125
8759.21 228.786 179.847 -46.4529 51.8633
8761.86 193.103 196.388 -18.1895 -86.4617
8764.51 167.275 164.662 -194.743 92.3668
8767.16 133.609 147.934 490.033 206.081
8769.81 142.917 158.503 322.952 153.487
8772.46 198.985 181.69 -352.523 -176.064
8775.11 203.168 208.751 -498.62 -146.864
8777.76 224.099 226.54 410.55 155.453
8780.41 252.353 222.317 554.429 324.052
8783.06 190.499 182.131 7.17566 171.839
8785.71 103.542 174.251 -46.0884 -136.407
8788.36 228.713 151.441 -370.307 -73.1986
8791 122.068 171.378 196.8 -13.9979
8793.65 163.352 164.762 131.514 107.955
8796.3 208.866 178.535 -4.4477 85.3961
8798.95 163.386 176.208 129.122 166.528
8801.59 156.373 171.282 374.909 194.25
8804.24 194.088 183.61 78.7181 185.262
8806.89 200.37 183.784 102.158 67.1097
8809.53 156.894 176.866 20.4526 31.7556
8812.18 173.335 176.893 -27.344 -45.6971
8814.82 200.451 175.353 -130.2 -8.82403
8817.47 152.272 147.455 131.072 -8.37432
8820.11 89.6426 163.278 -25.9949 69.4317
8822.76 247.921 134.24 103.218 122.571
8825.4 65.1568 130.207 290.49 296.098
8828.04 77.5449 110.37 494.584 436.372
8830.69 188.407 107.027 524.042 554.578
8833.33 55.1292 159.359 645.107 274.805
8835.97 234.542 153.174 -344.735 -36.0873
8838.62 169.851 167.607 -408.634 -264.91
8841.26 98.4281 128.11 -41.362 -220.308
8843.9 116.051 117.816 -210.929 -123.498
8846.54 138.969 145.462 -118.204 -131.101
8849.18 181.366 160.271 -64.1716 -62.3694
8851.82 160.478 157.559 -4.73281 -43.5343
8854.46 130.833 138.425 -61.6984 -91.5083
8857.1 123.964 135.053 -208.094 -111.037
8859.74 150.362 147.816 -63.3199 -43.427
8862.38 169.121 158.279 141.133 54.0339
8865.02 155.355 159.756 84.2889 87.3212
8867.66 154.792 150.004 36.542 45.1351
8870.3 139.866 141.33 14.5745 6.17849
8872.94 129.333 134.622 -32.581 16.1359
8875.57 134.667 140.486 66.4142 -33.6242
8878.21 157.459 136.892 -134.706 86.216
8880.85 118.55 140.82 326.94 106.115
8883.49 146.451 117.723 126.11 74.7437
8886.12 88.1666 122.067 -228.818 -89.587
8888.76 131.583 117.637 -166.053 -111.196
8891.39 133.163 110.187 61.2826 -131.518
8894.03 65.8152 114.392 -289.784 -112.265
8896.67 144.199 113.164 -108.294 -116.432
8899.3 129.478 133.149 48.7821 -4.86479
8901.94 125.771 110.034 44.9174 68.002
8904.57 74.8523 129.646 110.306 17.0182
8907.2 188.313 125.414 -104.169 12.1232
8909.84 113.078 146.949 30.2325 -40.276
8912.47 139.456 127.324 -46.8914 74.9193
8915.1 129.439 158.008 241.417 53.4493
8917.74 205.128 158.65 -34.1774 6.07213
8920.37 141.382 171.265 -189.023 -31.6675
8923 167.286 141.228 128.198 -72.899
8925.63 115.018 116.032 -157.872 25.0134
8928.26 65.7927 96.6872 104.714 -44.9105
8930.89 109.251 112.985 -81.5736 10.9733
8933.53 163.911 127.27 9.77951 21.8862
8936.16 108.649 135.499 137.453 -2.91374
8938.79 133.939 127.533 -155.973 -91.6224
8941.42 140.012 126.37 -256.346 -132.136
8944.05 105.161 110.121 15.912 -29.6882
8946.67 85.1911 94.5834 151.37 71.8329
8949.3 93.3983 99.9294 48.2168 31.3471
8951.93 121.199 101.873 -105.545 -66.2162
8954.56 91.0225 136.027 -141.32 -119.192
8957.19 195.861 144.517 -110.71 -116.174
8959.82 146.668 147.256 -96.4911 109.484
8962.44 99.2394 100.56 535.654 84.6734
8965.07 55.7731 85.1648 -185.142 19.3791
8967.7 100.482 72.6251 -292.374 -156.165
8970.32 61.6202 79.3323 9.02098 -146.082
8972.95 75.8947 45.8383 -154.892 -48.6238
