wavelength spec_sum spec_optimal
3423.77 52.6468 -181.257
3426.69 -52.4739 -14.3627
3429.61 -27.1577 98.4797
3432.53 29.9336 15.7837
3435.45 34.5083 -446.031
3438.37 -56.358 -144.827
3441.28 24.2988 66.0145
3444.2 63.7496 -596.726
3447.12 -15.365 -266.151
3450.04 13.7941 313.028
3452.96 -6.30327 172.888
3455.88 67.0738 259.492
3458.8 7.56542 -113.763
3461.72 -13.7726 188.39
3464.64 -24.4037 74.1735
3467.56 -0.494995 16.2944
3470.48 -23.817 502.153
3473.4 16.4162 304.17
3476.32 -16.6837 213.316
3479.24 -76.4917 292.632
3482.16 -11.2393 -36.7762
3485.08 6.48095 350.456
3488 -4.9069 409.972
3490.92 -27.1119 -3.87595
3493.84 -25.3607 492.991
3496.76 -55.8498 278.587
3499.68 -32.9034 260.978
3502.6 -31.0387 573.359
3505.52 -9.47133 76.9153
3508.44 -6.19073 188.79
3511.36 -22.7142 660.702
3514.28 -10.5033 553.176
3517.2 43.2055 -20.504
3520.12 36.4555 36.8369
3523.03 45.8475 -18.538
3525.95 24.0257 216.529
3528.87 1.40694 248.201
3531.79 37.1371 730.669
3534.71 26.8003 799.725
3537.63 75.8527 152.493
3540.55 54.8647 786.433
3543.47 5.42393 1027.46
3546.39 13.3854 670.819
3549.31 -14.5643 658.559
3552.23 -29.0419 1032.91
3555.15 -43.8303 958.894
3558.07 -43.9688 245.677
3560.99 -6.3734 162.921
3563.91 -34.2832 338.068
3566.83 -36.3287 435.697
3569.75 -3.24442 -207.084
3572.67 2.33049 -561.095
3575.58 4.6248 -45.4305
3578.5 24.9504 -103.265
3581.42 -12.9935 -315.551
3584.34 -5.02098 -366.196
3587.26 7.08323 -423.189
3590.18 -30.6817 -459.572
3593.1 10.9366 -317.111
3596.02 12.9595 99.3174
3598.94 -1.16877 106.691
3601.86 13.2518 302.37
3604.78 -23.5969 -159.509
3607.7 0.4175 -203.01
3610.62 25.963 -157.077
3613.54 15.4833 -460.994
3616.45 -19.5155 -533.014
3619.37 20.2821 -429.402
3622.29 -27.4329 -111.142
3625.21 1.74777 -258.904
3628.13 -19.8648 -302.161
3631.05 2.81864 79.4435
3633.97 60.586 197.412
3636.89 36.2148 -543.441
3639.81 11.0273 -744.097
3642.73 -0.860605 -487.755
3645.65 18.048 -629.257
3648.56 -39.4885 -627.861
3651.48 37.7487 -442.716
3654.4 -24.1465 -424.633
3657.32 -36.6033 -518.143
3660.24 59.1566 -760.872
3663.16 5.07572 -802.845
3666.08 43.1582 -530.464
3669 -5.43909 -643.401
3671.92 -6.11505 -637.894
3674.84 -2.08712 -237.04
3677.75 15.7258 -274.731
3680.67 0.730542 -350.546
3683.59 39.6083 -170.794
3686.51 23.7827 248.766
3689.43 -3.44662 427.452
3692.35 19.1392 240.027
3695.27 48.7103 -121.796
3698.19 -15.2014 -333.213
3701.11 8.87866 -626.932
3704.02 32.2328 -509.532
3706.94 -0.41302 -237.136
3709.86 42.0966 99.2941
3712.78 49.9267 148.15
3715.7 5.06171 -7.49969
3718.62 41.2065 60.5843
3721.54 14.8194 -72.7917
3724.45 34.5107 -325.172
3727.37 -25.4924 -375.092
3730.29 35.6015 -119.082
3733.21 19.7558 -224.181
3736.13 54.0079 -358.51
3739.05 57.8582 -444.384
3741.97 52.8978 -565.397
3744.88 28.8654 -533.29
3747.8 44.7592 -526.955
3750.72 58.0942 -126.391
3753.64 40.8708 93.8028
3756.56 22.0342 -71.4492
3759.48 45.3215 -305.478
3762.4 21.6721 -380.755
3765.31 10.867 -205.867
3768.23 -17.9883 238.66
3771.15 29.9431 476.513
3774.07 10.5199 536.702
3776.99 22.2296 555.455
3779.91 6.38558 635.58
3782.82 3.17587 614.737
3785.74 -6.20977 702.356
3788.66 20.9704 682.075
3791.58 9.87813 476.797
3794.5 14.1221 302.486
3797.41 19.9815 249.253
3800.33 33.4702 321.174
3803.25 -4.25882 343.14
3806.17 30.8221 332.574
3809.09 6.11592 336.336
3812 22.4596 69.0023
3814.92 52.0744 -202.497
3817.84 20.7891 -346.792
3820.76 24.6377 -244.39
3823.68 7.65845 -177.816
3826.59 24.4871 -167.19
3829.51 11.8038 -332.338
3832.43 24.4712 -565.37
3835.35 17.566 -701.598
3838.27 -6.16179 -577.909
3841.18 14.824 -355.528
3844.1 -7.52026 -111.419
3847.02 -4.9504 79.1625
3849.94 17.723 110.912
3852.85 -2.6202 59.7803
3855.77 -2.16406 38.3465
3858.69 2.17612 99.8911
3861.61 5.52642 88.5676
3864.52 -2.37507 34.2082
3867.44 -3.1126 18.2241
3870.36 12.9373 5.625
3873.28 -12.2896 12.2222
3876.19 -17.4047 75.0842
3879.11 12.4621 104.183
3882.03 -3.45445 57.8119
3884.95 -12.7287 3.40458
3887.86 4.82617 74.9073
3890.78 -17.2582 251.919
3893.7 -7.30653 358.639
3896.62 -10.5111 348.06
3899.53 15.0717 196.212
3902.45 -7.85961 228.497
3905.37 8.73114 235.789
3908.29 -19.2792 366.631
3911.2 0.817851 368.218
3914.12 -13.7159 442.024
3917.04 -3.84634 425.641
3919.95 1.07964 281.625
3922.87 -3.13946 97.9216
3925.79 18.028 -163.348
3928.71 26.1651 -417.456
3931.62 -2.93476 -591.206
3934.54 3.70428 -707.318
3937.46 0.702702 -671.202
3940.37 13.5687 -678.962
3943.29 -10.975 -531.478
3946.21 15.6096 -334.863
3949.12 -6.7268 -214.566
3952.04 2.6633 -206.772
3954.96 21.7551 -246.157
3957.87 17.8387 -407.911
3960.79 6.27343 -766.613
3963.71 19.3431 -1054.04
3966.62 20.2048 -1156.25
3969.54 -2.23742 -1073.17
3972.46 30.1732 -836.476
3975.37 36.2567 -494.705
3978.29 23.1758 -219.731
3981.21 15.4917 -152.254
3984.12 31.2546 -143.197
3987.04 10.6474 -108.628
3989.96 12.146 -156.983
3992.87 29.6984 -234.489
3995.79 14.7151 -216.354
3998.7 25.2574 -362.77
4001.62 43.905 -587.735
4004.54 27.7581 -793.213
4007.45 21.2638 -849.833
4010.37 34.2318 -1043.23
4013.29 28.4077 -1154.59
4016.2 4.91354 -1112.37
4019.12 24.7258 -1119.87
4022.03 25.2995 -1082.29
4024.95 32.7381 -968.799
4027.87 14.8013 -888.483
4030.78 13.0969 -859.587
4033.7 43.4965 -761.318
4036.61 28.19 -674.513
4039.53 4.70043 -657.555
4042.44 40.872 -650.93
4045.36 28.702 -629.359
4048.28 13.6845 -652.441
4051.19 11.9424 -650.528
4054.11 9.4775 -627.775
4057.02 57.0526 -648.17
4059.94 9.02132 -676.927
4062.85 10.0825 -680.355
4065.77 14.7547 -641.684
4068.69 45.8694 -515.386
4071.6 27.8186 -432.632
4074.52 26.596 -403.905
4077.43 39.164 -357.827
4080.35 10.2875 -238.096
4083.26 32.7032 -220.26
4086.18 3.71205 -178.322
4089.09 -4.83908 -150.806
4092.01 -8.20635 -223.042
4094.92 30.0157 -310.604
4097.84 13.7535 -342.515
4100.75 14.1222 -297.341
4103.67 5.31547 -319.76
4106.58 18.1367 -243.564
4109.5 16.422 -148.398
4112.41 22.6085 -122.348
4115.33 9.37793 -89.9811
4118.24 18.0582 -48.9219
4121.16 23.3825 -80.1115
4124.07 38.6781 -113.295
4126.99 49.293 -91.4068
4129.9 40.4725 -46.0231
4132.82 12.3001 11.971
4135.73 37.0705 130.55
4138.65 33.4161 190.669
4141.56 18.4287 227.098
4144.48 56.3526 336.832
4147.39 20.9847 408.329
4150.3 45.7489 456.087
4153.22 21.526 434.627
4156.13 13.23 515.67
4159.05 17.773 489.165
4161.96 27.9522 494.564
4164.88 45.123 401.226
4167.79 46.2249 447.939
4170.7 23.2621 324.073
4173.62 27.5896 272.103
4176.53 24.9435 99.0749
4179.45 17.815 -42.0609
4182.36 28.8322 -183.32
4185.27 12.4725 -313.73
4188.19 29.1738 -463.81
4191.1 36.7237 -529.594
4194.02 31.7509 -724.995
4196.93 27.375 -937.305
4199.84 12.8182 -1082.82
4202.76 36.1903 -1016.17
4205.67 37.0768 -855.883
4208.58 28.9551 -641.38
4211.5 47.2453 -388.791
4214.41 25.2148 -6.61486
4217.33 22.4069 353.844
4220.24 31.8802 719.299
4223.15 23.5511 1033.56
4226.07 25.1387 1276.86
4228.98 27.2352 1465.21
4231.89 46.3538 1437.02
4234.81 40.3608 1281.53
4237.72 37.6598 1043.99
4240.63 15.2241 889.176
4243.54 37.7204 677.671
4246.46 22.4288 379.581
4249.37 11.1512 109.528
4252.28 17.0018 -66.4017
4255.2 25.9483 -107.609
4258.11 12.5358 -104.499
4261.02 19.8096 -71.6791
4263.94 35.4056 -114.429
4266.85 24.543 -111.621
4269.76 33.6565 -102.754
4272.67 12.2385 -66.3842
4275.59 37.2345 0.0311293
4278.5 18.2886 10.028
4281.41 28.7022 -4.14127
4284.32 22.7205 -114.191
4287.24 17.7364 -115.856
4290.15 6.80732 -166.966
4293.06 30.6892 -230.998
4295.97 17.892 -359.37
4298.89 6.02161 -479.927
4301.8 14.3816 -530.258
4304.71 12.7492 -606.84
4307.62 4.57586 -658.885
4310.53 10.5788 -557.074
4313.45 22.6898 -461.798
4316.36 13.5507 -312.833
4319.27 35.7423 -159.129
4322.18 5.46844 -158.029
4325.09 16.4069 -55.5415
4328.01 32.4241 140.566
4330.92 20.122 190.739
4333.83 4.44445 159.789
4336.74 7.84273 67.8311
4339.65 17.5301 16.0085
4342.56 2.55657 -4.00978
4345.48 3.47195 -8.21709
4348.39 14.9727 -1.56206
4351.3 19.8762 -95.8547
4354.21 18.8665 -160.12
4357.12 10.0297 -205.515
4360.03 35.3039 -220.435
4362.94 23.3933 -372.03
4365.85 35.8266 -576.561
4368.77 27.8435 -779.884
4371.68 7.25451 -950.892
4374.59 36.0909 -1086.01
4377.5 25.1039 -1064.9
4380.41 41.0992 -1187.79
4383.32 24.5305 -1214.65
4386.23 40.2483 -1174.22
4389.14 13.9085 -1011.83
4392.05 44.5383 -935.728
4394.96 27.1397 -913.804
4397.87 11.6322 -887.391
4400.79 46.714 -849.23
4403.7 20.5061 -829.335
4406.61 41.9377 -728.213
4409.52 29.319 -591.368
4412.43 54.1085 -502.667
4415.34 16.963 -471.607
4418.25 34.3817 -498.942
4421.16 25.3731 -528.564
4424.07 26.9839 -677.393
4426.98 30.132 -708.592
4429.89 32.6831 -748.475
4432.8 53.3269 -699.579
4435.71 53.4107 -753.858
4438.62 38.4704 -725.516
4441.53 44.8267 -742.905
4444.44 9.92533 -683.926
4447.35 41.1475 -698.257
4450.26 46.1244 -633.431
4453.17 41.2656 -531.359
4456.08 30.4353 -444.45
4458.99 34.8395 -336.856
4461.89 41.8762 -167.989
4464.8 49.8423 -224.735
4467.71 21.9679 -441.058
4470.62 26.4392 -457.978
4473.53 38.3187 -582.131
4476.44 37.4344 -718.295
4479.35 30.9751 -722.833
4482.26 24.8569 -691.597
4485.17 47.3296 -544.296
4488.08 32.2898 -247.672
4490.99 47.3575 -77.4149
4493.9 35.4945 63.9087
4496.8 35.3598 172.438
4499.71 52.1597 212.188
4502.62 30.2081 293.942
4505.53 24.5752 247.435
4508.44 33.5867 115.411
4511.35 28.8431 -11.9083
4514.26 36.6755 -106.408
4517.16 22.0774 -302.222
4520.07 36.456 -334.715
4522.98 28.8661 -447.372
4525.89 21.2816 -609.311
4528.8 41.4575 -574.72
4531.7 32.3997 -657
4534.61 1.80236 -589.481
4537.52 14.5524 -456.582
4540.43 38.9054 -298.243
4543.34 25.8984 -142.6
4546.24 28.578 21.916
4549.15 25.5706 52.4177
4552.06 42.2934 55.6415
4554.97 22.8636 72.4225
4557.88 0.725799 -22.192
4560.78 28.017 -36.1092
4563.69 18.5424 -196.475
4566.6 31.1836 -208.399
4569.5 26.6229 -155.112
4572.41 31.394 -149.133
4575.32 29.33 -79.6547
4578.23 16.3139 -84.2959
4581.13 32.8623 45.7149
4584.04 34.8728 108.978
4586.95 32.1111 61.3481
4589.85 34.0867 -41.7239
4592.76 61.8621 -58.2082
4595.67 42.0331 -71.7042
4598.58 26.7742 -135.499
4601.48 42.005 39.4549
4604.39 20.2285 167.789
4607.29 34.6292 187.005
4610.2 24.9018 346.075
4613.11 45.5202 372.605
4616.01 22.0938 219.249
4618.92 43.5194 -38.0418
4621.83 36.2459 -198.728
4624.73 38.882 -132.494
4627.64 33.749 -219.949
4630.55 59.4378 -371.432
4633.45 38.9835 -377.528
4636.36 40.7915 -407.194
4639.26 43.7401 -457.42
4642.17 41.2338 -557.89
4645.07 41.8499 -640.021
4647.98 29.8621 -742.489
4650.89 33.8799 -929.792
4653.79 52.6973 -1200.68
4656.7 37.1346 -1344.74
4659.6 38.4916 -1139.1
4662.51 57.3442 -838.099
4665.41 64.8808 -604.716
4668.32 51.1396 -521.639
4671.22 46.943 -595.445
4674.13 30.7936 -606.138
4677.03 41.9478 -450.33
4679.94 30.4898 -177.608
4682.84 47.2805 95.0873
4685.75 42.6134 187.967
4688.65 32.5978 251.391
4691.56 36.397 26.6055
4694.46 52.2947 -308.907
4697.37 28.7259 -430.472
4700.27 40.4079 -330.674
4703.18 45.8158 -114.567
4706.08 41.0905 122.603
4708.98 22.1564 215.809
4711.89 33.1102 392.036
4714.79 38.8122 641.832
4717.7 51.8184 678.896
4720.6 48.0589 357.136
4723.51 30.8787 225.561
4726.41 24.1191 161.393
4729.31 48.2642 -82.1178
4732.22 44.8329 -119.455
4735.12 29.5248 80.4624
4738.02 41.7909 145.665
4740.93 36.1801 198.156
4743.83 38.7212 235.731
4746.73 45.2762 381.639
4749.64 27.8184 714.678
4752.54 52.0262 639.965
4755.44 28.071 329.099
4758.35 47.7467 225.239
4761.25 38.166 198.061
4764.15 36.4377 246.318
4767.06 27.6779 437.627
4769.96 25.9867 624.022
4772.86 28.7034 580.707
4775.77 31.8195 298.636
4778.67 10.9195 -57.2083
4781.57 30.9591 -244.705
4784.47 36.7664 -433.165
4787.38 17.9469 -603.214
4790.28 22.6074 -337.636
4793.18 26.7979 58.3206
4796.08 22.9319 302.134
4798.98 19.8814 359.42
4801.89 4.0287 288.922
4804.79 36.4402 93.8124
4807.69 18.6919 100.917
4810.59 22.6352 360.396
4813.49 10.4669 524.413
4816.4 3.59125 558.4
4819.3 8.18959 714.808
4822.2 22.0992 96.5451
4825.1 19.8808 -247.264
4828 0.667571 -415.976
4830.9 14.2239 -378.304
4833.81 19.19 -557.244
4836.71 1.25662 -220.546
4839.61 1.36947 38.799
4842.51 18.4478 340.346
4845.41 0.906073 568.184
4848.31 9.71133 294.672
4851.21 14.6135 474.931
4854.11 18.7503 232.597
4857.01 6.10237 297.699
4859.91 24.3849 165.723
4862.82 17.4474 327.824
4865.72 22.3968 -4.27629
4868.62 19.4499 86.6455
4871.52 41.2028 245.175
4874.42 21.9482 493.794
4877.32 31.0589 318.742
4880.22 45.1739 -44.9688
4883.12 37.4798 -262.003
4886.02 34.0269 143.49
4888.92 46.0172 163.481
4891.82 45.1597 -148.114
4894.72 52.0538 -259.655
4897.62 43.8453 -296.463
4900.52 55.6702 -266.363
4903.42 49.4588 -188.264
4906.32 42.7151 -540.961
4909.21 61.4996 -79.3973
4912.11 53.6905 456.817
4915.01 63.9032 78.1623
4917.91 50.569 -468.165
4920.81 54.1611 -273.625
4923.71 53.8111 247.524
4926.61 51.4619 107.86
4929.51 60.5944 -471.464
4932.41 43.417 -421.838
4935.31 52.149 -23.7243
4938.2 70.769 344.119
4941.1 54.1645 127.38
4944 55.7511 289.875
4946.9 51.0744 155.157
4949.8 40.5258 653.154
4952.7 62.7788 1121.56
4955.59 62.3064 1091.11
4958.49 56.0195 350.555
4961.39 51.6483 368.007
4964.29 44.8085 176.931
4967.19 48.094 453.905
4970.08 52.175 137.193
4972.98 60.1096 280.342
4975.88 52.9253 455.049
4978.78 47.621 -69.1259
4981.67 51.0403 230.802
4984.57 57.1448 -1305.11
4987.47 55.1661 -717.5
4990.37 56.594 92.9519
4993.26 45.6814 262.092
4996.16 41.5932 695.892
4999.06 36.1169 165.549
5001.95 46.8078 -187.736
5004.85 26.1263 -162.823
5007.75 41.754 450.785
5010.64 37.8974 855.588
5013.54 55.1173 227.183
5016.44 43.9003 360.186
5019.33 27.3947 372.026
5022.23 47.6801 222.956
5025.13 27.1173 -754.123
5028.02 41.6268 -450.674
5030.92 39.006 -870.697
5033.81 34.5914 -488.355
5036.71 36.2401 -869.748
5039.61 46.3026 419.615
5042.5 39.5963 1427.08
5045.4 41.9953 166.834
5048.29 32.0368 293.601
5051.19 43.4679 227.178
5054.08 25.5379 -639
5056.98 45.6498 -831.387
5059.87 42.8139 -893.005
5062.77 47.6111 -848.362
5065.67 42.9281 -1120
5068.56 33.4632 160.339
5071.46 49.6032 -87.4207
5074.35 33.8167 471.387
5077.24 30.488 2107.45
5080.14 47.589 187.424
5083.03 50.1308 341.611
5085.93 53.5059 51.4603
5088.82 39.5186 -1208.59
5091.72 30.5555 -579.561
5094.61 30.9364 -308.698
5097.51 44.2894 623.639
5100.4 52.0209 919.344
5103.29 45.6986 133.791
5106.19 47.1989 760.592
5109.08 54.0487 352.724
5111.97 36.0022 1464.1
5114.87 28.9104 290.767
5117.76 46.797 986.393
5120.66 32.2662 240.484
5123.55 40.7025 -172.863
5126.44 41.3802 802.685
5129.34 34.683 -329.234
5132.23 44.1555 1404.06
5135.12 42.2669 1285.64
5138.01 43.2428 1750.58
5140.91 46.1596 366.493
5143.8 35.7438 505.999
5146.69 41.4183 938.268
5149.59 34.4274 523.302
5152.48 29.3485 669.022
5155.37 32.4429 116.677
5158.26 51.6387 1303.12
5161.15 17.1024 1305.74
5164.05 26.4834 805.78
5166.94 17.8113 694.767
5169.83 32.6148 813.849
5172.72 21.1304 1164.38
5175.61 37.7338 418.168
5178.51 20.2418 992.907
5181.4 31.1086 790.879
5184.29 26.1174 778.238
5187.18 21.6089 -176.071
5190.07 38.8275 266.822
5192.96 31.8292 179.572
5195.85 22.4206 419.902
5198.75 42.2286 -122.773
5201.64 37.9944 472.091
5204.53 24.8747 62.0848
5207.42 36.2931 68.3866
5210.31 42.0952 -76.1261
5213.2 40.9461 -117.764
5216.09 31.4588 66.9978
5218.98 37.2036 -366.93
5221.87 37.2496 1826.43
5224.76 31.9064 429.823
5227.65 39.7885 977.624
5230.54 36.9769 119.543
5233.43 52.624 804.745
5236.32 39.5545 -145.975
5239.21 36.9603 -13.0257
5242.1 43.7073 5.90103
5244.99 41.1797 763.203
5247.88 34.744 -1459.51
5250.77 39.3807 -496.693
5253.66 32.7732 272.77
5256.55 42.2301 -164.546
5259.44 44.4126 376.498
5262.33 44.2185 68.5875
5265.22 41.6273 997.485
5268.1 41.6043 126.836
5270.99 38.997 317.341
5273.88 31.0363 -379.518
5276.77 39.067 -188.639
5279.66 39.1489 -155.085
5282.55 37.7304 201.35
5285.44 54.5992 -30.9612
5288.32 35.2092 10.7438
5291.21 36.842 -192.509
5294.1 31.85 493.398
5296.99 41.7231 456.474
5299.88 43.5614 285.159
5302.76 34.3264 195.96
5305.65 30.3014 288.088
5308.54 37.0801 41.2245
5311.43 46.1579 -89.3566
5314.31 44.1283 -104.94
5317.2 50.3391 467.4
5320.09 39.5245 514.614
5322.97 37.3155 208.863
5325.86 41.2958 450.35
5328.75 38.6495 -0.803622
5331.64 48.5993 442.785
5334.52 26.3533 418.807
5337.41 46.9553 410.69
5340.3 34.9839 146.19
5343.18 35.6526 -52.7192
5346.07 38.7054 297.222
5348.95 40.4652 -113.031
5351.84 26.0209 259.127
5354.73 38.9652 128.097
5357.61 37.0743 570.309
5360.5 36.5738 -183.578
5363.38 32.9375 146.295
5366.27 47.9815 60.0942
5369.15 42.3275 256.203
5372.04 47.2746 268.724
5374.93 35.4325 -289.242
5377.81 36.0302 -281.127
5380.7 49.1021 591.474
5383.58 54.1473 1154.2
5386.47 28.4979 -184.204
5389.35 29.1609 -642.632
5392.23 41.6125 369.833
5395.12 44.3188 1100.65
5398 27.538 231.702
5400.89 32.5181 -96.6231
5403.77 40.7622 94.9618
5406.66 49.6596 417.97
5409.54 26.0895 806.726
5412.43 40.37 393.704
5415.31 42.7325 -217.488
5418.19 28.8416 155.885
5421.08 40.7106 295.322
5423.96 28.0952 542.655
5426.84 38.6176 -417.874
5429.73 40.0451 -403.202
5432.61 37.6206 982.072
5435.49 34.1695 -47.7092
5438.38 51.1453 157.207
5441.26 29.4984 260.845
5444.14 37.0744 579.776
5447.03 33.575 1404.22
5449.91 32.137 499.785
5452.79 35.4268 513.956
5455.67 41.2338 529.786
5458.56 43.0913 720.292
5461.44 38.1996 -324.94
5464.32 33.4554 1116.82
5467.2 27.4027 1323.37
5470.08 21.6984 -1003.26
5472.97 42.1562 113.781
5475.85 27.6196 12.9972
5478.73 47.5952 267.722
5481.61 39.5082 1264.95
5484.49 50.7062 415.83
5487.37 36.6889 -948.05
5490.25 40.1988 -1865.89
5493.14 35.9207 725.191
5496.02 32.824 -116.748
5498.9 39.1612 4.80916
5501.78 32.3438 260.815
5504.66 38.3098 -676.999
5507.54 35.1386 595.758
5510.42 31.0947 545.534
5513.3 35.7928 990.002
5516.18 34.9898 1583.79
5519.06 47.2583 -230.913
5521.94 29.8587 -1054.72
5524.82 35.2499 2920.53
5527.7 41.9403 574.208
5530.58 50.4455 -576.859
5533.46 42.0934 -5.83558
5536.34 40.5766 -3646.5
5539.22 36.1084 -1494.43
5542.1 34.8397 1218.9
5544.98 37.656 -1320.51
5547.86 41.4213 1349.04
5550.74 29.9684 -344.885
5553.61 36.2166 451.239
5556.49 31.7184 6262.62
5559.37 38.9157 -2210.56
5562.25 26.4998 -6340.82
5565.13 27.5217 3766.24
5568.01 30.7783 3858.92
5570.89 45.3309 -1679.16
5573.76 31.1275 1760.13
5576.64 42.8654 4883.9
5579.52 32.9046 3353.18
5582.4 27.4389 2568.94
5585.28 26.7097 3930.42
5588.15 43.3436 4056.98
5591.03 34.9705 -284.507
5593.91 37.7292 -3838.59
5596.79 21.8167 -277.665
5599.66 31.9678 467.675
5602.54 37.9319 3987.46
5605.42 47.0137 6705.24
5608.29 42.4225 1150.57
5611.17 45.7764 -5456.04
5614.05 38.4489 4587.64
5616.92 43.9176 3718.74
5619.8 45.4192 -4589.39
5622.68 37.0041 -385.774
5625.55 32.4896 6066.02
5628.43 55.0958 3706.28
5631.3 36.2715 -5124.76
5634.18 26.5724 -6344.01
5637.06 49.932 5598.7
5639.93 45.3909 2243.33
5642.81 40.0648 -1513.05
5645.68 31.296 4344.91
5648.56 41.9541 4099.23
5651.43 26.054 -1026.87
5654.31 37.4663 -3501.1
5657.18 35.4502 -1439.97
5660.06 32.6564 1450.79
5662.93 28.6379 2217.8
5665.81 39.9467 -1475
5668.68 30.4921 9.34192
5671.56 39.0201 2250.66
5674.43 32.6402 -749.747
5677.3 40.982 -696.95
5680.18 25.6845 245.133
5683.05 38.0728 1384.15
5685.93 32.0271 2022.81
5688.8 30.0855 -641.463
5691.67 43.1961 -2691.24
5694.55 31.3081 -189.789
5697.42 47.7934 -1603.42
5700.29 39.4394 3226.81
5703.17 35.1412 2954.6
5706.04 36.9843 -741.917
5708.91 34.8617 -1773.92
5711.78 35.654 810.42
5714.66 35.4254 -888.059
5717.53 32.5551 393.571
5720.4 40.3072 1248.72
5723.27 30.9898 1111.94
5726.15 43.8877 -605.357
5729.02 28.913 576.121
5731.89 34.7995 4507.71
5734.76 41.1812 1868.58
5737.63 35.4082 -1840.08
5740.51 34.0678 -586.828
5743.38 30.9807 2531.55
5746.25 46.3087 422.416
5749.12 37.4963 -407.784
5751.99 37.6698 3207.24
5754.86 34.5754 404.553
5757.73 29.1724 -3191.56
5760.6 27.425 284.548
5763.47 42.445 -95.2148
5766.34 33.4505 -159.975
5769.22 39.9121 1536.54
5772.09 36.4492 -1031.57
5774.96 32.6462 -1584.8
5777.83 35.381 -491.346
5780.7 45.0068 1509.68
5783.57 28.9701 1125.27
5786.44 45.1257 -1550.1
5789.3 44.5984 -66.0729
5792.17 32.9122 1612.15
5795.04 34.7611 32.1885
5797.91 21.6914 318.662
5800.78 32.7404 1759.68
5803.65 24.5197 2106.05
5806.52 35.1371 -290.364
5809.39 29.1862 -372.959
5812.26 40.9962 1776.75
5815.13 41.2843 1330.2
5817.99 33.1097 -260.09
5820.86 27.3269 -623.558
5823.73 43.3544 -660.163
5826.6 38.8237 -1292.51
5829.47 38.0971 371.158
5832.33 31.2485 -145.166
5835.2 32.1071 -793.319
5838.07 35.3078 1330.06
5840.94 41.7725 372.335
5843.8 25.5326 852.446
5846.67 35.0867 1361.78
5849.54 27.1704 348.09
5852.41 31.8707 -583.329
5855.27 33.4313 776.52
5858.14 37.3315 1347.14
5861.01 33.3977 632.369
5863.87 35.9892 1113.49
5866.74 27.5992 207.749
5869.6 35.1491 -521.836
5872.47 29.6211 -224.233
5875.34 27.7999 678.466
5878.2 27.5148 619.178
5881.07 30.3085 145.021
5883.93 29.4599 -344.428
5886.8 44.9188 1067.96
5889.66 33.117 512.201
5892.53 27.3256 143.504
5895.4 35.4571 828.088
5898.26 34.9603 209.743
5901.12 27.0881 252.041
5903.99 13.9197 -38.1778
5906.85 43.8422 487.191
5909.72 33.5147 -129.002
5912.58 24.8131 168.723
5915.45 36.7048 297.435
5918.31 36.4737 -198.228
5921.18 40.9676 -185.639
5924.04 38.0542 -283.58
5926.9 30.4782 -269.439
5929.77 34.8327 292.351
5932.63 35.0786 -152.996
5935.49 30.7925 257.474
5938.36 37.5958 1050.68
5941.22 36.7603 -186.605
5944.08 36.7064 539.772
5946.95 32.798 329.322
5949.81 33.1677 929.32
5952.67 38.9276 402.708
5955.53 39.1718 1417.86
5958.4 38.436 589.362
5961.26 35.1202 -16.2503
5964.12 33.936 1083.39
5966.98 40.5618 200.777
5969.84 35.3057 584.953
5972.7 37.8499 185.209
5975.57 31.886 -341.301
5978.43 40.0351 575.16
5981.29 41.7607 132.146
5984.15 35.0838 660.698
5987.01 35.9669 532.194
5989.87 39.8413 34.5554
5992.73 32.0677 441.444
5995.59 33.0995 240.598
5998.45 36.3397 125.036
6001.31 36.3785 463.647
6004.17 45.4018 271.571
6007.04 27.8432 238.225
6009.9 33.552 -389.189
6012.75 36.1274 1398.72
6015.61 33.7911 247.411
6018.47 33.5918 -303.475
6021.33 31.0031 73.7817
6024.19 31.6507 631.2
6027.05 48.0189 -1238.55
6029.91 36.6708 327.616
6032.77 31.6071 -702.601
6035.63 39.4075 886.258
6038.49 31.9744 -203.287
6041.35 36.3453 597.307
6044.2 42.1316 197.528
6047.06 40.2509 -57.0819
6049.92 28.99 -184.38
6052.78 42.283 625.6
6055.64 27.2361 -175.606
6058.5 44.9414 487.777
6061.35 34.7255 278.959
6064.21 36.7377 795.177
6067.07 33.7865 -53.076
6069.92 33.3348 585.436
6072.78 35.446 279.616
6075.64 37.055 351.286
6078.5 31.9825 -1078.01
6081.35 28.8382 945.462
6084.21 34.7725 372.12
6087.07 33.0074 -295.324
6089.92 26.0518 360.153
6092.78 35.468 697.828
6095.63 40.3927 800.994
6098.49 32.5137 866.944
6101.35 30.1605 -386.472
6104.2 19.3574 1258.28
6107.06 29.8792 -1738.83
6109.91 34.5715 994.762
6112.77 43.6508 -850.273
6115.62 34.2055 702.143
6118.48 23.7266 -992.755
6121.33 27.7594 86.1471
6124.19 39.4337 202.709
6127.04 31.6582 -0.093713
6129.9 34.9577 492.3
6132.75 32.6131 -1056.79
6135.6 25.8966 1283.71
6138.46 35.561 -1207.07
6141.31 34.4987 -41.3299
6144.17 38.2683 -158.762
6147.02 34.7833 485.733
6149.87 43.3168 -467.891
6152.73 21.0479 727.583
6155.58 31.8376 -532.412
6158.43 37.0418 682.862
6161.29 32.3682 -544.906
6164.14 32.8409 627.239
6166.99 26.9666 -354.917
6169.84 33.801 274.196
6172.7 36.9554 -592.003
6175.55 33.1485 817.76
6178.4 36.1545 -1291.4
6181.25 33.0098 1501.81
6184.1 30.0885 -1273.2
6186.96 27.3179 1925.19
6189.81 42.6657 -1727.43
6192.66 31.2874 1481.57
6195.51 36.6407 -823.805
6198.36 37.5379 1379.26
6201.21 29.8341 -1305.33
6204.06 25.1488 1956.83
6206.91 24.8984 -859.863
6209.76 47.8249 226.566
6212.61 38.8238 982.611
6215.46 30.2478 203.86
6218.31 26.1986 -653.593
6221.16 37.7072 1426.35
6224.01 25.4786 -1756.06
6226.86 34.2362 137.645
6229.71 40.6776 1477.86
6232.56 30.7346 -2192.55
6235.41 31.9836 1106.89
6238.26 32.2261 -292.554
6241.11 33.1752 -1320.77
6243.96 34.7872 734.042
6246.81 36.2701 2.95317
6249.66 30.7125 -1254.52
6252.51 36.4725 811.515
6255.35 34.3385 -489.153
6258.2 36.8627 -461.891
6261.05 40.461 -432.863
6263.9 38.1113 497.835
6266.75 35.0292 771.059
6269.59 30.1412 -418.308
6272.44 44.5008 -9.0518
6275.29 26.1278 1495.82
6278.14 21.2739 508.919
6280.98 33.5957 -1083.17
6283.83 36.3622 1319.98
6286.68 38.6149 -333.358
6289.52 27.9391 768.662
6292.37 34.8414 -1286.61
6295.22 39.8934 1726.54
6298.06 36.7623 -475.417
6300.91 40.5807 -238.042
6303.75 28.4056 -90.7238
6306.6 27.5668 2100.89
6309.44 25.0881 -650.687
6312.29 37.1477 739.19
6315.14 32.8607 -444.873
6317.98 24.5848 1750.81
6320.83 32.1298 -1799.13
6323.67 30.5277 1047.99
6326.52 35.2901 -202.658
6329.36 28.7714 -244.565
6332.2 37.1496 450.801
6335.05 27.6268 -230.622
6337.89 34.4193 1652.7
6340.74 33.8507 -1631.54
6343.58 23.963 74.6582
6346.42 37.4808 150.271
6349.27 31.4624 363.749
6352.11 36.9107 -607.604
6354.95 28.6418 -417.621
6357.8 27.5655 1085.04
6360.64 30.645 -1094.76
6363.48 38.6329 -1477.9
6366.33 27.4039 2656.48
6369.17 24.2606 -1888.38
6372.01 35.4783 1704.91
6374.85 26.3861 -109.601
6377.69 24.0867 -1120.31
6380.54 26.2871 -845.004
6383.38 26.912 2436.93
6386.22 26.5366 -817.85
6389.06 37.4442 -1413.76
6391.9 23.2347 2816.34
6394.74 29.6271 -1352.5
6397.59 27.3342 1394.64
6400.43 22.8628 -385.323
6403.27 25.2434 298.265
6406.11 28.3947 -610.74
6408.95 26.6463 2347.56
6411.79 26.4301 79.5459
6414.63 19.537 -1487.19
6417.47 26.6015 2742.78
6420.31 17.3644 -2268.88
6423.15 24.0083 4590.56
6425.99 22.9272 -3382.66
6428.83 15.3842 3058.96
6431.67 14.9452 -2380.6
6434.5 21.5729 3262.86
6437.34 21.0569 -2822.95
6440.18 25.7326 757.951
6443.02 14.8501 325.183
6445.86 8.83531 -2235.27
6448.7 14.5265 1539.9
6451.54 8.40815 -721.694
6454.37 15.8204 1085.13
6457.21 8.19694 308.265
6460.05 14.228 614.904
6462.89 -0.199294 830.073
6465.72 12.9732 397.322
6468.56 15.614 -2093.44
6471.4 7.25885 1694.97
6474.24 7.85577 -1337.13
6477.07 4.94738 1677.18
6479.91 8.50823 424.232
6482.75 9.68767 262.096
6485.58 12.3465 -1407
6488.42 12.787 2435.81
6491.25 9.60065 -333.462
6494.09 5.85697 -82.4576
6496.93 14.3492 -2511
6499.76 16.0616 41.8925
6502.6 5.84417 371.226
6505.43 14.6899 2569.02
6508.27 4.38979 -2322.79
6511.1 8.79473 1567.89
6513.94 11.77 24.1296
6516.77 16.2132 962.621
6519.61 13.0817 -76.4307
6522.44 14.1565 -1799.2
6525.28 18.6235 2454.59
6528.11 22.3983 -582.756
6530.94 20.0085 2917.51
6533.78 16.0596 -2833.39
6536.61 16.3256 1191.92
6539.44 24.2827 -899.579
6542.28 21.3659 2095.05
6545.11 30.4885 -422.325
6547.94 18.171 -1419.05
6550.78 28.126 107.429
6553.61 23.7307 -151.61
6556.44 58.8661 687.87
6559.27 82.6634 1990.02
6562.11 106.328 -2839.73
6564.94 101.999 1912.58
6567.77 161.543 -226.176
6570.6 131.809 409.053
6573.43 106.723 -1935.66
6576.26 51.9062 356.245
6579.1 51.6115 603.329
6581.93 40.8321 1167.86
6584.76 57.1558 2173.83
6587.59 54.1457 -2989.23
6590.42 52.4317 1478.31
6593.25 56.7532 -2038.35
6596.08 54.4746 1000.47
6598.91 55.5025 -1100.74
6601.74 59.1558 613.973
6604.57 63.2782 637.822
6607.4 67.9958 816.101
6610.23 63.3381 1205.94
6613.06 65.49 1892.62
6615.89 68.257 -2797.25
6618.72 62.4189 2115.64
6621.54 82.4674 848.075
6624.37 71.0541 632.99
6627.2 69.7666 -548.416
6630.03 55.9447 -336.387
6632.86 65.7148 2180.34
6635.69 72.0118 -1552.82
6638.51 66.3918 731.714
6641.34 79.2541 290.136
6644.17 70.4867 892
6647 77.7009 2455.23
6649.82 66.7746 312.852
6652.65 71.01 74.4513
6655.48 73.3651 412.546
6658.3 77.4149 2.42312
6661.13 81.7469 -1068.31
6663.96 73.8009 -2448.54
6666.78 69.8379 4408.41
6669.61 57.5354 -3732.94
6672.44 57.562 1115.54
6675.26 70.407 1747.94
6678.09 65.0887 -2257.2
6680.91 61.1388 2414.59
6683.74 74.4873 676.696
6686.56 55.8853 -1608.24
6689.39 59.7663 2194.7
6692.21 65.6067 -121.088
6695.04 53.4443 1866.19
6697.86 64.6032 1980.38
6700.69 61.3952 -350.577
6703.51 60.3434 -1294.79
6706.33 57.0196 807.691
6709.16 54.0656 -1366.9
6711.98 61.3846 4894.25
6714.8 46.0871 -2508.43
6717.63 58.2016 1692.93
6720.45 46.5589 -1562.89
6723.27 47.6276 1490.53
6726.1 57.8018 -3438.27
6728.92 51.6685 3986.32
6731.74 50.5048 -957.969
6734.56 53.1281 -1123.24
6737.39 43.1497 -928.789
6740.21 48.714 2859.04
6743.03 50.3792 1264.77
6745.85 42.6381 1312.28
6748.67 47.1441 -2763.11
6751.49 41.3453 4045.59
6754.32 39.7298 1321
6757.14 43.6502 -1523.15
6759.96 41.7372 2667.46
6762.78 40.7504 2329.12
6765.6 41.2356 -198.632
6768.42 39.7914 -1162.13
6771.24 37.8701 1104.11
6774.06 40.5756 -824.582
6776.88 33.6304 1467.25
6779.7 41.0125 2802.51
6782.52 32.6785 -1744.63
6785.34 32.1521 -395.195
6788.16 40.3733 2158.35
6790.98 36.0158 2054.87
6793.79 35.7769 -3108.06
6796.61 35.1694 4431.57
6799.43 42.644 365.951
6802.25 24.0638 -595.448
6805.07 37.3637 2341.49
6807.89 34.3167 1484.25
6810.7 32.9618 391.513
6813.52 33.0719 -179.606
6816.34 25.1431 309.62
6819.16 30.6279 -516.333
6821.97 36.4716 1478.97
6824.79 36.9965 -554.615
6827.61 32.9754 727.023
6830.42 41.5204 4768.35
6833.24 33.8257 -1536.73
6836.06 21.4553 2218.67
6838.87 36.3308 -1269.75
6841.69 40.3607 1770.28
6844.5 28.3028 -731.68
6847.32 26.6471 1250.2
6850.14 34.1508 -1482.41
6852.95 29.4534 819.071
6855.77 32.3227 -2170.42
6858.58 31.9935 2481.69
6861.4 33.0733 2049.86
6864.21 24.0064 -3985.79
6867.02 29.1286 2090.29
6869.84 21.9498 -2754.59
6872.65 28.5 3114.87
6875.47 31.9139 -1532.2
6878.28 19.6931 2656.02
6881.09 25.9647 -233.402
6883.91 26.7024 -748.613
6886.72 20.3731 719.991
6889.53 25.5734 -1878.69
6892.35 29.8568 3249.56
6895.16 31.0708 2819.03
6897.97 29.7096 -74.5756
6900.78 31.9308 2387.48
6903.6 22.9282 -2111.52
6906.41 26.7156 2805.24
6909.22 28.0623 -1225.87
6912.03 36.2904 -1142.98
6914.84 27.6201 3935.83
6917.65 29.5132 -1843.07
6920.46 32.1064 1179.56
6923.28 27.5973 1899.62
6926.09 29.95 1472.51
6928.9 25.0546 -2018.43
6931.71 28.5514 1459.73
6934.52 26.0893 1337
6937.33 27.6312 -494.631
6940.14 22.6603 -138.057
6942.95 31.715 1066.31
6945.76 29.3802 834.043
6948.57 31.2827 1227.87
6951.38 26.4541 -1136.14
6954.18 18.7338 -1935.98
6956.99 28.2779 1300.13
6959.8 29.6452 -1856.21
6962.61 30.7924 -318.847
6965.42 25.3571 -179.43
6968.23 30.0741 -1973.61
6971.03 18.6894 2139.72
6973.84 30.0529 729.474
6976.65 29.2087 1206.62
6979.46 28.8324 19.7071
6982.26 27.2192 678.295
6985.07 26.1708 314.231
6987.88 25.2251 701.298
6990.68 27.3046 -1117.32
6993.49 24.7878 -1237.37
6996.3 27.5264 2165.25
6999.1 30.357 2517.3
7001.91 29.7266 -347.801
7004.72 29.536 -34.4625
7007.52 23.3862 2986.01
7010.33 22.2266 -2583.19
7013.13 25.2267 -1599.32
7015.94 28.2478 -1735.27
7018.74 28.0594 3591.68
7021.55 28.4669 -5628.43
7024.35 29.0827 700.386
7027.16 32.6609 -697.083
7029.96 26.7801 2719.14
7032.76 30.2293 -22.0108
7035.57 21.206 -67.4509
7038.37 33.7901 836.91
7041.17 26.7554 -2273.96
7043.98 33.1994 -2508.12
7046.78 29.678 4047.56
7049.58 25.4216 783.743
7052.39 29.2575 1936.55
7055.19 32.1316 -1800.7
7057.99 31.4089 2742.95
7060.79 27.9184 -2487.44
7063.6 22.0296 2383.37
7066.4 26.5867 -950.206
7069.2 29.9555 1640.39
7072 19.3064 -2191.26
7074.8 32.6813 621.476
7077.6 24.9456 2959.86
7080.4 30.1307 -3293.87
7083.2 27.737 2776.02
7086 24.4467 -1345.21
7088.81 28.3255 1798.11
7091.61 29.5932 -859.874
7094.41 22.377 -3252.86
7097.21 33.6048 4361.76
7100 36.573 927.879
7102.8 32.0941 -972.146
7105.6 25.1796 806.893
7108.4 30.8681 -1817.58
7111.2 23.0666 1050.66
7114 29.2357 5397.77
7116.8 27.5959 -2711.84
7119.6 25.2193 3983.87
7122.4 35.9775 -1033.93
7125.19 25.3806 714.315
7127.99 31.3616 4500.77
7130.79 34.2609 629.411
7133.59 28.435 -4167.3
7136.38 26.5087 4207.22
7139.18 28.4906 976.349
7141.98 30.0446 3620.19
7144.77 24.0226 948.615
7147.57 16.9793 -682.27
7150.37 29.2553 9435.96
7153.16 36.1982 -7418.49
7155.96 25.7215 3577.62
7158.75 19.7183 -2247.87
7161.55 28.3914 1869.32
7164.35 37.6525 2951.15
7167.14 23.0171 48.4976
7169.94 28.6637 2955.41
7172.73 25.7499 2051.98
7175.52 33.25 -708.363
7178.32 24.903 -327.399
7181.11 26.4672 1732.4
7183.91 35.042 360.281
7186.7 33.2848 1393.78
7189.5 31.0914 -2999.68
7192.29 28.9573 1947.2
7195.08 31.3893 -138.421
7197.87 32.3799 4286.92
7200.67 24.9214 -2213.19
7203.46 29.6312 -3371.94
7206.25 24.1625 2718.87
7209.05 26.0252 -1047.1
7211.84 22.2227 -1903.07
7214.63 30.2273 3049.15
7217.42 24.7602 2373.72
7220.21 24.4352 -6644.08
7223 33.8713 8957.9
7225.8 26.112 -1760.06
7228.59 26.512 99.338
7231.38 20.0815 -694.196
7234.17 19.6475 7589.14
7236.96 29.491 -636.966
7239.75 27.6545 -5201.57
7242.54 27.5123 5920.09
7245.33 11.604 -2236.85
7248.12 24.0386 1365.79
7250.91 27.0856 -2515.48
7253.7 28.7068 3741.53
7256.49 29.5124 -6974.44
7259.28 20.1637 3933.83
7262.06 24.9198 2939.53
7264.85 11.95 -4072.18
7267.64 23.7675 8614.04
7270.43 20.491 -6690.52
7273.22 35.2548 9244.39
7276.01 32.9212 -4910.16
7278.79 25.0985 8744.37
7281.58 26.597 644.108
7284.37 22.2981 -3776.16
7287.15 20.2957 3047.5
7289.94 27.3062 1170.14
7292.73 22.8139 2558.14
7295.51 29.6096 2018.59
7298.3 23.4641 -865.393
7301.09 24.8443 -1476.73
7303.87 29.4533 5087.78
7306.66 23.7063 -984.789
7309.44 31.9976 -929.243
7312.23 25.6145 302.702
7315.01 30.1345 2026.26
7317.8 26.0115 -3874.81
7320.58 28.4244 5845.19
7323.37 23.8057 -9044.67
7326.15 31.747 8991.69
7328.94 20.6559 -4908.55
7331.72 16.4197 11370.6
7334.5 27.9595 -8042.02
7337.29 31.5627 2958.51
7340.07 33.0128 -85.2381
7342.85 24.7374 1406.05
7345.64 21.8976 -1535.15
7348.42 22.3177 4256.61
7351.2 25.1162 -1963.48
7353.98 22.618 25.7453
7356.77 28.7778 -4501.28
7359.55 40.9461 3881.46
7362.33 31.135 2131
7365.11 18.215 -4405.46
7367.89 39.1904 5916.48
7370.67 28.7207 -9691.04
7373.46 19.0693 2670.03
7376.24 23.3052 2661.91
7379.02 42.4947 -2991.22
7381.8 19.7892 4164.87
7384.58 27.3493 -7513.01
7387.36 24.7286 5922.62
7390.14 34.2034 -5231.61
7392.92 27.8799 13409.7
7395.7 28.7213 -11658.5
7398.48 28.5497 7878.67
7401.25 24.6226 -3352.59
7404.03 24.721 1061.75
7406.81 20.6881 3488.8
7409.59 27.5444 -17788.6
7412.37 19.1066 17880.4
7415.15 17.9636 -8021.3
7417.92 21.154 9620.55
7420.7 29.8598 -4033.36
7423.48 20.1225 1025.6
7426.26 28.5607 -1141.98
7429.03 28.6855 4860.14
7431.81 28.3387 -7813.48
7434.59 26.9222 19522.1
7437.36 30.2183 -13722.1
7440.14 23.7241 4192.4
7442.92 20.9517 6445.43
7445.69 25.5777 -8258.5
7448.47 17.1125 10078.7
7451.24 34.2445 -2389.78
7454.02 24.2707 2912.5
7456.79 32.4374 1582.24
7459.57 26.6595 3897.34
7462.34 18.5475 -2702.93
7465.12 31.5141 -7790.85
7467.89 17.3667 12852.4
7470.66 29.0256 -9989.59
7473.44 29.2742 5004.83
7476.21 16.9532 -2416.16
7478.99 20.5053 6721.27
7481.76 26.5412 -3567.15
7484.53 24.5714 12977.1
7487.3 26.9521 -18832.6
7490.08 30.897 27680.5
7492.85 32.4295 -12653.2
7495.62 22.2691 1193.75
7498.39 32.3385 17345.8
7501.16 31.7065 -23591.6
7503.94 22.682 23650.6
7506.71 32.2435 -33009.4
7509.48 24.3008 32385.4
7512.25 28.1845 -26871.9
7515.02 25.4951 20531
7517.79 27.226 -22026.9
7520.56 30.1076 15674.8
7523.33 31.034 -16369.6
7526.1 20.8911 4036.92
7528.87 30.7309 7307.9
7531.64 17.4417 -12743.7
7534.41 30.4629 11235.7
7537.18 20.4884 -9373.91
7539.95 21.5453 10531.7
7542.72 29.8507 -10399.3
7545.49 28.3028 11016.9
7548.25 17.7565 -9069.82
7551.02 31.5101 14369.3
7553.79 29.047 -16678.3
7556.56 35.9677 15683.1
7559.32 32.2081 -17835.5
7562.09 23.6834 36023.5
7564.86 28.1809 -55172.9
7567.63 23.2622 50132
7570.39 28.4116 -47065.1
7573.16 27.2183 51707.5
7575.92 27.0619 -54149.6
7578.69 21.8628 49799.7
7581.46 30.5964 -37227.6
7584.22 24.7163 27712.7
7586.99 31.2402 -24592.9
7589.75 24.4801 17186.8
7592.52 20.5931 -13980
7595.28 15.8904 9174.31
7598.05 10.7437 -8767.94
7600.81 9.16793 4275.49
7603.58 7.99969 -1623.32
7606.34 7.82708 1106.3
7609.1 5.73444 3019.21
7611.87 13.5666 -5758.38
7614.63 16.0251 8351
7617.39 19.9293 -4078.66
7620.16 15.6394 -1847.4
7622.92 21.2712 6936.17
7625.68 11.4875 3655.2
7628.44 12.6581 -7423.12
7631.21 14.1099 5250.58
7633.97 10.9473 4716.78
7636.73 9.70278 -6412.82
7639.49 12.5307 18232
7642.25 14.7465 -12476.8
7645.01 21.5476 -675.758
7647.77 20.0809 7535.03
7650.53 18.9416 -10228.9
7653.29 10.2638 7666.25
7656.05 21.2404 -11937.4
7658.81 19.8659 16063.6
7661.57 20.239 -6824.63
7664.33 16.26 -4871.28
7667.09 23.3675 12486.4
7669.85 18.5221 -15960.4
7672.61 22.5874 8885.4
7675.37 22.3179 1254.53
7678.13 23.2596 -6115.21
7680.89 17.5074 3371.05
7683.64 30.5375 -1331.93
7686.4 27.2053 2348.78
7689.16 13.7864 52.7718
7691.92 19.6771 -3193.43
7694.67 18.6127 -409.531
7697.43 31.4294 1723.43
7700.19 17.6942 11484.8
7702.94 15.6874 -13954.6
7705.7 24.3514 16015.9
7708.46 21.3975 -9251.32
7711.21 26.0751 5621.77
7713.97 23.8382 7127.78
7716.72 24.6436 4210.76
7719.48 14.8368 221.296
7722.23 14.3137 -16642.3
7724.99 20.096 16185
7727.74 22.9383 -9885.36
7730.5 26.2348 3775.69
7733.25 21.0864 -3456.77
7736.01 23.1689 953.196
7738.76 20.9959 -853.228
7741.51 15.6093 -12813.7
7744.27 29.4325 12209.7
7747.02 25.3425 -9262.39
7749.77 28.2944 6926.19
7752.53 27.7569 -4816.93
7755.28 19.1172 130.82
7758.03 28.4886 -1213.38
7760.78 13.8079 1864.24
7763.53 25.4322 11183
7766.29 22.9571 -11563.5
7769.04 20.7125 4310.74
7771.79 18.1303 4762.48
7774.54 10.795 1636.43
7777.29 23.0152 2026.99
7780.04 25.0939 -4552.79
7782.79 21.9534 -9019.65
7785.54 11.2621 5904.25
7788.29 23.3785 -6249.25
7791.04 19.3466 2458.52
7793.79 24.022 14336.6
7796.54 22.7668 -13343.7
7799.29 28.2043 6313.68
7802.04 20.3535 8052.5
7804.79 27.7767 1512.5
7807.53 13.9112 4476.71
7810.28 23.93 -11556.8
7813.03 18.7114 5199.09
7815.78 28.8193 1098.89
7818.53 25.9596 -13566
7821.27 28.0027 17888.9
7824.02 21.7982 -10520.6
7826.77 22.1925 -5313.64
7829.51 21.8026 19259
7832.26 20.5188 -12741.2
7835.01 16.3781 15744.3
7837.75 29.7271 -3423.9
7840.5 22.3368 1418.42
7843.24 27.7892 14989.1
7845.99 17.889 -11263.8
7848.73 18.3444 4983.64
7851.48 23.372 -12633.8
7854.22 30.6158 904.663
7856.97 20.9893 3310.63
7859.71 32.5763 -5814.43
7862.45 27.1637 -1224.65
7865.2 30.1052 8674.5
7867.94 24.3957 -4261.55
7870.68 20.3669 1745.67
7873.43 24.2815 7668.38
7876.17 31.8538 -6151.58
7878.91 24.1983 11999.5
7881.66 23.1076 -12286.3
7884.4 23.889 -1990.97
7887.14 15.4835 6065.7
7889.88 33.0779 1980.86
7892.62 22.3178 -7634.7
7895.36 29.5608 10890.6
7898.11 25.6357 -2395.17
7900.85 24.6307 1906.82
7903.59 23.123 8131.77
7906.33 24.4259 -9701.21
7909.07 29.4106 13177.3
7911.81 28.9087 -13495
7914.55 26.0497 23642.9
7917.29 22.162 -21171.2
7920.03 26.7052 5636.61
7922.76 19.8066 2640.52
7925.5 19.0435 -13801.1
7928.24 22.3125 10823
7930.98 22.0587 711.961
7933.72 42.1449 3609.47
7936.46 25.2196 -1624.7
7939.19 16.1573 -5241.14
7941.93 14.9834 -665.538
7944.67 26.3064 7582.84
7947.41 24.2406 -9919.79
7950.14 18.2061 8835.34
7952.88 21.747 -5513.73
7955.62 21.6116 27388.2
7958.35 27.4776 -16357.5
7961.09 20.1314 -2750.67
7963.82 32.7653 177.462
7966.56 13.8868 -6081.19
7969.29 17.1664 -1242.8
7972.03 15.2384 -1118.65
7974.76 12.2077 10661.6
7977.5 20.7121 -8864.7
7980.23 21.4674 770.31
7982.97 20.1254 -8322.83
7985.7 16.9019 22860.6
7988.43 22.1173 -4733.8
7991.17 25.0824 -1293.33
7993.9 35.66 12222.6
7996.63 19.4923 -6092.84
7999.37 24.8547 -3592.56
8002.1 25.1177 -1811.32
8004.83 29.3672 5524.05
8007.56 29.3499 1981.67
8010.29 24.9994 2070.77
8013.03 29.2173 -9009.7
8015.76 18.1056 -666.33
8018.49 18.7692 2720.29
8021.22 21.3575 -1884.67
8023.95 16.7012 -7041.44
8026.68 27.2654 14944.9
8029.41 17.803 -6428.23
8032.14 10.4172 -17350.5
8034.87 17.526 7256.46
8037.6 19.5666 418.192
8040.33 24.5308 5083.58
8043.06 27.8638 -2890.2
8045.79 22.2107 1950.6
8048.51 23.5033 6031.85
8051.24 22.6674 -8787
8053.97 22.9832 18297.8
8056.7 24.4127 -24175.7
8059.43 20.7976 17802.1
8062.15 22.3324 -21432.7
8064.88 17.9852 21271.5
8067.61 14.529 692.555
8070.34 19.1842 -722.843
8073.06 19.0266 6548.16
8075.79 22.4278 -697.782
8078.51 25.9492 7281.51
8081.24 24.6575 538.47
8083.97 17.3025 3618.09
8086.69 25.6757 10767.5
8089.42 25.7876 -7733.41
8092.14 29.177 -3351.58
8094.86 14.1298 18534.5
8097.59 23.6619 -23814.3
8100.31 25.5321 29461
8103.04 19.5203 -2337.5
8105.76 15.3571 7934.16
8108.48 23.4957 16227.3
8111.21 19.3249 -2796.81
8113.93 17.0115 -12147
8116.65 15.7105 7612.47
8119.38 19.4964 16416
8122.1 37.0706 -10688.2
8124.82 20.5861 8724.55
8127.54 23.7829 -16429.7
8130.26 24.3323 35207.7
8132.98 23.2153 -36436.6
8135.71 11.8621 34729.2
8138.43 16.7323 -5464.97
8141.15 24.9696 -17425.7
8143.87 21.8995 34797.7
8146.59 18.0647 -51198.8
8149.31 30.4967 26321.9
8152.03 12.5637 26928.8
8154.75 26.0395 -34020.3
8157.47 24.6836 19207
8160.19 21.6158 4647.51
8162.9 12.9469 15692.9
8165.62 20.2542 -22767.8
8168.34 15.9745 13495.6
8171.06 36.5611 -38532.5
8173.78 26.9027 39619.4
8176.49 18.997 -36829.4
8179.21 17.9028 58194.3
8181.93 12.467 -81229.6
8184.65 17.4635 71110.2
8187.36 21.129 -46139.5
8190.08 20.5512 38315.8
8192.79 20.4292 -9178.11
8195.51 21.9397 -33465.9
8198.23 14.4277 77468.6
8200.94 24.4803 -82840.2
8203.66 22.2597 107668
8206.37 30.3522 -89691.1
8209.09 27.5507 59148.9
8211.8 17.8809 14788.6
8214.52 20.9737 -48835.1
8217.23 18.7883 42630.6
8219.94 24.8421 -33258.5
8222.66 21.7352 35373.1
8225.37 15.9461 -44500.6
8228.08 11.5196 22327.3
8230.8 26.4681 -15164.9
8233.51 16.7551 37073.9
8236.22 11.4161 -32110
8238.93 26.2024 -18896.5
8241.64 18.0332 43946.5
8244.36 16.5022 -58784.3
8247.07 14.9793 51216.9
8249.78 29.5889 -31458.3
8252.49 14.269 -22164.7
8255.2 22.1416 26511.1
8257.91 23.7183 -3130.12
8260.62 14.9546 -5882.45
8263.33 21.0636 21116.4
8266.04 12.4387 -49358.1
8268.75 20.4707 49890.9
8271.46 19.3288 -18127.8
8274.17 18.4427 -27697.1
8276.88 29.9389 10172.3
8279.58 24.1464 20972.7
8282.29 11.5399 -13411.3
8285 34.073 5261.05
8287.71 25.0999 1463.56
8290.42 24.1563 -30678.6
8293.12 12.9055 8326.85
8295.83 18.8595 30723
8298.54 27.0333 -888.086
8301.24 20.9369 -29437.8
8303.95 16.5865 21974.4
8306.66 17.177 4356.71
8309.36 23.7829 12711.8
8312.07 12.7401 -25541.6
8314.77 16.9638 -2012.97
8317.48 9.19758 3694.64
8320.18 23.0299 -8450.18
8322.89 14.3991 -8295.03
8325.59 12.0541 -14159.7
8328.3 22.3626 8798.88
8331 16.2344 9881.26
8333.7 15.9605 -3655.82
8336.41 14.8458 -20559.5
8339.11 24.6091 20509.4
8341.81 32.5862 2306.56
8344.51 17.8105 -16132.8
8347.22 18.5708 4109.33
8349.92 11.0149 -6957.96
8352.62 12.0637 -8985.03
8355.32 22.7647 2422.52
8358.02 20.1681 11510.3
8360.72 15.71 15790.5
8363.43 29.5852 348.653
8366.13 12.7104 -9842.19
8368.83 16.1507 -1318.12
8371.53 11.8509 8271.08
8374.23 24.2807 18362.1
8376.93 17.3125 1804.82
8379.63 19.5312 -5379.74
8382.32 22.4209 673.282
8385.02 21.0898 7598.79
8387.72 19.2229 -5465.41
8390.42 12.4107 16245.2
8393.12 24.6026 -16948.6
8395.82 36.806 9558.06
8398.51 11.0969 7729.2
8401.21 10.0575 -20940.2
8403.91 -4.00779 -844.104
8406.61 9.51026 -1864.14
8409.3 11.4764 14394.7
8412 14.8088 -17046.3
8414.7 25.7323 5561.69
8417.39 16.2561 -1833.73
8420.09 7.92535 -6695.36
8422.78 -1.52442 4901.73
8425.48 16.014 4396.05
8428.17 10.9273 -5646.52
8430.87 19.3833 399.618
8433.56 12.453 -30046.3
8436.26 6.81187 4919.91
8438.95 9.29392 -10882.3
8441.64 11.1591 3581.48
8444.34 7.63139 -3928.35
8447.03 9.43344 55.5389
8449.72 8.85645 -525.604
8452.42 15.2015 -1946.33
8455.11 21.1863 -1676.86
8457.8 17.0252 3543.4
8460.49 5.55732 -4508.06
8463.18 14.9192 -3139.32
8465.87 11.2228 4237.3
8468.57 19.6372 -6865.31
8471.26 2.70326 -1651.81
8473.95 -0.232825 -751.732
8476.64 6.14325 -12304.2
8479.33 -4.0961 -10570.3
8482.02 14.6005 -1676.53
8484.71 12.515 2811.28
8487.4 7.86176 -3537.06
8490.09 5.57621 1501.4
8492.77 7.48181 -6374.86
8495.46 4.10384 2687.5
8498.15 -1.08408 981.288
8500.84 3.21561 2934.85
8503.53 -4.34096 -5720.47
8506.22 5.19472 3064.48
8508.9 2.33902 7882.5
8511.59 0.459716 -1811.6
8514.28 3.11676 2319.93
8516.96 11.9519 1206.88
8519.65 5.27424 -10385.1
8522.34 2.4969 -3436.18
8525.02 0.386499 -1177.06
8527.71 9.96679 -5022.47
8530.39 11.1666 3021.95
8533.08 14.2107 -2150.82
8535.76 9.9842 -1020.02
8538.45 7.79032 10845.8
8541.13 1.48862 6964
8543.82 2.54959 1295.3
8546.5 11.5593 3711.01
8549.18 16.4853 -373.576
8551.87 17.9904 274.703
8554.55 7.38071 -5769.91
8557.23 5.5485 2036.79
8559.91 9.18696 2506.06
8562.6 12.3861 3975.65
8565.28 14.665 -2499.37
8567.96 18.2674 -4088.2
8570.64 19.92 1921.85
8573.32 18.3919 -4113.33
8576 11.0489 -2750.35
8578.68 11.1044 -1481.48
8581.36 4.35662 3797.05
8584.05 22.5684 331.396
8586.73 8.7608 -1740.77
8589.4 20.1792 3810.59
8592.08 16.9755 -871.114
8594.76 11.0587 2764.09
8597.44 7.2689 -90.6988
8600.12 21.1313 -49.5369
8602.8 11.2469 -1232.43
8605.48 26.7787 -1622
8608.16 9.8633 134.433
8610.83 13.8654 -67.2073
8613.51 15.3495 676.499
8616.19 19.4574 1474.49
8618.86 12.6478 1808.56
8621.54 14.0905 -1998.67
8624.22 15.2309 -839.964
8626.89 17.3253 301.323
8629.57 5.56325 -534.519
8632.24 5.0024 -1203.95
8634.92 20.6768 -1091.87
8637.59 12.1037 289.754
8640.27 11.3802 -315.046
8642.94 8.91998 -461.832
8645.62 6.30741 -911.748
8648.29 12.1348 -1692
8650.97 11.442 17.6604
8653.64 19.4337 -481.287
8656.31 14.7549 -1750.55
8658.99 12.7102 -1774.21
8661.66 12.2672 -986.855
8664.33 11.0259 -339.382
8667 21.8953 -690.784
8669.67 10.5376 386.562
8672.35 8.33708 -1844.03
8675.02 19.7473 1097.62
8677.69 5.37704 -143.967
8680.36 2.24272 5520.39
8683.03 27.2955 -6067.35
8685.7 12.7425 7433.15
8688.37 24.0325 -5264.75
8691.04 27.5583 1020.77
8693.71 23.7088 -1975.44
8696.38 23.4924 1767.62
8699.05 24.9343 1187.34
8701.72 20.8946 -2503.52
8704.38 35.0455 6860.89
8707.05 28.1831 -5110.71
8709.72 26.396 -553.929
8712.39 32.9038 137.553
8715.06 25.5767 2317.66
8717.72 25.0915 1980.01
8720.39 21.2317 -9578.86
8723.06 26.622 10242.3
8725.72 33.9338 -1588.62
8728.39 28.721 -7312.03
8731.05 27.1917 10233.6
8733.72 21.2298 -4449.62
8736.39 23.2517 -4593.76
8739.05 28.1945 3653.76
8741.72 20.1642 9608.36
8744.38 27.0878 -20480.1
8747.04 30.003 21361
8749.71 32.2449 -7999.05
8752.37 29.4319 -698.504
8755.04 27.5041 275.303
8757.7 33.3246 1965.93
8760.36 23.4418 -7922.23
8763.02 22.597 19650.6
8765.69 35.9402 -32577.6
8768.35 36.3074 24443.1
8771.01 17.4652 -20851.1
8773.67 23.2923 16202.1
8776.33 34.636 -8351.01
8778.99 21.9769 -2177.27
8781.65 24.7968 9236.39
8784.32 23.1797 -12123.9
8786.98 8.80558 9439.35
8789.64 31.2889 -3811.25
8792.3 24.2707 -651.76
8794.95 34.4083 4797.64
8797.61 30.5395 5277.06
8800.27 28.0457 -14227.3
8802.93 19.621 9159.07
8805.59 22.8965 -9861.77
8808.25 17.893 2390.02
8810.91 24.2959 6840.5
8813.56 24.5049 -7769.17
8816.22 29.2921 -1291.59
8818.88 20.3518 4163.92
8821.53 23.5245 -4706.34
8824.19 16.7242 1306.29
8826.85 27.752 5416.52
8829.5 40.7558 -4616.05
8832.16 33.613 -34142.1
8834.81 10.1409 41980.2
8837.47 23.8048 -10922
8840.12 28.5146 -707.117
8842.78 33.0939 -11477.9
8845.43 14.937 4430.49
8848.09 17.7765 -5107.7
8850.74 23.6629 -3587.14
8853.39 21.55 7027.19
8856.05 19.3022 -9252.8
8858.7 18.8876 3297
8861.35 22.7839 8391.03
8864 17.0237 -17713
8866.66 22.4954 2181.98
8869.31 27.9607 5367.67
8871.96 22.8561 -9937.39
8874.61 22.7809 2098.69
8877.26 16.2062 -1713.09
8879.91 21.9119 -617.748
8882.56 9.8975 6638.35
8885.21 17.3178 -696.638
8887.86 38.4618 7024.98
8890.51 24.8828 -2724.58
8893.16 20.8729 6874.77
8895.81 4.43136 3186.46
8898.46 7.25505 1178.31
8901.11 24.1819 -3367.41
8903.76 57.8977 990.285
8906.41 9.3314 1997.26
8909.05 25.4387 1309.3
8911.7 16.7002 -6131.46
8914.35 17.6324 162.821
8916.99 23.5321 2470.5
8919.64 24.566 -14350.5
8922.29 21.6076 7582.78
8924.93 22.31 -2174.4
8927.58 12.7857 -11948.6
8930.23 11.513 3714.13
8932.87 10.2543 5756.54
8935.52 25.312 1028.19
8938.16 25.8631 -1718.46
8940.8 14.6019 2972.07
8943.45 24.5933 -4330
8946.09 22.9941 2601.33
8948.74 10.6323 -2741.62
8951.38 13.2204 -447.925
8954.02 4.82696 2186.47
8956.67 6.52826 2513.44
8959.31 20.0027 -4482.62
8961.95 33.2047 -2467.28
8964.59 21.4253 8040.59
8967.23 6.49404 -641.604
