wavelength spec_sum spec_optimal
3422.62 49.552 -314.82
3425.54 -90.5568 15.8432
3428.47 15.109 184.048
3431.4 16.87 -18.6504
3434.32 3.29199 -658.825
3437.25 -166.617 -259.166
3440.18 23.5705 73.3665
3443.1 97.4178 -881.623
3446.03 -19.751 -421.061
3448.96 -14.1616 425.061
3451.88 31.4633 279.387
3454.81 63.6425 426.951
3457.74 68.9181 -121.485
3460.66 -54.8076 200.229
3463.59 -98.768 105.143
3466.52 -40.8551 32.4448
3469.44 -6.08257 739.897
3472.37 -36.2922 463.193
3475.3 -52.7853 331.386
3478.22 -134.666 450.677
3481.15 11.3655 -100.074
3484.07 7.88287 384.651
3487 -53.2121 548.535
3489.93 -17.7858 21.9031
3492.85 -51.5627 708.488
3495.78 -105.82 398.745
3498.71 -107.667 364.487
3501.63 -139.096 763.612
3504.56 39.2968 126.855
3507.48 -44.6995 218.757
3510.41 -12.4532 882.169
3513.33 17.3462 705.102
3516.26 11.311 -11.4572
3519.19 61.2099 46.5407
3522.11 131.673 -22.835
3525.04 81.5909 256.574
3527.96 -55.3289 314.641
3530.89 48.7902 896.002
3533.81 102.425 1017.67
3536.74 101.857 307.069
3539.67 20.2731 1019.1
3542.59 -114.905 1293.25
3545.52 -55.6705 856.385
3548.44 -23.4833 870.119
3551.37 -90.5349 1425.36
3554.29 -126.59 1268.52
3557.22 -67.6162 346.269
3560.14 -9.05548 233.629
3563.07 -48.0606 469.718
3565.99 -2.70945 548.782
3568.92 -9.31356 -294.841
3571.84 -44.0257 -745.587
3574.77 -44.5912 -136.633
3577.69 3.27612 -130.585
3580.62 -58.9803 -443.377
3583.54 -78.9728 -483.752
3586.47 8.18667 -583.874
3589.39 -3.10537 -656.324
3592.32 -5.91519 -392.469
3595.24 22.7206 125.385
3598.17 12.7259 120.5
3601.09 -8.70372 341.31
3604.02 -2.33739 -197.32
3606.94 4.43769 -254.324
3609.87 32.8635 -248.623
3612.79 54.1608 -632.352
3615.72 -60.9258 -668.252
3618.64 75.1463 -603.529
3621.57 -14.7697 -178.97
3624.49 61.143 -321.543
3627.41 -56.0705 -331.989
3630.34 15.5583 119.813
3633.26 14.7974 247.587
3636.19 61.2258 -634.858
3639.11 41.0686 -932.625
3642.04 16.3597 -642.256
3644.96 -1.34837 -728.243
3647.88 -6.04751 -815.171
3650.81 32.3156 -610.955
3653.73 -24.562 -531.736
3656.66 -25.7437 -652.101
3659.58 73.8134 -916.467
3662.5 58.2149 -1049.43
3665.43 62.9911 -663.626
3668.35 14.8541 -831.3
3671.28 35.1221 -848.833
3674.2 -9.95985 -409.949
3677.12 85.7207 -401.993
3680.05 34.5808 -473.337
3682.97 106.888 -232.746
3685.9 126.663 298.965
3688.82 -30.6506 573.689
3691.74 -2.63662 334.659
3694.67 47.6895 -121.44
3697.59 56.1733 -375.132
3700.51 -39.0884 -721.724
3703.44 100.664 -541.514
3706.36 -29.5999 -223.784
3709.28 16.1838 109.732
3712.21 97.8749 180.127
3715.13 28.3916 -35.691
3718.05 29.1945 -1.749
3720.98 23.2785 -155.412
3723.9 31.9122 -481.039
3726.82 21.9924 -511.31
3729.75 103.299 -173.081
3732.67 21.1485 -280.179
3735.59 101.18 -460.39
3738.51 107.748 -520.4
3741.44 76.9439 -700.288
3744.36 55.6552 -636.856
3747.28 116.806 -617.747
3750.21 131.099 -169.156
3753.13 91.0987 100.329
3756.05 21.4972 -109.943
3758.97 70.4273 -396.056
3761.9 34.8202 -478.295
3764.82 55.8744 -258.438
3767.74 -62.2993 274.704
3770.66 75.9968 565.06
3773.59 17.7549 677.656
3776.51 11.74 678.984
3779.43 36.7342 786.296
3782.35 1.93725 796.832
3785.28 18.708 856.49
3788.2 53.2572 829.473
3791.12 11.1652 543.26
3794.04 18.8078 365.979
3796.96 14.5497 326.352
3799.89 24.155 426.947
3802.81 -0.279162 446.646
3805.73 5.06673 431.931
3808.65 18.3092 447.806
3811.57 40.1157 100.564
3814.5 116.386 -211.672
3817.42 32.6959 -381.646
3820.34 49.176 -275.338
3823.26 69.6827 -258.679
3826.18 56.1584 -245.196
3829.1 40.7486 -430.366
3832.03 48.3116 -690.055
3834.95 53.6269 -869.207
3837.87 31.8795 -733.217
3840.79 18.5279 -456.318
3843.71 -20.8054 -127.579
3846.63 -12.037 83.5341
3849.56 3.42916 129.901
3852.48 -22.1716 81.1449
3855.4 13.8461 44.9962
3858.32 24.4151 123.72
3861.24 -2.05424 88.0671
3864.16 -0.880424 54.1907
3867.08 -36.5755 26.0204
3870 2.88881 33.8142
3872.92 7.95167 39.5055
3875.84 -49.215 97.4141
3878.77 8.67701 135.773
3881.69 -12.5046 63.3999
3884.61 -11.9386 2.35876
3887.53 15.4895 112.721
3890.45 -21.4345 286.638
3893.37 14.288 404.263
3896.29 -7.60729 403.015
3899.21 48.8637 237.548
3902.13 1.4757 262.137
3905.05 20.7885 289.693
3907.97 -47.1978 446.309
3910.89 -3.7714 452.907
3913.81 -5.00382 563.752
3916.73 21.5964 502.091
3919.65 13.8552 333.571
3922.57 -11.6845 131.172
3925.49 41.3278 -180.8
3928.41 28.3568 -509.315
3931.33 27.2616 -695.652
3934.25 23.1052 -844.216
3937.17 3.79088 -778.932
3940.09 -0.905426 -774.866
3943.01 -9.73087 -595.052
3945.93 29.3659 -390.317
3948.85 12.5529 -217.492
3951.77 15.625 -200.446
3954.69 29.1051 -263.512
3957.61 21.0769 -471.099
3960.53 0.472693 -879.658
3963.45 23.1218 -1211.47
3966.37 32.6219 -1358.57
3969.29 1.87243 -1271.96
3972.21 59.8998 -996.828
3975.13 51.0623 -654.623
3978.05 22.333 -333.673
3980.97 24.9199 -226.56
3983.89 79.0126 -180.133
3986.81 64.0125 -117.173
3989.72 11.9156 -151.199
3992.64 35.3381 -213.553
3995.56 53.7144 -218.586
3998.48 32.514 -350.63
4001.4 113.2 -618.586
4004.32 48.2348 -891.609
4007.24 47.2824 -942.908
4010.16 79.3807 -1126.17
4013.08 63.7323 -1284.07
4015.99 8.26313 -1287.44
4018.91 8.36719 -1263.52
4021.83 74.945 -1239.04
4024.75 48.5463 -1139.41
4027.67 3.0304 -1059.35
4030.59 -1.67914 -1019.88
4033.51 62.4841 -910.474
4036.42 60.0877 -784.337
4039.34 5.93549 -762.35
4042.26 69.3569 -772.105
4045.18 36.8893 -734.192
4048.1 2.61343 -758.184
4051.01 48.408 -764.434
4053.93 63.4475 -740.844
4056.85 91.2316 -787.821
4059.77 -0.00130159 -837.282
4062.69 53.3382 -808.983
4065.6 53.5804 -731.236
4068.52 97.7298 -661.853
4071.44 65.8474 -533.465
4074.36 66.8977 -459.998
4077.27 94.4178 -415.648
4080.19 25.9371 -311.767
4083.11 43.7081 -243.601
4086.03 14.4049 -203.639
4088.94 8.94966 -183.2
4091.86 24.046 -277.95
4094.78 51.164 -360.419
4097.7 40.5561 -403.919
4100.61 20.0903 -353.938
4103.53 73.5203 -372.74
4106.45 29.6585 -284.715
4109.36 64.1268 -153.983
4112.28 34.982 -104.68
4115.2 0.779341 -123.001
4118.12 25.7517 -41.4032
4121.03 40.7276 -73.6918
4123.95 57.8156 -130.728
4126.87 59.5586 -123.068
4129.78 77.7888 -39.411
4132.7 51.629 44.8434
4135.62 48.2949 141.964
4138.53 68.3223 227.123
4141.45 36.4778 288.567
4144.36 81.3051 378.398
4147.28 43.3023 452.485
4150.2 68.7215 509.585
4153.11 69.0344 510.703
4156.03 3.37923 591.937
4158.95 51.1366 572.857
4161.86 41.6838 571.261
4164.78 93.5036 476.844
4167.69 83.3179 512.734
4170.61 49.6636 335.629
4173.53 15.3787 281.367
4176.44 44.9755 119.021
4179.36 46.786 -2.8816
4182.27 54.8624 -170.021
4185.19 44.3303 -297.328
4188.1 45.7019 -447.789
4191.02 67.3682 -569.337
4193.94 27.4108 -791.35
4196.85 24.9922 -1017.96
4199.77 27.7706 -1165.89
4202.68 44.4242 -1101.32
4205.6 30.426 -950.855
4208.51 75.4754 -735.015
4211.43 57.3391 -481.054
4214.34 69.4569 -114.341
4217.26 20.8712 285.581
4220.17 70.3548 694.677
4223.09 58.6687 1032.48
4226 58.1748 1351.16
4228.92 50.24 1594.93
4231.83 68.4013 1579.76
4234.75 65.2841 1446.57
4237.66 56.1845 1235.13
4240.58 36.2926 1007.07
4243.49 55.1353 745.654
4246.4 33.4975 442.372
4249.32 43.5751 126.421
4252.23 41.2739 -67.0963
4255.15 59.6477 -93.92
4258.06 30.1275 -129.161
4260.98 1.95364 -98.9043
4263.89 59.6084 -114.587
4266.8 37.9001 -134.87
4269.72 56.6986 -134.678
4272.63 60.8263 -74.8982
4275.55 68.0977 -15.4008
4278.46 49.9086 15.1475
4281.37 95.6162 -3.62266
4284.29 46.4849 -105.913
4287.2 31.1931 -99.5054
4290.11 8.32557 -205.83
4293.03 65.9967 -248.115
4295.94 36.6929 -396.671
4298.85 19.4717 -518.872
4301.77 38.1776 -581.364
4304.68 28.3313 -671.374
4307.59 30.8474 -708.087
4310.51 46.2859 -617.642
4313.42 47.0833 -497.048
4316.33 19.321 -337.63
4319.25 59.5456 -212.147
4322.16 42.5384 -163.99
4325.07 66.9933 -96.1572
4327.99 90.4148 155.446
4330.9 28.5831 216.906
4333.81 29.549 175.731
4336.72 40.1792 95.2656
4339.64 51.939 32.5954
4342.55 8.97023 9.17143
4345.46 35.5952 -13.5279
4348.37 50.1012 -13.2493
4351.29 47.932 -114.271
4354.2 50.9214 -157.18
4357.11 19.2184 -196.313
4360.02 62.488 -252.86
4362.94 45.5542 -360.274
4365.85 30.5985 -589.237
4368.76 61.3724 -814.429
4371.67 16.4777 -973.692
4374.58 41.8329 -1124.9
4377.49 32.4507 -1152.38
4380.41 74.6049 -1271.64
4383.32 50.8081 -1297.29
4386.23 77.2434 -1227.88
4389.14 64.4078 -1098.41
4392.05 61.1057 -999.486
4394.96 48.695 -935.698
4397.88 39.1719 -968.466
4400.79 86.0149 -897.643
4403.7 25.5845 -875.668
4406.61 62.9564 -773.774
4409.52 74.2625 -675.987
4412.43 90.1236 -521.751
4415.34 38.7612 -501.734
4418.25 51.5267 -523.627
4421.16 60.5933 -523.877
4424.08 59.6642 -682.926
4426.99 55.4272 -739.748
4429.9 53.6817 -770.591
4432.81 108.831 -758.136
4435.72 74.4777 -784.871
4438.63 75.5718 -760.047
4441.54 82.9089 -748.975
4444.45 38.4834 -716.234
4447.36 66.3896 -729.334
4450.27 93.1429 -681.738
4453.18 84.3827 -579.875
4456.09 66.2154 -503.58
4459 56.4818 -333.18
4461.91 60.3959 -223.781
4464.82 93.1806 -220.737
4467.73 56.4202 -418.873
4470.64 62.133 -473.552
4473.55 48.8373 -595.17
4476.46 59.2873 -727.461
4479.37 49.9029 -785.449
4482.28 37.995 -723.832
4485.19 87.2615 -541.85
4488.1 71.3336 -337.322
4491.01 73.299 -68.1784
4493.92 60.2566 10.5825
4496.82 59.3485 192.326
4499.73 89.3813 213.858
4502.64 38.9248 316.294
4505.55 38.7668 234.719
4508.46 72.7967 154.167
4511.37 92.5326 -16.5084
4514.28 56.5182 -102.288
4517.19 44.2336 -264.388
4520.1 66.8031 -365.377
4523 71.1786 -445.562
4525.91 29.244 -604.724
4528.82 75.3364 -602.716
4531.73 60.3994 -643.305
4534.64 -0.324168 -602.913
4537.55 19.9836 -487.083
4540.46 52.5523 -319.86
4543.36 11.5601 -163.474
4546.27 83.1521 16.4703
4549.18 54.6923 45.9457
4552.09 92.2573 85.4096
4555 42.5675 63.1975
4557.9 20.9799 -4.77848
4560.81 69.5005 -38.5895
4563.72 62.7465 -198.22
4566.63 74.7064 -191.657
4569.53 59.9423 -199.856
4572.44 56.4278 -98.8645
4575.35 72.7666 -167.353
4578.26 33.0086 -30.2206
4581.16 71.1194 0.094656
4584.07 81.2725 136.261
4586.98 69.2695 44.7092
4589.88 62.214 1.79885
4592.79 124.321 -57.7843
4595.7 97.9762 -108.713
4598.61 54.709 -167.409
4601.51 106.129 -21.4005
4604.42 33.7783 149.114
4607.33 54.1918 209.744
4610.23 96.4541 316.554
4613.14 88.6543 392.595
4616.05 48.1831 246.529
4618.95 88.613 10.9772
4621.86 51.5599 -151.81
4624.76 78.7775 -195.088
4627.67 49.7536 -213.917
4630.58 90.9225 -304.185
4633.48 73.9895 -400.819
4636.39 53.6414 -414.285
4639.29 83.8007 -470.892
4642.2 78.95 -551.84
4645.11 72.1404 -640.614
4648.01 43.7641 -748.994
4650.92 90.384 -886.248
4653.82 85.2245 -1162.12
4656.73 87.9374 -1321.14
4659.63 99.6391 -1182.33
4662.54 105.321 -882.374
4665.44 95.9382 -665.353
4668.35 91.5947 -509.62
4671.25 92.2098 -601.091
4674.16 75.1384 -593.614
4677.06 59.1585 -454.276
4679.97 79.4512 -233.814
4682.87 95.9149 65.5607
4685.78 85.8459 191.529
4688.68 71.9035 242.273
4691.59 75.1369 61.7207
4694.49 101.58 -297.362
4697.4 70.1558 -398.281
4700.3 69.8864 -353.563
4703.21 79.1184 -138.623
4706.11 79.2356 82.316
4709.01 43.2055 197.943
4711.92 46.4104 391.159
4714.82 74.7822 596.612
4717.73 95.5613 638.064
4720.63 93.9213 393.719
4723.53 53.8731 238.306
4726.44 58.7569 146.167
4729.34 81.5996 -63.5229
4732.24 69.4933 -113.774
4735.15 60.71 43.5121
4738.05 64.7343 146.375
4740.96 70.4328 195.967
4743.86 67.7914 226.619
4746.76 70.26 349.848
4749.66 50.8969 637.098
4752.57 82.4974 601.914
4755.47 50.2007 385.238
4758.37 70.2718 230.84
4761.28 65.092 168.944
4764.18 49.3797 222.215
4767.08 52.3115 371.312
4769.98 44.414 610.243
4772.89 54.491 576.683
4775.79 55.4868 318.438
4778.69 33.0796 -33.5517
4781.59 62.6343 -243.518
4784.5 73.8728 -401.268
4787.4 48.0981 -564.947
4790.3 58.1029 -365.515
4793.2 61.5405 4.7646
4796.1 58.4435 297.822
4799.01 58.2185 341.066
4801.91 27.301 295.613
4804.81 99.8236 125.05
4807.71 52.9128 70.9213
4810.61 48.3473 298.254
4813.51 43.5011 487.956
4816.42 20.8498 550.072
4819.32 55.5959 646.253
4822.22 45.6548 164.598
4825.12 53.591 -219.193
4828.02 65.2889 -394.27
4830.92 32.4311 -385.36
4833.82 43.695 -507.512
4836.72 19.478 -218.695
4839.62 49.9033 12.8238
4842.53 68.9652 302.485
4845.43 18.9671 504.834
4848.33 48.1842 338.743
4851.23 19.7465 385.485
4854.13 55.1043 260.802
4857.03 5.61851 255.226
4859.93 53.5242 180.085
4862.83 47.3117 247.782
4865.73 36.836 12.7462
4868.63 61.0987 85.8778
4871.53 56.7717 249.658
4874.43 54.8476 423.887
4877.33 64.5801 266.739
4880.23 82.548 -17.755
4883.13 51.9077 -173.328
4886.03 61.0874 96.0588
4888.93 87.372 82.9086
4891.83 70.9268 -138.247
4894.72 88.5326 -161.412
4897.62 62.0163 -228.448
4900.52 56.5817 -287.447
4903.42 76.4404 -211.464
4906.32 95.9019 -428.715
4909.22 90.3985 -135.06
4912.12 92.8757 373.256
4915.02 97.6189 106.124
4917.92 72.6941 -299.492
4920.81 102.908 -204.952
4923.71 96.6948 14.2123
4926.61 94.1987 48.3531
4929.51 111.359 -262.16
4932.41 84.5159 -346.651
4935.31 98.7747 -137.93
4938.2 103.227 169.115
4941.1 88.5957 283.952
4944 95.975 305.574
4946.9 85.4829 110.189
4949.8 75.3396 456.696
4952.69 108.658 1084.51
4955.59 99.5054 952.907
4958.49 86.7895 443.986
4961.39 89.0041 298.119
4964.28 96.2607 65.2876
4967.18 84.1198 391.494
4970.08 106.215 148.705
4972.97 92.4902 278.505
4975.87 99.2197 312.81
4978.77 74.9199 -14.9086
4981.67 86.7856 237.69
4984.56 89.4159 -1193.62
4987.46 86.7095 -598.894
4990.36 86.4501 -193.288
4993.25 74.3602 412.108
4996.15 58.4585 656.804
4999.05 75.134 192.87
5001.94 93.8033 -229.484
5004.84 62.9902 -140.308
5007.73 77.4294 313.863
5010.63 51.1515 782.057
5013.53 90.8634 317.264
5016.42 75.3195 323.721
5019.32 34.6499 201.205
5022.21 81.6735 265.964
5025.11 38.6878 -568.878
5028 66.937 -511.304
5030.9 86.6473 -848.224
5033.79 43.7481 -382.126
5036.69 69.0928 -764.172
5039.58 80.0748 284.927
5042.48 58.9321 1156.49
5045.38 75.1994 454.931
5048.27 62.3743 204.421
5051.16 69.6536 23.329
5054.06 34.9454 -406.245
5056.95 79.8337 -692.372
5059.85 74.8877 -952.665
5062.74 77.8974 -760.241
5065.64 71.3627 -899.57
5068.53 52.5367 -38.5079
5071.43 85.5436 -54.2082
5074.32 62.3322 516.511
5077.21 56.895 1638.08
5080.11 73.6315 440.193
5083 81.1024 309.242
5085.9 88.8005 -160.958
5088.79 70.281 -865.525
5091.68 59.3937 -589.372
5094.58 61.0325 -400.191
5097.47 74.8295 577.171
5100.36 87.7841 854.25
5103.26 66.6016 193.085
5106.15 72.3959 546.353
5109.04 92.4154 384.707
5111.94 59.4774 1221.24
5114.83 60.7051 378.887
5117.72 82.0204 793.506
5120.61 58.4514 227.342
5123.51 66.5471 -60.173
5126.4 67.5466 497.966
5129.29 60.6869 -60.1315
5132.18 53.44 1045
5135.08 54.9468 1137.54
5137.97 76.771 1609
5140.86 96.6949 427.665
5143.75 60.1928 300.231
5146.64 66.8776 802.469
5149.54 62.0117 601.009
5152.43 53.3426 469.251
5155.32 59.917 150.013
5158.21 73.2238 1058.82
5161.1 36.7153 1186.21
5163.99 71.71 772.075
5166.89 48.6183 525.4
5169.78 39.6011 704.614
5172.67 46.3707 1059.06
5175.56 66.1033 416.021
5178.45 26.197 738.857
5181.34 57.7147 791.39
5184.23 40.398 697.193
5187.12 46.5906 -157.23
5190.01 87.1415 160.361
5192.9 53.8593 211.688
5195.79 53.3231 340.329
5198.68 69.8511 -85.0838
5201.57 67.8252 367.26
5204.46 33.5722 132.26
5207.35 68.6872 25.4759
5210.24 73.147 -66.0139
5213.13 68.1254 -78.2896
5216.02 60.6844 -15.4458
5218.91 58.1597 -310.336
5221.8 68.3732 1486.29
5224.69 43.6117 608.099
5227.58 72.829 668.282
5230.47 49.9071 212.373
5233.36 94.5646 674.419
5236.25 61.8467 -106.955
5239.14 78.3171 -50.8936
5242.03 71.9633 63.8828
5244.92 55.2011 613.499
5247.8 68.9084 -1163.68
5250.69 57.8214 -608.511
5253.58 67.4475 288.816
5256.47 58.7011 -132.417
5259.36 75.7849 174.314
5262.25 62.288 197.822
5265.14 68.7058 800.619
5268.02 70.7019 192.003
5270.91 53.5924 214.153
5273.8 65.771 -277.483
5276.69 68.698 -182.768
5279.57 63.2119 -141.998
5282.46 65.977 131.405
5285.35 78.7054 -30.2841
5288.24 69.8678 -22.8755
5291.12 78.8165 -136.899
5294.01 67.6037 387.242
5296.9 65.582 449.131
5299.79 71.599 259.354
5302.67 54.6017 169.93
5305.56 52.0721 242.475
5308.45 61.259 22.7892
5311.33 78.9369 -96.0189
5314.22 82.566 -66.3208
5317.11 86.4597 394.655
5319.99 58.4338 472.265
5322.88 61.3239 180.836
5325.76 69.0467 347.994
5328.65 57.7634 77.8955
5331.54 78.6499 335.992
5334.42 54.4027 417.243
5337.31 68.1049 357.374
5340.19 56.8397 131.95
5343.08 60.9302 -13.6234
5345.96 72.6938 203.408
5348.85 78.2201 -27.1625
5351.74 45.2619 135.836
5354.62 61.6191 168.703
5357.51 64.7739 446.354
5360.39 66.528 -73.624
5363.28 51.6149 48.9458
5366.16 77.5914 106.489
5369.04 61.7243 158.599
5371.93 69.4689 228.403
5374.81 65.1948 -189.764
5377.7 72.9658 -350.113
5380.58 67.6615 522.474
5383.47 82.1105 953.418
5386.35 42.3721 -68.1005
5389.23 68.2294 -607.69
5392.12 63.0548 293.064
5395 90.1672 951.943
5397.89 42.5073 221.576
5400.77 67.2208 -79.0696
5403.65 86.9695 112.29
5406.54 89.055 310.165
5409.42 55.5955 718.797
5412.3 57.8171 376.555
5415.19 93.3887 -222.431
5418.07 79.1907 180.014
5420.95 59.2474 190.131
5423.83 38.82 511.039
5426.72 81.4567 -332.383
5429.6 57.312 -420.636
5432.48 82.4379 918.557
5435.37 68.5806 -117.346
5438.25 83.3349 197.409
5441.13 60.3984 179.017
5444.01 55.6718 485.532
5446.89 66.8015 1210.52
5449.78 66.0619 426.417
5452.66 60.4479 454.242
5455.54 70.7553 438.929
5458.42 92.614 653.197
5461.3 74.9932 -304.696
5464.18 69.1782 943.278
5467.06 42.9412 1175.85
5469.95 51.6412 -876.884
5472.83 72.5048 117.422
5475.71 54.8385 -9.57388
5478.59 71.3928 210.805
5481.47 65.9336 1069.65
5484.35 85.6757 377.911
5487.23 66.8441 -775.735
5490.11 78.7363 -1616.55
5492.99 65.5166 601.631
5495.87 68.9907 -110.614
5498.75 63.3309 9.02145
5501.63 77.8164 221.767
5504.51 74.7092 -570.227
5507.39 84.9783 479.804
5510.27 69.9562 462.216
5513.15 73.5174 830.292
5516.03 54.5948 1346.33
5518.91 70.4827 -160.536
5521.79 58.5845 -923.849
5524.67 61.3374 2442.98
5527.55 59.2507 522.395
5530.43 88.154 -480.839
5533.3 82.029 11.6678
5536.18 59.8114 -3030.7
5539.06 70.2424 -1331.54
5541.94 50.675 1013.32
5544.82 62.8999 -1086.71
5547.7 64.9109 1079.99
5550.58 68.0006 -247.153
5553.45 80.1126 336.097
5556.33 66.1351 5190.35
5559.21 63.2071 -1687.29
5562.09 62.1448 -5316.05
5564.97 51.5222 2983.74
5567.84 67.4627 3279.38
5570.72 54.7084 -1338.26
5573.6 66.0367 1394.4
5576.48 69.4574 4057.44
5579.35 56.8987 2820.12
5582.23 40.4767 2161.52
5585.11 52.2153 3253.51
5587.98 78.8704 3391.36
5590.86 55.1082 -166.628
5593.74 70.0469 -3160.71
5596.61 40.5029 -313.683
5599.49 51.714 417.69
5602.37 66.9304 3261.73
5605.24 74.6809 5549.01
5608.12 85.9537 1066.46
5610.99 94.6208 -4431.88
5613.87 81.9962 3568.99
5616.75 78.6319 3219.88
5619.62 83.6793 -3720.62
5622.5 83.9851 -426.386
5625.37 61.0853 4984.12
5628.25 102.444 3138.4
5631.12 56.4112 -4128.68
5634 51.8877 -5294.95
5636.87 89.4217 4407.85
5639.75 72.8783 2048.9
5642.62 84.8512 -1231.81
5645.5 86.2546 3498.48
5648.37 64.5728 3481.51
5651.25 42.7935 -809.674
5654.12 83.0779 -2887.92
5656.99 57.8908 -1254.24
5659.87 44.1314 1179.05
5662.74 47.4601 1827.87
5665.62 70.6476 -1125.37
5668.49 62.7315 -69.9255
5671.36 75.655 1848.85
5674.24 75.284 -542.756
5677.11 73.8178 -620.418
5679.98 65.6749 216.828
5682.86 63.6331 1118.01
5685.73 60.2091 1661.04
5688.6 58.1906 -475.874
5691.48 73.9416 -2209
5694.35 49.495 -256.222
5697.22 93.108 -1186.03
5700.09 55.258 2466.45
5702.97 78.3525 2557.02
5705.84 67.9013 -603.989
5708.71 73.8479 -1435.08
5711.58 78.3711 563.729
5714.46 69.7979 -600.275
5717.33 65.6323 206.873
5720.2 93.9066 1092.6
5723.07 58.2731 856.58
5725.94 84.5829 -390.785
5728.81 42.8236 411.807
5731.68 78.2456 3608.05
5734.56 71.4368 1649.1
5737.43 64.7363 -1477.52
5740.3 51.5345 -505.788
5743.17 51.213 1974.81
5746.04 83.788 465.637
5748.91 68.1904 -356.69
5751.78 65.7368 2497.75
5754.65 70.2611 461.068
5757.52 60.5962 -2573.26
5760.39 48.4498 107.948
5763.26 68.0795 33.5856
5766.13 69.3064 -209.003
5769 81.3536 1220.92
5771.87 57.8295 -744.527
5774.74 79.9686 -1329.34
5777.61 68.1682 -375.24
5780.48 83.6925 1148.2
5783.35 49.2264 927.158
5786.22 77.8953 -1139.46
5789.09 64.2466 -180.192
5791.96 68.0871 1332.95
5794.82 64.6286 95.253
5797.69 40.1401 202.205
5800.56 65.0099 1411.98
5803.43 60.7975 1683.49
5806.3 77.8138 -100.445
5809.17 54.354 -407.579
5812.03 58.9268 1455.47
5814.9 71.8573 1054.51
5817.77 66.0475 -135.714
5820.64 49.1404 -576.502
5823.5 70.8615 -479.564
5826.37 61.8531 -1057.3
5829.24 86.9007 224.513
5832.11 70.8444 9.40873
5834.97 68.5223 -752.232
5837.84 68.662 1086.84
5840.71 75.9602 356.367
5843.57 51.1607 597.799
5846.44 56.2817 1144.33
5849.31 52.0797 310.985
5852.17 54.0475 -433.912
5855.04 75.0153 515.895
5857.91 69.0383 1173.53
5860.77 48.9184 434.227
5863.64 79.8806 947.482
5866.5 61.5193 145.085
5869.37 79.4172 -363.635
5872.24 51.2245 -238.633
5875.1 47.0912 549.809
5877.97 74.3399 471.697
5880.83 57.248 205.754
5883.7 52.1675 -382.615
5886.56 90.4525 883.826
5889.43 55.7106 470.004
5892.29 50.4938 37.8459
5895.16 87.1965 670.629
5898.02 61.2763 175.628
5900.88 49.8189 248.391
5903.75 43.8039 -107.351
5906.61 71.4644 442.349
5909.48 52.9521 -105.947
5912.34 37.235 109.479
5915.2 57.7776 252.146
5918.07 58.3985 -159.833
5920.93 49.6377 -158.404
5923.79 54.2817 -173.735
5926.66 62.7585 -281.947
5929.52 74.5839 275.892
5932.38 49.2717 -133.732
5935.25 66.677 126.895
5938.11 64.0796 906.553
5940.97 74.5501 -185.827
5943.83 72.1545 452.946
5946.7 42.1891 212.9
5949.56 49.1266 757.21
5952.42 79.4814 252.749
5955.28 68.6637 1167.39
5958.14 57.8911 504.987
5961.01 68.9167 -103.386
5963.87 54.1566 903.779
5966.73 59.047 117.646
5969.59 77.4992 488.389
5972.45 66.5112 193.092
5975.31 45.9954 -336.231
5978.17 59.4054 478.732
5981.04 65.2728 74.7444
5983.9 61.3301 511.846
5986.76 68.1953 471.545
5989.62 73.193 -1.82481
5992.48 53.0212 327.303
5995.34 49.853 197.576
5998.2 76.7199 77.6424
6001.06 59.3394 403.029
6003.92 71.5492 230.706
6006.78 52.9092 153.334
6009.64 80.3651 -401.862
6012.5 65.1097 1198.61
6015.36 48.9099 196.716
6018.22 61.9513 -293.519
6021.07 45.502 77.8319
6023.93 59.617 574.754
6026.79 66.0268 -1077.66
6029.65 66.4845 326.12
6032.51 62.8441 -604.779
6035.37 73.0025 776.233
6038.23 51.1319 -250.17
6041.08 64.5108 498.519
6043.94 57.9522 164.999
6046.8 71.1051 -45.086
6049.66 58.254 -165.393
6052.52 69.4831 548.861
6055.37 58.8498 -201.247
6058.23 63.1758 366.212
6061.09 53.2204 205.458
6063.95 57.5801 688.874
6066.8 60.307 -73.6499
6069.66 52.7005 469.224
6072.52 58.851 223.718
6075.37 69.153 296.872
6078.23 60.5554 -960.862
6081.09 54.3887 857.589
6083.94 65.0414 334.165
6086.8 45.3538 -281.85
6089.65 43.5496 264.678
6092.51 54.7852 548.985
6095.37 70.2554 632.571
6098.22 51.7307 669.908
6101.08 51.3416 -357.508
6103.93 48.3449 1068.32
6106.79 50.5723 -1499.16
6109.64 53.6223 882.62
6112.5 78.2326 -691.149
6115.35 58.5367 612.012
6118.21 51.7691 -838.429
6121.06 55.6156 74.5713
6123.92 75.8095 191.083
6126.77 52.7047 3.2736
6129.62 54.6202 424.134
6132.48 48.1966 -907.045
6135.33 39.2755 1127.96
6138.19 62.1023 -1048.23
6141.04 61.0069 -11.7947
6143.89 69.9573 -106.971
6146.75 49.8437 435.527
6149.6 67.8842 -424.56
6152.45 33.1354 607.545
6155.31 50.0918 -477.419
6158.16 49.481 595.888
6161.01 54.7064 -448.215
6163.86 61.6605 529.285
6166.72 34.7104 -332.868
6169.57 51.668 212.996
6172.42 63.9201 -490.365
6175.27 63.8025 732.566
6178.12 65.9932 -1087.47
6180.98 65.7694 1281.97
6183.83 51.8712 -1114.96
6186.68 50.0444 1636.3
6189.53 66.0322 -1491.38
6192.38 49.6984 1287.84
6195.23 71.845 -724.236
6198.08 68.9095 1187.26
6200.94 53.0342 -1137.05
6203.79 48.667 1658.85
6206.64 51.0602 -774.602
6209.49 84.0397 178.666
6212.34 56.5531 815.523
6215.19 48.0273 133.269
6218.04 35.6228 -550.913
6220.89 65.9042 1230.47
6223.74 50.6265 -1516.5
6226.59 49.8379 172.478
6229.44 67.6165 1263.85
6232.29 56.2509 -1892.38
6235.13 71.0049 959.297
6237.98 51.5731 -241.555
6240.83 59.2467 -1097.31
6243.68 61.2269 659.327
6246.53 57.732 5.32191
6249.38 59.2593 -1051.34
6252.23 58.0462 714.246
6255.07 64.4769 -424.292
6257.92 59.795 -374.379
6260.77 70.5086 -333.105
6263.62 58.8036 442.399
6266.47 43.9048 641.892
6269.31 51.6686 -388.887
6272.16 68.4979 -9.68241
6275.01 54.6173 1259.38
6277.86 38.6299 398.621
6280.7 53.968 -939.851
6283.55 70.0606 1114.68
6286.4 64.9017 -304.148
6289.24 54.784 652.272
6292.09 56.4091 -1097.05
6294.93 70.1664 1495.39
6297.78 79.5943 -425.227
6300.63 66.1409 -237.463
6303.47 58.1918 -70.274
6306.32 59.9119 1791.88
6309.16 58.1482 -597.448
6312.01 60.8231 612.893
6314.85 53.103 -395.007
6317.7 39.7224 1479
6320.54 66.4005 -1565.5
6323.39 56.3269 916.183
6326.23 70.936 -169.197
6329.08 58.9423 -215.072
6331.92 71.1517 396
6334.77 49.1814 -206.366
6337.61 67.7574 1403.83
6340.46 60.324 -1430.81
6343.3 47.307 91.2242
6346.14 70.2718 148.025
6348.99 70.6853 309.377
6351.83 66.1159 -534.197
6354.67 52.1562 -339.488
6357.52 58.4699 963.344
6360.36 51.7283 -953.324
6363.2 53.5566 -1241.54
6366.05 53.0075 2317.18
6368.89 48.0865 -1664.29
6371.73 72.6751 1482.55
6374.57 45.3105 -125.981
6377.41 48.2097 -968.812
6380.26 45.7342 -696.287
6383.1 47.2617 2123.78
6385.94 63.3967 -750.302
6388.78 59.1304 -1227.2
6391.62 49.3379 2461.54
6394.46 52.0578 -1207.37
6397.31 62.6429 1206.02
6400.15 41.5844 -343.362
6402.99 45.1833 267.437
6405.83 50.1393 -522.792
6408.67 42.6003 2020.24
6411.51 53.874 26.2356
6414.35 30.9426 -1294.08
6417.19 65.9097 2387.17
6420.03 28.4864 -1991.17
6422.87 49.9415 3971.29
6425.71 58.7022 -2987.09
6428.55 35.8543 2668.9
6431.39 38.7912 -2089.56
6434.23 48.5855 2859.29
6437.07 59.4433 -2465.29
6439.9 50.2701 687.32
6442.74 41.7249 283.373
6445.58 25.7664 -1940.12
6448.42 40.7146 1363.49
6451.26 26.5192 -645.6
6454.1 28.6257 945.262
6456.93 27.1931 232.101
6459.77 39.0562 518.523
6462.61 35.2638 709.759
6465.45 42.5185 338.795
6468.29 41.3893 -1822.16
6471.12 15.193 1511.95
6473.96 26.7814 -1167.96
6476.8 20.6072 1468.21
6479.63 32.7464 334.845
6482.47 31.4413 207.965
6485.31 36.0758 -1230.75
6488.14 44.6126 2141.87
6490.98 23.9836 -316.925
6493.82 36.2287 -74.1641
6496.65 33.5012 -2178.67
6499.49 30.3142 83.7939
6502.32 15.1297 346.598
6505.16 36.2597 2234.42
6507.99 20.7901 -2087.59
6510.83 29.7885 1410.99
6513.66 22.7608 2.40814
6516.5 47.3478 837.156
6519.33 32.0964 -68.5264
6522.17 33.6278 -1575.48
6525 48.9545 2178.88
6527.84 35.1259 -544.03
6530.67 42.0524 2556.72
6533.51 59.1732 -2529.08
6536.34 40.9087 1088.49
6539.17 52.1094 -778.73
6542.01 50.9199 1848.84
6544.84 39.4116 -398.719
6547.67 47.6161 -1254.72
6550.51 52.0328 115.908
6553.34 53.6218 -122.264
6556.17 89.6144 600.142
6559 98.6425 1713.68
6561.84 135.019 -2539.12
6564.67 112.948 1716.5
6567.5 177.973 -208.576
6570.33 153.683 383.417
6573.16 134.498 -1710.94
6576 71.3243 346.778
6578.83 71.6206 538.323
6581.66 65.5822 1018.91
6584.49 76.0985 1909.43
6587.32 88.6055 -2666.78
6590.15 80.9571 1344.17
6592.98 75.3292 -1803.08
6595.81 79.1563 906.732
6598.64 77.962 -964.926
6601.47 87.7101 551.754
6604.3 90.2507 566.299
6607.13 102.366 702.438
6609.96 105.072 1047.32
6612.79 89.47 1645.02
6615.62 107.687 -2499.64
6618.45 91.7318 1910.1
6621.28 109.549 724.249
6624.11 90.3001 527.759
6626.94 104.272 -495.918
6629.77 80.2307 -297.292
6632.6 98.0276 1948.66
6635.43 103.561 -1412.98
6638.25 87.5748 670.009
6641.08 110.381 245.653
6643.91 92.1991 780.98
6646.74 106.891 2166.32
6649.56 90.0147 245.859
6652.39 110.998 53.9162
6655.22 103.218 371.427
6658.05 110.083 3.54109
6660.87 112.859 -927.616
6663.7 107.589 -2145.1
6666.53 103.431 3963.54
6669.35 83.0883 -3365.03
6672.18 81.6742 1042.55
6675.01 111.557 1562.12
6677.83 85.0172 -2035.12
6680.66 85.9685 2184.02
6683.48 123.309 583.442
6686.31 77.0074 -1452.95
6689.13 90.3875 1983.59
6691.96 103.557 -130.579
6694.78 75.2347 1657.39
6697.61 92.5068 1737.65
6700.43 82.7331 -346.053
6703.26 85.3881 -1157.55
6706.08 82.5943 745.46
6708.91 77.3005 -1230.89
6711.73 81.9616 4410.43
6714.56 59.029 -2329.17
6717.38 81.6305 1556.05
6720.2 82.0593 -1436.1
6723.03 74.0606 1371.2
6725.85 86.0463 -3114.22
6728.67 82.5395 3674.09
6731.5 80.3482 -913.434
6734.32 86.1019 -1015.19
6737.14 70.0682 -821.022
6739.96 69.9836 2622.58
6742.79 77.6051 1111.39
6745.61 63.2039 1176.82
6748.43 68.4362 -2540.66
6751.25 67.7434 3710.17
6754.07 70.5007 1159.57
6756.9 68.3837 -1425.95
6759.72 60.9488 2471.09
6762.54 68.1445 2107.76
6765.36 61.4767 -229.194
6768.18 61.1872 -1068.12
6771 66.9201 1023.24
6773.82 61.1825 -764.102
6776.64 49.2776 1364.95
6779.46 65.0049 2559.99
6782.28 56.4004 -1637.11
6785.1 51.161 -339.93
6787.92 64.1279 2013.99
6790.74 60.8646 1881.73
6793.56 67.6235 -2902.49
6796.38 61.2881 4122.91
6799.2 76.851 272.452
6802.02 29.1982 -561.65
6804.84 56.2949 2156.17
6807.65 60.0023 1342.08
6810.47 51.4806 342.434
6813.29 54.6089 -172.035
6816.11 51.2721 292.87
6818.93 51.2504 -474.962
6821.74 67.3453 1389.22
6824.56 64.1929 -522.592
6827.38 55.6476 669.122
6830.2 69.1198 4397.29
6833.01 55.6683 -1512.18
6835.83 42.782 2071.94
6838.65 62.4979 -1201.04
6841.46 58.8002 1695.69
6844.28 61.8571 -702.399
6847.1 47.0898 1165.02
6849.91 55.6124 -1389.32
6852.73 42.9749 777.906
6855.54 61.2265 -2016.41
6858.36 55.3595 2345.45
6861.17 60.388 1883.17
6863.99 50.4362 -3747.25
6866.8 48.0207 2006.39
6869.62 39.3002 -2571.47
6872.43 49.2177 2938.35
6875.25 48.3846 -1469.93
6878.06 28.6704 2492.86
6880.88 46.3008 -244.86
6883.69 46.3238 -695.612
6886.5 41.4984 682.376
6889.32 55.5334 -1756.45
6892.13 51.0123 3065.98
6894.94 45.1704 2586.86
6897.76 54.3304 -131.968
6900.57 54.3153 2225.64
6903.38 46.369 -2005.32
6906.2 48.3059 2661.05
6909.01 46.1589 -1171.54
6911.82 65.2212 -1063.58
6914.63 40.0785 3698.81
6917.44 54.6839 -1779.83
6920.26 55.6265 1113.44
6923.07 37.879 1775.76
6925.88 46.339 1352.71
6928.69 41.6178 -1928.35
6931.5 45.4016 1402.94
6934.31 48.3487 1256.29
6937.12 57.8728 -470.411
6939.93 34.0736 -113.879
6942.74 57.419 997.53
6945.55 39.8027 774.364
6948.36 54.8549 1133.25
6951.17 53.2462 -1081.28
6953.98 41.9366 -1800.52
6956.79 48.4913 1267.04
6959.6 51.5859 -1743.13
6962.41 50.3343 -272.346
6965.22 38.1664 -157.208
6968.03 49.3958 -1852.6
6970.84 37.6866 2027.59
6973.65 46.4835 658.324
6976.45 48.4657 1124.7
6979.26 54.2685 -1.96197
6982.07 38.6325 627.834
6984.88 44.8236 283.178
6987.69 39.4994 656.267
6990.49 40.9822 -1053.23
6993.3 42.912 -1146.91
6996.11 53.6544 2064.02
6998.91 51.6841 2333.43
7001.72 50.5756 -359.115
7004.53 56.6026 -42.8829
7007.33 47.3785 2817.75
7010.14 40.5788 -2448.68
7012.95 51.7273 -1462.98
7015.75 30.4006 -1593.8
7018.56 44.1933 3445.56
7021.36 54.6684 -5341.5
7024.17 52.1488 746.013
7026.97 56.2347 -621.073
7029.78 37.9835 2583.06
7032.58 45.7104 -91.5934
7035.39 31.8787 -71.1174
7038.19 58.7359 801.227
7041 54.6401 -2164.9
7043.8 52.1311 -2349.96
7046.6 59.4589 3883.39
7049.41 49.0193 668.312
7052.21 55.2989 1826.71
7055.01 58.1495 -1750.48
7057.82 61.9348 2646.59
7060.62 51.1177 -2418.7
7063.42 43.5075 2297.47
7066.22 46.8978 -946.059
7069.03 40.5872 1594.8
7071.83 41.5056 -2121.39
7074.63 45.4293 630.617
7077.43 52.6829 2843.57
7080.23 46.612 -3206.44
7083.04 54.6947 2697.97
7085.84 49.1783 -1317.83
7088.64 58.738 1747.49
7091.44 50.6777 -827.688
7094.24 40.2985 -3122.64
7097.04 59.1884 4243.67
7099.84 66.5985 827.116
7102.64 46.9445 -961.032
7105.44 34.5184 805.503
7108.24 45.4691 -1752.83
7111.04 46.3905 1041.87
7113.84 45.5112 5191.27
7116.64 48.8591 -2719.08
7119.44 52.8481 3878.72
7122.24 70.8557 -1052.25
7125.04 35.2906 686.335
7127.83 43.97 4352.19
7130.63 63.9965 566.236
7133.43 53.3412 -4080.67
7136.23 46.7389 4144.89
7139.03 51.4245 880.701
7141.82 38.2603 3485.19
7144.62 44.0542 848.839
7147.42 34.9957 -719.768
7150.22 49.0298 9215.27
7153.01 48.5961 -7381.66
7155.81 28.1939 3579.31
7158.61 38.6146 -2239.35
7161.4 34.9782 1860.52
7164.2 54.4535 2861.93
7166.99 39.1989 -29.1433
7169.79 45.6748 2884.99
7172.59 47.7624 1969.39
7175.38 50.2381 -730.027
7178.18 43.051 -319.389
7180.97 48.4926 1726.7
7183.77 56.9998 322.913
7186.56 64.0924 1386.98
7189.36 59.3521 -2996.15
7192.15 50.8226 1965.29
7194.94 51.959 -163.655
7197.74 56.4906 4251.09
7200.53 46.7148 -2247.19
7203.33 44.6612 -3336.63
7206.12 51.1645 2791.87
7208.91 42.4599 -1048.13
7211.7 45.0269 -1904.89
7214.5 53.9309 3066.2
7217.29 37.4533 2346.65
7220.08 34.3136 -6722.53
7222.87 49.2933 9087.48
7225.67 46.4898 -1900.38
7228.46 50.0465 109.912
7231.25 33.1417 -725.712
7234.04 23.3637 7628.29
7236.83 51.7806 -736.927
7239.62 47.0923 -5270.26
7242.41 50.5657 6069.2
7245.21 8.62717 -2332.79
7248 31.6379 1397.47
7250.79 41.695 -2539.67
7253.58 57.9358 3837.85
7256.37 44.772 -7119.53
7259.16 34.9925 4073.03
7261.95 49.9167 2942.66
7264.73 25.7038 -4217.66
7267.52 39.4243 8809.11
7270.31 36.9347 -6944.88
7273.1 62.7504 9455.03
7275.89 60.6804 -5143.49
7278.68 47.5332 8880.07
7281.47 46.9254 540.416
7284.25 36.5092 -3842.85
7287.04 39.733 3153.15
7289.83 47.9068 1154.59
7292.62 30.7128 2545.5
7295.4 57.8654 1980.29
7298.19 37.5381 -883.716
7300.98 46.3154 -1498.57
7303.76 55.2358 5126.67
7306.55 40.7854 -1052.15
7309.34 48.7504 -923.458
7312.12 51.0095 334.829
7314.91 51.0358 2050.42
7317.7 39.8119 -3915.13
7320.48 40.4872 5899.56
7323.27 53.6631 -9034.25
7326.05 54.2153 8999.18
7328.84 30.6136 -5001.58
7331.62 30.2035 11198.7
7334.41 51.1502 -8043.18
7337.19 46.1247 2979.27
7339.97 48.8386 -81.0457
7342.76 40.2028 1360.65
7345.54 41.4893 -1513.04
7348.32 38.1051 4135.05
7351.11 36.1319 -1953.42
7353.89 46.3313 78.4822
7356.67 46.8512 -4358.16
7359.46 69.3815 3834.55
7362.24 52.4033 2022.83
7365.02 27.0484 -4298.77
7367.8 69.6344 5794.61
7370.59 52.2643 -9438.08
7373.37 32.2917 2709.33
7376.15 34.7562 2578.83
7378.93 66.0205 -2954.35
7381.71 40.5419 4108.91
7384.49 53.0374 -7368.59
7387.27 40.2739 5942.17
7390.05 54.2642 -5241.21
7392.83 51.1666 13225.9
7395.61 43.5752 -11671.9
7398.39 62.6728 7914
7401.17 36.0048 -3393.89
7403.95 33.2397 1065.42
7406.73 41.4145 3576.54
7409.51 50.126 -17887.4
7412.29 34.859 18216.6
7415.07 47.0551 -8324.15
7417.85 39.1114 9774.7
7420.63 51.1813 -4195.51
7423.4 42.6641 1080.71
7426.18 44.9239 -1204.6
7428.96 39.9202 5010.9
7431.74 54.5623 -8138.37
7434.51 54.7241 20177.5
7437.29 64.3071 -14387
7440.07 44.1625 4434.26
7442.85 43.2808 6654.99
7445.62 46.8295 -8670.25
7448.4 34.6342 10523.3
7451.17 48.0476 -2630.65
7453.95 41.5756 3006.14
7456.73 42.5903 1555.94
7459.5 44.5399 3979.46
7462.28 32.7117 -2787.28
7465.05 44.9688 -8017
7467.83 31.5586 13360.9
7470.6 47.9407 -10420.1
7473.38 46.9047 5253.71
7476.15 25.5941 -2558.93
7478.92 36.6124 6866.49
7481.7 50.0112 -3788.34
7484.47 39.7589 13252.6
7487.25 50.0282 -19346.2
7490.02 61.1203 28208.1
7492.79 49.7131 -13098
7495.57 37.0849 1228.93
7498.34 53.9622 17483.8
7501.11 41.1492 -23911.5
7503.88 41.168 24036.8
7506.65 46.4638 -33215.4
7509.43 41.3542 32663.4
7512.2 45.7718 -27078.3
7514.97 43.336 20699
7517.74 44.5162 -21997.1
7520.51 55.4576 15777.4
7523.28 64.2081 -16284.3
7526.05 32.6626 4137.6
7528.82 37.595 7216.47
7531.59 22.0811 -12649.4
7534.36 53.3367 11228.3
7537.13 29.7514 -9362
7539.9 35.3528 10465.1
7542.67 60.4895 -10331.3
7545.44 56.691 10920.3
7548.21 31.8979 -9057.4
7550.98 48.5705 14218.5
7553.75 58.2286 -16544.2
7556.52 45.5984 15644.1
7559.28 53.8936 -17815.3
7562.05 41.5471 35689.1
7564.82 44.7684 -54622.3
7567.59 49.3563 49976.2
7570.35 40.4973 -46933.6
7573.12 36.066 51446.9
7575.89 48.7863 -53947.3
7578.65 32.4097 49726.6
7581.42 32.3667 -37297.6
7584.19 41.6332 27809.3
7586.95 40.4208 -24601
7589.72 38.101 17325.1
7592.48 37.8961 -14047.9
7595.25 18.7459 9274.11
7598.02 16.4885 -8788.8
7600.78 12.6226 4351.23
7603.55 18.9218 -1682.28
7606.31 10.0603 1112.01
7609.07 10.2156 3026.99
7611.84 19.4141 -5827.13
7614.6 23.0126 8464.57
7617.37 25.0264 -4182.03
7620.13 30.8184 -1846.04
7622.89 37.3342 6987.96
7625.66 13.4692 3624.06
7628.42 11.7859 -7579.57
7631.18 23.2947 5413.41
7633.94 15.2213 4740.51
7636.71 10.9351 -6698.87
7639.47 25.3231 18746.5
7642.23 32.0822 -13000.6
7644.99 32.329 -568.705
7647.75 29.5431 7849.33
7650.51 46.256 -10684
7653.27 23.0022 8113.35
7656.03 35.5238 -12515.4
7658.79 30.5376 16854.1
7661.56 27.6029 -7288.51
7664.32 33.8047 -5055.28
7667.08 35.0724 13237.5
7669.83 31.6712 -16939.3
7672.59 34.6163 9547.73
7675.35 36.0694 1262.71
7678.11 38.6884 -6508.46
7680.87 31.5637 3676.42
7683.63 39.2886 -1463.27
7686.39 44.8142 2513.65
7689.15 32.9071 48.6421
7691.9 32.4794 -3404.52
7694.66 32.568 -384.088
7697.42 43.1019 1799.71
7700.18 22.0023 12406.3
7702.93 31.8015 -15343.7
7705.69 41.2036 17588.5
7708.45 43.2727 -10257.7
7711.2 41.7597 6205.27
7713.96 44.8449 7684.58
7716.71 40.1029 4454.64
7719.47 27.0308 269.987
7722.23 27.7251 -18363.5
7724.98 17.339 18163.4
7727.74 47.9661 -11170.6
7730.49 35.47 4319.06
7733.25 32.5685 -3862.51
7736 40.704 1100.21
7738.75 22.089 -882.972
7741.51 24.0753 -14327.3
7744.26 42.0302 13923.8
7747.02 38.6757 -10626.2
7749.77 39.488 7952.6
7752.52 48.8755 -5482.53
7755.27 30.053 187.543
7758.03 35.7251 -1387.24
7760.78 26.7765 2072.3
7763.53 41.8067 12724.1
7766.28 32.9187 -13339.3
7769.04 34.4092 5045.12
7771.79 33.0521 5394.4
7774.54 27.3419 1773.58
7777.29 47.3694 2316.05
7780.04 45.6905 -5162.9
7782.79 30.8469 -10251.5
7785.54 26.4329 6911.85
7788.29 54.0945 -7222.44
7791.04 51.5485 2840.14
7793.79 42.5872 16370.9
7796.54 33.9225 -15427.4
7799.29 45.2852 7315.25
7802.04 31.8208 9110.6
7804.79 47.7877 1560.85
7807.54 23.038 5126.97
7810.28 34.2486 -13161.2
7813.03 30.7839 6027.95
7815.78 45.9078 1265.86
7818.53 53.2674 -15398
7821.28 41.9006 20378.3
7824.02 42.9441 -12036.5
7826.77 33.0011 -5917.16
7829.52 31.4402 21775.9
7832.26 21.7782 -14588.3
7835.01 26.9536 17811.2
7837.76 47.8608 -4011.27
7840.5 38.2682 1588.68
7843.25 37.2403 16845.1
7845.99 25.2145 -12809.1
7848.74 36.5885 5778.95
7851.48 30.9643 -14208.4
7854.23 68.5539 1181.72
7856.97 37.8023 3736.24
7859.72 55.7663 -6579.05
7862.46 43.7713 -1317.01
7865.21 39.1924 9829.38
7867.95 42.5692 -4923.74
7870.69 43.702 2016.99
7873.44 37.8699 8744.95
7876.18 44.2412 -7109.42
7878.92 38.9183 13847.3
7881.66 30.9424 -14239.9
7884.41 39.4892 -2189.83
7887.15 39.4718 7062.54
7889.89 55.2612 2254.86
7892.63 32.5723 -8964.61
7895.37 44.0767 12888.4
7898.11 29.9053 -2944.87
7900.85 35.6274 2288.18
7903.6 37.8231 9719.82
7906.34 26.3449 -11727.5
7909.08 48.1379 15960.4
7911.82 49.8374 -16453.9
7914.56 43.0518 28932.9
7917.29 41.6868 -26060.3
7920.03 51.846 7152.67
7922.77 41.7312 3233.63
7925.51 23.2558 -17096.8
7928.25 36.2531 13549.1
7930.99 37.9984 782.613
7933.73 64.8698 4490.26
7936.46 32.7625 -2046.34
7939.2 27.8641 -6554.02
7941.94 27.2435 -794.854
7944.68 46.6341 9588.72
7947.41 36.5665 -12576
7950.15 43.2264 11265.4
7952.89 28.2466 -7064.02
7955.62 39.6221 34755.8
7958.36 43.3803 -21063.1
7961.1 43.6936 -3302.94
7963.83 59.3948 262.617
7966.57 19.017 -7717.09
7969.3 30.5694 -1490.33
7972.04 38.5752 -1432.96
7974.77 27.406 13607.7
7977.51 37.922 -11396.8
7980.24 35.7845 1087.87
7982.97 39.9609 -10616.6
7985.71 34.5792 29227.5
7988.44 32.7424 -6263.06
7991.17 55.1361 -1545.08
7993.91 65.0705 15637.4
7996.64 38.0495 -7893.25
7999.37 44.4808 -4555.1
8002.1 40.0027 -2241.84
8004.84 49.0281 7073.02
8007.57 43.6779 2513.29
8010.3 45.9205 2635.72
8013.03 46.9551 -11553
8015.76 32.3527 -754.594
8018.49 28.0571 3480.78
8021.22 39.0138 -2451.47
8023.95 24.8387 -9036.05
8026.68 40.3902 19311.1
8029.41 49.7131 -8409.07
8032.14 12.2517 -22345.2
8034.87 32.5324 9515.2
8037.6 33.8643 495.683
8040.33 42.6374 6581.13
8043.06 49.9559 -3783.09
8045.79 27.9101 2565.08
8048.52 48.6513 7775.98
8051.24 37.3921 -11405.1
8053.97 34.4692 23862.3
8056.7 42.2385 -31617.4
8059.43 42.8389 23404.3
8062.15 42.9881 -28159.4
8064.88 39.4515 28061.9
8067.61 21.6827 787.693
8070.33 34.5437 -912.622
8073.06 30.931 8639.48
8075.78 41.0446 -908.852
8078.51 41.4611 9604.03
8081.24 41.4056 676.746
8083.96 32.8754 4871.71
8086.69 50.9502 14309.6
8089.41 35.1724 -10373.4
8092.13 47.3382 -4357.19
8094.86 21.0832 24699.1
8097.58 39.8824 -31819.2
8100.31 53.2671 39532.8
8103.03 38.6017 -3293.13
8105.75 31.2531 10737.5
8108.48 43.8824 21766
8111.2 29.8696 -3874.69
8113.92 30.4702 -16283.1
8116.64 30.0099 10374.5
8119.36 33.3191 22053.3
8122.09 53.7339 -14471.1
8124.81 36.3691 11707.1
8127.53 52.9581 -21963.6
8130.25 49.923 47295.8
8132.97 29.7635 -48961.2
8135.69 21.0806 46779.4
8138.41 26.4416 -7591.43
8141.13 35.681 -23145.3
8143.85 48.3798 46380.8
8146.57 26.498 -68371.7
8149.29 49.7412 35462.9
8152.01 28.5039 35567.3
8154.73 40.862 -45144.8
8157.45 53.5878 25606.6
8160.16 32.4782 6171.69
8162.88 11.2595 20585.8
8165.6 28.906 -29929.8
8168.32 24.3032 17533.7
8171.03 56.4153 -50250.6
8173.75 38.0526 51614.6
8176.47 24.5514 -47751.9
8179.18 32.7743 75306.4
8181.9 18.9399 -105130
8184.62 36.4603 92026.3
8187.33 14.91 -59593
8190.05 40.0614 49517.5
8192.76 31.6385 -12113.1
8195.48 42.8485 -42529.4
8198.19 29.3078 99231.2
8200.91 47.069 -105995
8203.62 32.1765 138084
8206.34 42.0993 -115150
8209.05 20.5243 76456.2
8211.76 26.6931 18607.4
8214.48 27.2233 -62669.6
8217.19 35.6641 54923.6
8219.9 36.4476 -42842.3
8222.61 30.8572 45555.1
8225.33 28.8676 -57641.2
8228.04 19.6002 28983.7
8230.75 38.7553 -19497.9
8233.46 27.0551 48186.3
8236.17 12.9629 -42227.5
8238.88 32.022 -24423.7
8241.6 31.7559 57341.7
8244.31 32.3358 -77120.6
8247.02 21.9058 67481.9
8249.73 46.4091 -41920.6
8252.44 28.0705 -29192
8255.15 32.8986 35275.6
8257.85 40.4421 -4220.72
8260.56 20.2753 -7685.39
8263.27 43.1712 27866.5
8265.98 20.043 -65868.7
8268.69 23.151 67006.4
8271.4 34.5583 -24729.4
8274.1 32.8133 -37305.2
8276.81 55.636 13991.6
8279.52 36.7294 28337.3
8282.23 22.0184 -18168.2
8284.93 59.2557 7158.51
8287.64 24.1261 1707.99
8290.35 31.1108 -41807.7
8293.05 32.6148 11659.8
8295.76 46.0534 42067.7
8298.46 41.9158 -1436.98
8301.17 20.2157 -40192.8
8303.87 21.3437 30283.3
8306.58 25.3147 6159.72
8309.28 33.7963 17263.1
8311.99 24.9051 -35288.3
8314.69 39.4158 -2755.45
8317.39 25.0636 5015.12
8320.1 40.6127 -11803.1
8322.8 23.6075 -11686.6
8325.5 32.4642 -19604.3
8328.21 34.7917 12358
8330.91 22.9638 13704.3
8333.61 27.6712 -5268.25
8336.31 29.2488 -28498.9
8339.01 40.6038 28676.4
8341.71 54.2945 3067.31
8344.42 45.0586 -22557.4
8347.12 50.2565 5668.86
8349.82 33.039 -9896.03
8352.52 8.0136 -12619.4
8355.22 23.919 3535.29
8357.92 31.9452 16401.3
8360.62 12.6876 22307.8
8363.32 57.0284 419.345
8366.01 24.411 -13909
8368.71 18.321 -1780.6
8371.41 15.5902 11895.8
8374.11 39.5539 26087
8376.81 22.0799 2566.86
8379.51 38.2608 -7637.43
8382.2 31.9555 1025.94
8384.9 40.8933 10778.1
8387.6 35.7306 -7612.7
8390.29 16.4472 23052.7
8392.99 46.4282 -24145.9
8395.69 61.9181 13750.1
8398.38 14.4662 10930.8
8401.08 27.593 -30116.5
8403.77 0.355639 -1259.78
8406.47 18.4408 -2575
8409.16 6.75845 20649.3
8411.86 26.1421 -24595.6
8414.55 54.1 8028.55
8417.24 43.2706 -2721.06
8419.94 12.1267 -9690.17
8422.63 -10.7755 7164.8
8425.33 23.4939 6411.37
8428.02 24.0845 -8280.72
8430.71 51.6395 296.66
8433.4 40.348 -44170.3
8436.1 11.9223 7119.38
8438.79 14.0116 -16065.7
8441.48 28.6839 5264.66
8444.17 18.7066 -5845.14
8446.86 15.6494 82.0129
8449.55 20.6306 -802.56
8452.24 25.8843 -2943
8454.93 35.3745 -2510.69
8457.62 37.6475 5353.21
8460.31 25.0675 -6902.95
8463 27.1265 -4774.77
8465.69 19.1655 6469.97
8468.38 25.6509 -10627.5
8471.07 4.7104 -2592.35
8473.76 3.74163 -1252.33
8476.44 21.0481 -19462.5
8479.13 3.00754 -16804.4
8481.82 28.1403 -2662.32
8484.51 13.5344 4495.04
8487.19 13.9127 -5710.1
8489.88 3.93906 2397.36
8492.57 9.59464 -10467.8
8495.25 21.724 4456.37
8497.94 -2.26626 1660.56
8500.63 3.37029 4913.12
8503.31 -7.41979 -9712.87
8506 13.5717 5296.73
8508.68 20.0817 13631.7
8511.37 12.1086 -3147.33
8514.05 8.44505 4097.61
8516.73 19.0385 2094.45
8519.42 23.2358 -18604.5
8522.1 0.542594 -6210.92
8524.78 6.47942 -2173.65
8527.47 19.7538 -9206.52
8530.15 12.694 5581.55
8532.83 27.4713 -4014.75
8535.52 9.41681 -1871.95
8538.2 -0.871355 20514.5
8540.88 11.7349 13270.2
8543.56 2.91275 2496.26
8546.24 29.0848 7142.2
8548.92 21.1945 -713.628
8551.6 32.8484 517.342
8554.28 8.87957 -11254.4
8556.96 7.80224 3994.96
8559.64 12.0295 4941.87
8562.32 18.8649 7834.91
8565 21.2891 -4936.79
8567.68 30.357 -8064.68
8570.36 22.6331 3795.61
8573.04 38.0245 -8133.85
8575.72 32.3797 -5438.31
8578.39 17.461 -2914.71
8581.07 1.94643 7496.13
8583.75 38.312 656.943
8586.42 17.4374 -3415.34
8589.1 31.4243 7463.12
8591.78 20.8224 -1698.07
8594.45 21.9717 5377.46
8597.13 9.82099 -173.279
8599.81 43.2717 -86.3801
8602.48 21.0089 -2349.93
8605.16 45.7462 -3078.19
8607.83 8.55281 257.474
8610.5 23.0916 -125.264
8613.18 31.2929 1255.22
8615.85 25.6812 2704.89
8618.53 14.3482 3335.44
8621.2 30.1824 -3620.03
8623.87 27.8534 -1528.52
8626.55 24.3537 579.16
8629.22 40.6115 -957.56
8631.89 24.3488 -2079.44
8634.56 36.0607 -1932.44
8637.23 37.8476 541.649
8639.91 27.7731 -556.796
8642.58 12.4247 -759.121
8645.25 13.0667 -1545.4
8647.92 11.8183 -2807.42
8650.59 14.0483 -21.932
8653.26 33.6819 -753.26
8655.93 20.4156 -2900.72
8658.6 22.2942 -2906.27
8661.27 16.7059 -1672.55
8663.94 16.3045 -556.189
8666.6 35.4574 -1111.51
8669.27 22.3049 600.682
8671.94 10.5658 -3007.32
8674.61 29.131 1752.65
8677.28 4.31093 -204.21
8679.94 -3.92641 9262.71
8682.61 27.8025 -10113.4
8685.28 10.2683 12619
8687.94 34.8013 -8974.28
8690.61 41.7134 1706.1
8693.27 33.6863 -3513.94
8695.94 29.5741 3160.2
8698.61 26.9265 2199.68
8701.27 23.0525 -4624.94
8703.93 47.7303 12954.2
8706.6 29.4999 -9707.24
8709.26 26.8353 -1152.9
8711.93 33.1773 246.851
8714.59 23.0716 4703.59
8717.25 27.9351 4100.47
8719.92 24.1403 -19920
8722.58 38.9725 21519.7
8725.24 43.5525 -3262.97
8727.9 32.7048 -15863.6
8730.57 25.7425 22432.3
8733.23 25.4046 -9783.19
8735.89 15.9483 -10361.9
8738.55 28.5096 8192.13
8741.21 13.655 21986.7
8743.87 35.9803 -46835.7
8746.53 43.3011 48982
8749.19 34.8535 -18264.5
8751.85 32.3703 -1657.88
8754.51 25.0982 636.589
8757.17 38.7889 4572.23
8759.83 48.6276 -18284.9
8762.48 27.501 45256
8765.14 40.9205 -74611.7
8767.8 56.1323 55641.8
8770.46 49.9059 -47240.1
8773.12 36.621 36490.4
8775.77 24.7499 -18617.1
8778.43 40.6405 -4940.61
8781.08 53.1926 20492.2
8783.74 28.405 -26590.1
8786.4 2.89419 20508.6
8789.05 45.4338 -8130.17
8791.71 27.746 -1425.09
8794.36 47.6539 10165.1
8797.02 31.034 11234
8799.67 33.8707 -29641.1
8802.33 25.1506 18846.5
8804.98 34.2268 -20122.4
8807.63 19.5551 4748.41
8810.29 36.0351 13813.3
8812.94 43.1313 -15425.3
8815.59 37.0587 -2624.81
8818.24 19.007 8185.65
8820.89 17.7593 -9138.38
8823.55 20.9959 2467.24
8826.2 56.4005 10452
8828.85 55.4033 -8624.92
8831.5 56.3443 -65077.1
8834.15 23.0392 79144.1
8836.8 38.2783 -20176.5
8839.45 52.158 -1358.81
8842.1 45.918 -21494.1
8844.75 23.4152 8208.33
8847.4 17.952 -9423.44
8850.05 25.2437 -6700.74
8852.7 33.0063 13027.6
8855.34 33.9295 -17091
8857.99 26.5643 6019.49
8860.64 32.4151 15693
8863.29 24.7785 -32899.3
8865.93 18.5495 3895.95
8868.58 43.923 10165.4
8871.23 42.1371 -18728.4
8873.87 27.1169 3931.79
8876.52 29.3498 -3237.75
8879.16 29.5502 -1243.59
8881.81 4.02197 12986.5
8884.45 21.8027 -1393.74
8887.1 63.31 14081.4
8889.74 38.2084 -5523.33
8892.39 29.2293 14192.8
8895.03 2.68907 6744.94
8897.67 9.83376 2542.91
8900.32 43.5582 -7392.33
8902.96 64.1032 2173.38
8905.6 7.06379 4624.54
8908.24 41.5774 3167.84
8910.89 26.9981 -14962
8913.53 26.0699 416.74
8916.17 16.8562 6483.59
8918.81 36.5298 -38674.3
8921.45 32.0706 21157
8924.09 29.5628 -6159.52
8926.73 33.2773 -35949.3
8929.37 5.42081 11696.7
8932.01 9.84074 18777
8934.65 24.3798 3351.6
8937.29 32.7871 -6098.74
8939.93 17.1002 10979.2
8942.56 42.1299 -16604.3
8945.2 35.22 10444.4
8947.84 30.5199 -11235.4
8950.48 23.3849 -1694.58
8953.11 5.5296 9339.39
8955.75 18.4726 10752.9
8958.39 47.8329 -19932.4
8961.02 78.8049 -10700.4
8963.66 54.2851 35835.4
8966.3 16.6387 -3527.1
