wavelength spectrum_sum 3smoothed_sum spectrum_optimal 3smoothed_optimal
3398.01 659.511 526.542 438.984 356.314
3400.93 920.116 881.223 629.958 603.572
3403.86 1064.04 1022.63 741.773 713.066
3406.79 1083.74 1112.49 767.467 772.817
3409.72 1189.68 1131.58 809.212 768.27
3412.65 1121.34 1135.85 728.133 756.609
3415.57 1096.54 1129.73 732.481 762.668
3418.5 1171.3 1147.61 827.39 785.696
3421.43 1174.98 1155.32 797.216 799.945
3424.36 1119.67 1175.11 775.228 813.412
3427.28 1230.68 1186.62 867.792 828.018
3430.21 1209.5 1173.91 841.033 846.781
3433.14 1081.56 1139.76 831.516 826.068
3436.07 1128.21 1199.87 805.654 879.208
3438.99 1389.84 1265.01 1000.45 910.94
3441.92 1276.99 1308.78 926.711 937.17
3444.85 1259.51 1283.17 884.345 897.831
3447.78 1313.02 1312.71 882.437 911.453
3450.7 1365.61 1329.16 967.576 918.464
3453.63 1308.85 1345.99 905.38 941.795
3456.56 1363.52 1328.63 952.43 950.524
3459.49 1313.54 1316.41 993.763 952.867
3462.41 1272.17 1322.94 912.409 969.862
3465.34 1383.11 1322.33 1003.41 956.905
3468.27 1311.71 1322.02 954.892 949.509
3471.19 1271.24 1274.82 890.221 906.04
3474.12 1241.5 1262.42 873.007 900.777
3477.05 1274.51 1295.43 939.104 944.467
3479.97 1370.27 1328.5 1021.29 970.411
3482.9 1340.71 1337.03 950.84 970.938
3485.83 1300.1 1323.59 940.685 954.902
3488.75 1329.97 1315.84 973.182 964.923
3491.68 1317.47 1316.34 980.904 981.661
3494.61 1301.59 1329.69 990.897 1000.88
3497.53 1370.02 1370.09 1030.83 1019.47
3500.46 1438.65 1391.18 1036.67 1018.9
3503.39 1364.87 1420.14 989.189 1028.83
3506.31 1456.91 1425.58 1060.63 1055.82
3509.24 1454.97 1528.5 1117.65 1142.22
3512.17 1673.61 1538.75 1248.37 1163.55
3515.09 1487.65 1544.88 1124.63 1139.31
3518.02 1473.38 1479.24 1044.94 1067.81
3520.94 1476.68 1505.01 1033.85 1082.77
3523.87 1564.98 1554.31 1169.51 1130.27
3526.8 1621.27 1591.8 1187.44 1178.26
3529.72 1589.15 1632.14 1177.83 1219.75
3532.65 1685.99 1669.6 1293.98 1243.46
3535.57 1733.66 1639.76 1258.56 1246.94
3538.5 1499.61 1621.65 1188.27 1223.85
3541.43 1631.69 1594.63 1224.73 1214.05
3544.35 1652.59 1628.36 1229.15 1227.21
3547.28 1600.8 1635.4 1227.74 1245.9
3550.2 1652.82 1613.54 1280.81 1221.78
3553.13 1586.99 1647.49 1156.8 1242.96
3556.05 1702.65 1679.25 1291.29 1235.17
3558.98 1748.11 1692.33 1257.44 1257.08
3561.91 1626.23 1643.53 1222.51 1219.29
3564.83 1556.24 1597.68 1177.93 1211.19
3567.76 1610.58 1601.01 1233.14 1229.11
3570.68 1636.22 1605.23 1276.26 1217.15
3573.61 1568.89 1609.05 1142.06 1225.11
3576.53 1622.05 1611.31 1257.02 1221.2
3579.46 1642.98 1650.28 1264.52 1279.98
3582.38 1685.82 1688.93 1318.4 1315.06
3585.31 1737.98 1724.69 1362.27 1343.17
3588.23 1750.28 1715.72 1348.82 1326.79
3591.16 1658.89 1732.88 1269.28 1334.93
3594.08 1789.46 1701.56 1386.7 1314.06
3597.01 1656.33 1721.89 1286.19 1343.46
3599.93 1719.88 1684.13 1357.5 1327.21
3602.86 1676.18 1734.23 1337.93 1368.34
3605.78 1806.64 1771.44 1409.59 1405.68
3608.71 1831.51 1799.42 1469.51 1415.53
3611.63 1760.1 1763.55 1367.5 1389.49
3614.56 1699.03 1771.35 1331.46 1368.64
3617.48 1854.93 1851.3 1406.96 1413.44
3620.41 1999.94 1880.07 1501.9 1436.48
3623.33 1785.35 1877.69 1400.57 1434.72
3626.25 1847.78 1818 1401.68 1425.63
3629.18 1820.87 1881.38 1474.65 1457.22
3632.1 1975.48 1954.11 1495.34 1534.37
3635.03 2065.97 1976.05 1633.11 1535.59
3637.95 1886.69 1957.56 1478.33 1525.97
3640.88 1920.03 1893.01 1466.47 1470.9
3643.8 1872.32 1975.29 1467.9 1534.72
3646.72 2133.52 2024.74 1669.79 1572.55
3649.65 2068.37 2078.9 1579.95 1592.68
3652.57 2034.82 2027.46 1528.31 1535.85
3655.5 1979.2 2005.23 1499.29 1519.43
3658.42 2001.66 2038.7 1530.69 1559.06
3661.34 2135.25 2073.13 1647.19 1582.28
3664.27 2082.5 2082.63 1568.98 1601.81
3667.19 2030.16 2051.37 1589.28 1550.85
3670.11 2041.46 2106.15 1494.28 1597.25
3673.04 2246.84 2148.56 1708.19 1598.27
3675.96 2157.4 2177.57 1592.35 1645.34
3678.89 2128.47 2128.87 1635.48 1632.36
3681.81 2100.74 2137 1669.24 1663.51
3684.73 2181.78 2178.26 1685.82 1715.61
3687.66 2252.27 2190.03 1791.77 1721.85
3690.58 2136.02 2176.5 1687.97 1725.06
3693.5 2141.19 2178.96 1695.45 1718.08
3696.43 2259.67 2252.97 1770.82 1764.57
3699.35 2358.05 2293.24 1827.44 1807.28
3702.27 2262 2394.34 1823.59 1920.01
3705.2 2562.98 2403.31 2108.99 1955.57
3708.12 2384.95 2452.4 1934.12 1975.58
3711.04 2409.25 2433.52 1883.64 1935.46
3713.96 2506.36 2458.64 1988.62 1962.06
3716.89 2460.29 2452.27 2013.92 1954.79
3719.81 2390.15 2435.86 1861.81 1961.83
3722.73 2457.13 2464.52 2009.76 1953.5
3725.66 2546.28 2481.09 1988.94 1997.5
3728.58 2439.85 2524.58 1993.81 1993.3
3731.5 2587.62 2563.32 1997.16 2050.63
3734.42 2662.49 2638.09 2160.93 2100.67
3737.35 2664.15 2687.88 2143.91 2152.47
3740.27 2737.01 2676.29 2152.56 2110.55
3743.19 2627.7 2678.37 2035.19 2122.99
3746.11 2670.39 2718.37 2181.22 2171.51
3749.04 2857 2776.32 2298.12 2235.44
3751.96 2801.57 2783.33 2226.98 2230
3754.88 2691.42 2747.95 2164.89 2181.28
3757.8 2750.88 2659.89 2151.95 2091.4
3760.72 2537.37 2648.18 1957.36 2073.88
3763.65 2656.3 2641.73 2112.33 2088.97
3766.57 2731.53 2660.35 2197.21 2132.72
3769.49 2593.21 2605.5 2088.61 2115.48
3772.41 2491.76 2529.24 2060.63 2064.8
3775.33 2502.76 2546.96 2045.16 2071.17
3778.26 2646.36 2609.46 2107.72 2088.45
3781.18 2679.27 2677.09 2112.47 2147.76
3784.1 2705.64 2653.71 2223.09 2145.67
3787.02 2576.21 2657.05 2101.45 2161.29
3789.94 2689.32 2654.57 2159.33 2138.87
3792.87 2698.2 2711.47 2155.83 2172.78
3795.79 2746.89 2774.12 2203.17 2227.93
3798.71 2877.28 2811.97 2324.8 2259.29
3801.63 2811.73 2888.85 2249.91 2319.81
3804.55 2977.56 2844.22 2384.73 2312.89
3807.47 2743.39 2864.08 2304.05 2358.04
3810.39 2871.28 2882.86 2385.35 2371.72
3813.32 3033.91 2985.56 2425.75 2429.64
3816.24 3051.48 3041.58 2477.82 2453.33
3819.16 3039.37 3012.21 2456.41 2452.48
3822.08 2945.79 2992.62 2423.2 2436.07
3825 2992.71 2977.54 2428.59 2422.78
3827.92 2994.11 2982.22 2416.54 2435.15
3830.84 2959.85 2971.8 2460.32 2443.06
3833.76 2961.44 2974.91 2452.32 2438.31
3836.68 3003.43 3002.73 2402.3 2445.06
3839.6 3043.33 3106.64 2480.55 2519.37
3842.52 3273.16 3162.71 2675.27 2577.09
3845.45 3171.63 3301.45 2575.45 2721.59
3848.37 3459.54 3306.69 2914.04 2759.57
3851.29 3288.89 3371.75 2789.22 2832.12
3854.21 3366.83 3331.09 2793.1 2799.15
3857.13 3337.54 3358.82 2815.12 2830.64
3860.05 3372.1 3383.49 2883.68 2817.76
3862.97 3440.83 3426.58 2754.46 2842.02
3865.89 3466.82 3449.97 2887.92 2818.62
3868.81 3442.26 3433.36 2813.48 2836.86
3871.73 3391.01 3341.54 2809.17 2763.31
3874.65 3191.35 3222.29 2667.3 2690.05
3877.57 3084.52 3102.62 2593.68 2592.36
3880.49 3031.98 2987.51 2516.12 2475.16
3883.41 2846.04 2871.06 2315.68 2387.53
3886.33 2735.15 2876.37 2330.78 2393.57
3889.25 3047.93 2904.61 2534.26 2444
3892.17 2930.75 3046.33 2466.96 2570.33
3895.09 3160.3 3094.35 2709.77 2649.98
3898.01 3192.01 3287.95 2773.21 2814.97
3900.93 3511.54 3409.86 2961.93 2902.5
3903.85 3526.03 3620.59 2972.37 3032.48
3906.77 3824.2 3644.43 3163.13 3069.48
3909.69 3583.05 3738.28 3072.94 3178.46
3912.61 3807.59 3823.51 3299.3 3265.08
3915.53 4079.88 3964.9 3422.98 3397.33
3918.45 4007.23 4128.84 3469.69 3507.35
3921.36 4299.41 4227.99 3629.38 3591.78
3924.28 4377.34 4341.74 3676.27 3685.83
3927.2 4348.49 4333.37 3751.85 3677.9
3930.12 4274.29 4286.85 3605.57 3666.22
3933.04 4237.78 4254.92 3641.23 3612.96
3935.96 4252.7 4217.28 3592.09 3591.13
3938.88 4161.36 4132.75 3540.08 3510.83
3941.8 3984.19 4024.34 3400.31 3415.84
3944.72 3927.47 3944.87 3307.13 3315.13
3947.64 3922.95 3881.03 3237.96 3265.25
3950.56 3792.67 3769.78 3250.66 3179.36
3953.47 3593.72 3559.69 3049.47 3006.44
3956.39 3292.67 3368.23 2719.19 2850.11
3959.31 3218.31 3184.13 2781.68 2679.62
3962.23 3041.41 3021.11 2537.98 2572.2
3965.15 2803.62 2887.59 2396.93 2440.44
3968.07 2817.74 2868.87 2386.39 2433.25
3970.99 2985.26 2966.71 2516.41 2529
3973.9 3097.13 3078.74 2684.18 2641.19
3976.82 3153.84 3199.99 2722.97 2813.07
3979.74 3349.01 3359.48 3032.07 2966.44
3982.66 3575.6 3516.57 3144.29 3083.21
3985.58 3625.11 3735.86 3073.25 3254.2
3988.49 4006.88 3885.43 3545.05 3351.69
3991.41 4024.3 4115.44 3436.77 3565.9
3994.33 4315.14 4249.93 3715.87 3655.7
3997.25 4410.36 4491.05 3814.46 3884.72
4000.17 4747.66 4694.49 4123.83 4029.6
4003.08 4925.46 4896.23 4150.5 4213.76
4006 5015.57 4968.75 4366.94 4295.85
4008.92 4965.22 5009.35 4370.1 4389.33
4011.84 5047.27 5019.79 4430.96 4400.9
4014.76 5046.88 5145.96 4401.64 4471.04
4017.67 5343.74 5306.04 4580.52 4547.74
4020.59 5527.5 5442.81 4661.04 4694.82
4023.51 5457.17 5555.03 4842.9 4791.08
4026.42 5680.43 5572.93 4869.29 4868.65
4029.34 5581.21 5632.7 4893.76 4872.26
4032.26 5636.46 5606.87 4853.74 4899.25
4035.18 5602.96 5629.89 4950.26 4939.12
4038.09 5650.25 5683.82 5013.36 4996.5
4041.01 5798.25 5631.02 5025.9 4958.7
4043.93 5444.57 5627.19 4836.86 4892.38
4046.85 5638.74 5545.51 4814.39 4854.67
4049.76 5553.23 5555.75 4912.75 4857.89
4052.68 5475.28 5498.6 4846.52 4838.23
4055.6 5467.27 5466.32 4755.4 4798.5
4058.51 5456.41 5405.98 4793.58 4669.99
4061.43 5294.25 5352.86 4460.97 4619.24
4064.35 5307.92 5160.72 4603.16 4465.04
4067.26 4880 5054.33 4330.99 4409.69
4070.18 4975.07 4945.5 4294.93 4331.88
4073.1 4981.44 4905.6 4369.73 4272.53
4076.01 4760.31 4810.15 4152.92 4210.44
4078.93 4688.69 4630.86 4108.66 4062.69
4081.84 4443.57 4435.73 3926.48 3897.64
4084.76 4174.94 4154.12 3657.77 3660.54
4087.68 3843.84 3881.18 3397.37 3383.01
4090.59 3624.75 3637.45 3093.89 3165.86
4093.51 3443.77 3437.11 3006.31 2925.35
4096.43 3242.82 3247.34 2675.86 2761.96
4099.34 3055.44 3176.44 2603.71 2693.05
4102.26 3231.07 3204.77 2799.57 2784.49
4105.17 3327.8 3281.34 2950.2 2880.97
4108.09 3285.15 3435.87 2893.15 3046.4
4111.01 3694.65 3610.41 3295.86 3195.56
4113.92 3851.42 3831.71 3397.68 3437.57
4116.84 3949.06 3987.8 3619.17 3576.39
4119.75 4162.92 4200.81 3712.32 3784.73
4122.67 4490.45 4475.73 4022.7 3963.91
4125.58 4773.81 4657.78 4156.72 4102.78
4128.5 4709.07 4767.81 4128.92 4231.02
4131.41 4820.55 4870.59 4407.41 4371.04
4134.33 5082.13 5044.65 4576.79 4616.25
4137.24 5231.28 5267.3 4864.56 4781.68
4140.16 5488.48 5476.23 4903.7 4962.21
4143.07 5708.92 5622.49 5118.38 5056.5
4145.99 5670.08 5767.47 5147.43 5247.49
4148.91 5923.4 5868.4 5476.65 5360.7
4151.82 6011.72 6062.72 5458.03 5535.02
4154.73 6253.05 6156.52 5670.38 5590.32
4157.65 6204.79 6297.53 5642.54 5723.38
4160.56 6434.75 6320.93 5857.23 5719.38
4163.48 6323.26 6510.11 5658.36 5852.34
4166.39 6772.32 6650.75 6041.43 5982.97
4169.31 6856.67 6842.37 6249.12 6142.78
4172.22 6898.12 6891.76 6137.79 6189.13
4175.14 6920.49 6970.74 6180.49 6226.9
4178.05 7093.6 6974.88 6362.44 6301
4180.97 6910.54 7005.01 6360.08 6357.71
4183.88 7010.88 7011.34 6350.62 6428.76
4186.8 7112.59 7114.73 6575.58 6482.85
4189.71 7220.74 7243.56 6522.36 6609.5
4192.62 7397.37 7274.17 6730.56 6652.09
4195.54 7204.41 7275.56 6703.36 6655.33
4198.45 7224.9 7272.38 6532.08 6688.12
4201.37 7387.81 7358.93 6828.92 6708.9
4204.28 7464.08 7396.46 6765.71 6774.59
4207.19 7337.49 7483.33 6729.14 6806.69
4210.11 7648.43 7457.35 6925.23 6814.27
4213.02 7386.12 7559.89 6788.45 6867.46
4215.93 7645.13 7427.28 6888.71 6766.25
4218.85 7250.58 7489.76 6621.59 6819.05
4221.76 7573.58 7471.96 6946.86 6815.92
4224.68 7591.73 7664.48 6879.3 6946.21
4227.59 7828.12 7608.62 7012.47 6916.56
4230.5 7406.02 7532.31 6857.91 6925.16
4233.42 7362.8 7428.79 6905.1 6897.12
4236.33 7517.55 7475.6 6928.35 6936.35
4239.24 7546.43 7514 6975.6 6918.43
4242.16 7478.02 7458.04 6851.34 6852.59
4245.07 7349.66 7510.61 6730.85 6907.29
4247.98 7704.16 7547.39 7139.69 6945.66
4250.89 7588.34 7604.67 6966.45 7004.4
4253.81 7521.5 7570.04 6907.05 6904.16
4256.72 7600.27 7513.3 6838.98 6867.34
4259.63 7418.14 7550.44 6855.99 6865.57
4262.55 7632.9 7534.64 6901.73 6869.02
4265.46 7552.88 7546.25 6849.34 6854.75
4268.37 7452.95 7472.33 6813.19 6856.35
4271.28 7411.15 7331.95 6906.52 6792.16
4274.2 7131.74 7239.54 6656.77 6753.49
4277.11 7175.72 7147.73 6697.18 6648.93
4280.02 7135.73 7167.86 6592.85 6646.65
4282.93 7192.14 7133.56 6649.93 6565.79
4285.85 7072.81 7036.89 6454.59 6474.9
4288.76 6845.72 6859.2 6320.18 6318.17
4291.67 6659.08 6685.03 6179.75 6218.72
4294.58 6550.29 6556.48 6156.23 6125.62
4297.49 6460.08 6478.07 6040.89 6082.65
4300.41 6423.85 6375.16 6050.83 5933.55
4303.32 6241.57 6236.87 5708.94 5781.18
4306.23 6045.2 5998.88 5583.79 5547.33
4309.14 5709.86 5820.43 5349.26 5454.3
4312.05 5706.22 5659.7 5429.84 5300.35
4314.97 5563.02 5524.09 5121.96 5096.01
4317.88 5303.04 5357.48 4736.24 4867.03
4320.79 5206.39 5153.66 4742.9 4656.03
4323.7 4951.56 4952.51 4488.94 4503.23
4326.61 4699.57 4698.28 4277.85 4235.82
4329.52 4443.72 4443.11 3940.68 3949.17
4332.43 4186.05 4166.2 3628.99 3649.61
4335.35 3868.82 3921.29 3379.15 3474.27
4338.26 3709 3784.05 3414.66 3391.23
4341.17 3774.34 3765.15 3379.88 3400
4344.08 3812.1 3760.99 3405.46 3464.19
4346.99 3696.53 3938.65 3607.21 3661.47
4349.9 4307.33 4062.36 3971.74 3876
4352.81 4183.22 4412.66 4049.05 4117.71
4355.72 4747.43 4593.52 4332.34 4319.89
4358.63 4849.91 4826.53 4578.28 4526.37
4361.54 4882.24 4961.51 4668.49 4703.41
4364.45 5152.38 5139 4863.45 4903.85
4367.36 5382.37 5396.92 5179.62 5175.13
4370.28 5655.99 5614.41 5482.31 5412.26
4373.19 5804.86 5799.72 5574.85 5553.05
4376.1 5938.32 5970.74 5602 5685.4
4379.01 6169.03 6133.46 5879.34 5852.61
4381.92 6293.02 6310.94 6076.5 6051.01
4384.83 6470.78 6493.11 6197.21 6233.54
4387.74 6715.54 6634.78 6426.92 6327.94
4390.65 6718.01 6736.07 6359.69 6413
4393.56 6774.66 6875.88 6452.38 6519.1
4396.47 7134.97 7026.75 6745.21 6670.04
4399.38 7170.63 7183.15 6812.51 6852.4
4402.29 7243.85 7279.53 6999.49 6960.58
4405.2 7424.11 7365.93 7069.73 7086.09
4408.11 7429.81 7460.02 7189.05 7171.01
4411.02 7526.15 7512.42 7254.24 7254.54
4413.93 7581.31 7609.47 7320.32 7325.52
4416.83 7720.96 7677.65 7402 7349.37
4419.74 7730.68 7713.87 7325.79 7404.87
4422.65 7689.97 7721.78 7486.84 7424.04
4425.56 7744.69 7726.97 7459.5 7490.6
4428.47 7746.23 7829.46 7525.46 7520.86
4431.38 7997.46 7904.45 7577.63 7608.56
4434.29 7969.65 7955.82 7722.6 7668.4
4437.2 7900.36 7969.99 7704.97 7720.59
4440.11 8039.97 7999.78 7734.18 7741.28
4443.02 8059.01 8033.73 7784.68 7769.7
4445.93 8002.2 7965.46 7790.23 7721.59
4448.84 7835.16 8019.33 7589.87 7769.09
4451.74 8220.63 8076.6 7927.17 7806.13
4454.65 8174.02 8143.73 7901.34 7892.84
4457.56 8036.53 8109.93 7850.01 7895.1
4460.47 8119.25 8118.14 7933.94 7915.73
4463.38 8198.65 8195.73 7963.25 7931.66
4466.29 8269.29 8264.94 7897.78 7982.7
4469.19 8326.89 8196.11 8087.08 7913.65
4472.1 7992.14 8110.22 7756.09 7923.87
4475.01 8011.61 8000.38 7928.43 7829.41
4477.92 7997.39 8082.31 7803.72 7910.63
4480.83 8237.94 8193.12 7999.75 8010.03
4483.74 8344.03 8301.69 8226.62 8110.37
4486.64 8323.11 8367.09 8104.73 8168.1
4489.55 8434.12 8418.35 8172.94 8151.76
4492.46 8497.82 8433.72 8177.62 8167.1
4495.37 8369.22 8474.82 8150.75 8258.31
4498.27 8557.42 8465.66 8446.57 8293.33
4501.18 8470.34 8417.58 8282.66 8297.14
4504.09 8224.98 8366.78 8162.19 8206.78
4507 8405.03 8393.78 8175.5 8187.83
4509.9 8551.33 8482.46 8225.8 8209.59
4512.81 8491.02 8502.66 8227.46 8237.76
4515.72 8465.63 8401.46 8260 8244.85
4518.63 8247.72 8429.22 8247.09 8323.38
4521.53 8574.3 8408.87 8463.05 8344.86
4524.44 8404.59 8487.6 8324.45 8401.94
4527.35 8483.9 8360.47 8418.33 8305.16
4530.26 8192.91 8404.61 8172.7 8300.65
4533.16 8537.01 8356.73 8310.91 8206.79
4536.07 8340.28 8398.54 8136.76 8275.83
4538.98 8318.33 8308.06 8379.81 8194.83
4541.88 8265.57 8299.86 8067.9 8205.68
4544.79 8315.68 8309.3 8169.32 8222.04
4547.7 8346.65 8359.17 8428.89 8342.09
4550.6 8415.19 8379.17 8428.06 8358.76
4553.51 8375.67 8399.2 8219.32 8348.14
4556.41 8406.75 8470.69 8397.04 8357.58
4559.32 8629.65 8472.13 8456.38 8397.35
4562.23 8380.01 8451.84 8338.64 8335.65
4565.13 8345.85 8377.55 8211.93 8291.55
4568.04 8406.8 8412.58 8324.08 8304.56
4570.95 8485.1 8442.46 8377.66 8392.94
4573.85 8435.49 8490.51 8477.08 8414.31
4576.76 8550.95 8549.7 8388.18 8472.82
4579.66 8662.66 8507.93 8553.21 8438.14
4582.57 8310.19 8481.59 8373.05 8505.44
4585.47 8471.9 8426.71 8590.07 8418.47
4588.38 8498.03 8388.51 8292.3 8387.9
4591.29 8195.59 8401.48 8281.33 8347.57
4594.19 8510.83 8526.16 8469.06 8430.85
4597.1 8872.07 8596.23 8542.17 8462.28
4600 8405.77 8597.49 8375.62 8441.49
4602.91 8514.64 8533.69 8406.67 8514.75
4605.81 8680.66 8568.11 8761.94 8527.09
4608.72 8509.04 8532.36 8412.67 8560.37
4611.62 8407.37 8489.69 8506.49 8437.82
4614.53 8552.64 8468.07 8394.31 8483.84
4617.43 8444.2 8409.26 8550.74 8460.88
4620.34 8230.95 8370.23 8437.61 8489.26
4623.24 8435.55 8384.04 8479.44 8442.46
4626.15 8485.61 8383.3 8410.32 8421.18
4629.05 8228.73 8408.47 8373.78 8441.7
4631.96 8511.08 8406.57 8540.99 8455.66
4634.86 8479.89 8466.3 8452.2 8551.72
4637.77 8407.92 8438.21 8661.99 8547.78
4640.67 8426.8 8359.48 8529.15 8539.15
4643.57 8243.71 8282.53 8426.31 8403.17
4646.48 8177.08 8292.82 8254.05 8410.17
4649.38 8457.66 8326.8 8550.15 8439.06
4652.29 8345.67 8471.61 8512.98 8547.35
4655.19 8611.5 8550.71 8578.92 8634.62
4658.09 8694.96 8584.49 8811.95 8697.12
4661 8447.01 8551.9 8700.5 8762.61
4663.9 8513.73 8515.26 8775.39 8734.09
4666.81 8585.03 8522.22 8726.39 8693.34
4669.71 8467.9 8544.08 8578.24 8660.73
4672.61 8579.3 8520.62 8677.56 8616.22
4675.52 8514.66 8517.67 8592.87 8730.28
4678.42 8459.04 8395.91 8920.41 8669.42
4681.32 8214.03 8292.07 8494.97 8638.4
4684.23 8203.15 8364.28 8499.81 8568.03
4687.13 8675.67 8424.23 8709.29 8603.76
4690.03 8393.87 8476.52 8602.17 8631.31
4692.94 8360.03 8358.35 8582.47 8562.77
4695.84 8321.16 8329.25 8503.68 8529.9
4698.74 8306.57 8325.3 8503.56 8555.63
4701.65 8348.16 8440.4 8659.64 8688.95
4704.55 8666.46 8413.93 8903.67 8693.26
4707.45 8227.16 8406.23 8516.49 8710.3
4710.35 8325.07 8401.76 8710.76 8685.02
4713.26 8653.05 8421.67 8827.82 8738.12
4716.16 8286.9 8365.87 8675.77 8705.33
4719.06 8157.65 8310.33 8612.39 8656.42
4721.96 8486.43 8308.11 8681.1 8575.35
4724.87 8280.25 8295.7 8432.56 8580.58
4727.77 8120.41 8167.02 8628.09 8526.61
4730.67 8100.41 8163.95 8519.19 8557.61
4733.57 8271.03 8149.91 8525.55 8443.18
4736.48 8078.29 8068.77 8284.8 8345.81
4739.38 7857 8028.54 8227.08 8338.33
4742.28 8150.34 8014.75 8503.1 8372.79
4745.18 8036.91 8045.07 8388.2 8403.58
4748.08 7947.97 7971.63 8319.43 8312.71
4750.98 7930.02 7924.38 8230.5 8280.16
4753.89 7895.14 7885.45 8290.54 8243.69
4756.79 7831.2 7868.66 8210.03 8194.62
4759.69 7879.62 7890.03 8083.28 8209.09
4762.59 7959.27 7868.66 8333.96 8203.74
4765.49 7767.1 7809.91 8193.97 8163.28
4768.39 7703.35 7703.1 7961.9 8029.99
4771.29 7638.84 7576.62 7934.08 7945.26
4774.2 7387.66 7536.55 7939.79 7974.79
4777.1 7583.17 7533.66 8050.51 8040.98
4780 7630.16 7548.18 8132.65 7953.5
4782.9 7431.23 7485.33 7677.34 7830.45
4785.8 7394.59 7445.62 7681.36 7753.37
4788.7 7511.04 7350.3 7901.4 7709.93
4791.6 7145.27 7284 7547.04 7655.74
4794.5 7195.68 7077.47 7518.78 7471.53
4797.4 6891.46 6971.15 7348.77 7356.64
4800.3 6826.31 6951.72 7202.37 7275.1
4803.2 7137.39 7010.54 7274.17 7280.88
4806.1 7067.92 6985.98 7366.12 7240.27
4809 6752.64 6812.05 7080.52 7120.57
4811.9 6615.57 6555.56 6915.06 6950.13
4814.8 6298.46 6433.82 6854.81 6774.87
4817.7 6387.42 6418.14 6554.73 6693.73
4820.6 6568.53 6324.97 6671.66 6519.56
4823.5 6018.98 6138.82 6332.27 6421.93
4826.4 5828.97 5932.32 6261.87 6225.68
4829.3 5949.02 5775.78 6082.91 6066.54
4832.2 5549.35 5650.77 5854.84 5930.38
4835.1 5453.93 5428.19 5853.38 5761.76
4838 5281.28 5213.09 5577.05 5636.59
4840.9 4904.06 5110.59 5479.33 5466.48
4843.8 5146.42 4991.88 5343.06 5313.01
4846.7 4925.15 4869.33 5116.63 5125
4849.6 4536.43 4673.55 4915.31 4936.9
4852.5 4559.09 4351.46 4778.75 4642.8
4855.4 3958.85 4137.47 4234.33 4359.32
4858.3 3894.48 3881.01 4064.87 4065.09
4861.19 3789.69 3790.44 3896.06 3992.11
4864.09 3687.15 3757.01 4015.39 4053.13
4866.99 3794.18 3860.73 4247.93 4306.2
4869.89 4100.86 4103.99 4655.27 4516.11
4872.79 4416.94 4338.75 4645.14 4706.19
4875.69 4498.46 4521.41 4818.15 4853.99
4878.59 4648.83 4702.29 5098.69 5074.25
4881.48 4959.57 4873.31 5305.89 5319.95
4884.38 5011.52 5053.45 5555.26 5501.64
4887.28 5189.26 5145.34 5643.77 5654.48
4890.18 5235.25 5261.65 5764.4 5809.66
4893.08 5360.43 5417.77 6020.8 5976.88
4895.97 5657.62 5584.99 6145.45 6138.5
4898.87 5736.92 5728.77 6249.24 6258.06
4901.77 5791.79 5823.9 6379.5 6393.27
4904.67 5942.99 5968.18 6551.08 6534.26
4907.57 6169.75 6037.71 6672.22 6636.17
4910.46 6000.39 6170.58 6685.22 6757.68
4913.36 6341.59 6218.86 6915.62 6878.65
4916.26 6314.58 6471.89 7035.13 7066.98
4919.16 6759.51 6678.05 7250.2 7233.34
4922.05 6960.07 6836.83 7414.68 7270.96
4924.95 6790.91 6908.49 7148.01 7340.62
4927.85 6974.48 6898.47 7459.18 7327.59
4930.74 6930.02 7014.97 7375.58 7504.83
4933.64 7140.42 7079.2 7679.72 7627.24
4936.54 7167.16 7166.5 7826.43 7800.48
4939.43 7191.91 7163.75 7895.29 7851.99
4942.33 7132.19 7123.65 7834.26 7812.85
4945.23 7046.84 7021.57 7709 7759.54
4948.12 6885.67 7069.7 7735.36 7784.64
4951.02 7276.59 7119.93 7909.55 7870.95
4953.92 7197.52 7233.17 7967.95 7960.74
4956.81 7225.4 7160.92 8004.71 7966.83
4959.71 7059.84 7212.71 7927.83 8010.76
4962.61 7352.89 7238.73 8099.74 8016.64
4965.5 7303.45 7383.21 8022.35 8094.99
4968.4 7493.28 7433.5 8162.87 8187.19
4971.29 7503.76 7574.75 8376.36 8323.82
4974.19 7727.21 7532.06 8432.22 8305.56
4977.09 7365.21 7469.12 8108.09 8229.67
4979.98 7314.94 7336.6 8148.69 8131.23
4982.88 7329.64 7450.75 8136.9 8265.62
4985.77 7707.68 7524.91 8511.29 8338.23
4988.67 7537.42 7648.06 8366.5 8423.18
4991.56 7699.1 7591.3 8391.74 8352.01
4994.46 7537.37 7612.9 8297.79 8359.08
4997.35 7602.23 7615.07 8387.72 8413.66
5000.25 7705.6 7605.39 8555.46 8426.68
5003.14 7508.34 7615.77 8336.87 8479.57
5006.04 7633.37 7567.32 8546.38 8461.69
5008.93 7560.25 7652.31 8501.81 8558.75
5011.83 7763.3 7696.45 8628.06 8611.07
5014.72 7765.81 7659.65 8703.34 8624.19
5017.62 7449.85 7737.57 8541.16 8625.6
5020.51 7997.04 7677.58 8632.3 8507.01
5023.41 7585.84 7797.99 8347.58 8529.52
5026.3 7811.11 7620.18 8608.67 8445.24
5029.2 7463.59 7686.09 8379.45 8512.52
5032.09 7783.57 7652.27 8549.44 8515.88
5034.98 7709.66 7687.2 8618.75 8574.72
5037.88 7568.36 7684.71 8555.97 8544.63
5040.77 7776.1 7651.37 8459.18 8458.93
5043.67 7609.66 7745.21 8361.64 8495.85
5046.56 7849.87 7738.99 8666.72 8497.77
5049.45 7757.44 7835.63 8464.96 8616.15
5052.35 7899.57 7876.92 8716.78 8648.91
5055.24 7973.76 7897.24 8765 8713.32
5058.13 7818.39 7902.56 8658.18 8711.25
5061.03 7915.53 7831.62 8710.57 8710.14
5063.92 7760.93 7826.94 8761.67 8731.85
5066.81 7804.36 7772 8723.31 8727.69
5069.71 7750.71 7739.58 8698.09 8658.77
5072.6 7663.69 7733.34 8554.9 8638.4
5075.49 7785.63 7686.72 8662.2 8592
5078.39 7610.84 7755.16 8558.91 8646.42
5081.28 7869.02 7755.85 8718.15 8672.15
5084.17 7787.68 7906.47 8739.4 8767.07
5087.06 8062.7 7814.27 8843.68 8750.03
5089.96 7592.43 7830.64 8667.01 8778.27
5092.85 7836.78 7786.71 8824.12 8765.53
5095.74 7930.92 7843.48 8805.46 8774.78
5098.63 7762.75 7822.12 8694.75 8743.44
5101.53 7772.68 7778.73 8730.1 8739.8
5104.42 7800.76 7733.63 8794.56 8822.95
5107.31 7627.47 7702.04 8944.19 8798.81
5110.2 7677.89 7651.31 8657.67 8753.46
5113.09 7648.59 7757.03 8658.52 8683.95
5115.99 7944.6 7741.22 8735.67 8685.51
5118.88 7630.47 7740.35 8662.35 8652.24
5121.77 7645.98 7722.33 8558.71 8666.82
5124.66 7890.53 7743.19 8779.42 8724.31
5127.55 7693.07 7759.79 8834.8 8733.78
5130.44 7695.75 7619.71 8587.11 8676.83
5133.34 7470.31 7655.61 8608.56 8650.2
5136.23 7800.76 7663.9 8754.94 8669.47
5139.12 7720.64 7725.71 8644.91 8717.8
5142.01 7655.74 7702.81 8753.56 8726.84
5144.9 7732.06 7649.42 8782.05 8737.94
5147.79 7560.46 7614.37 8678.21 8732.49
5150.68 7550.59 7616.47 8737.22 8678.49
5153.57 7738.38 7663.29 8620.05 8660.52
5156.46 7700.89 7656.08 8624.3 8657.69
5159.35 7528.96 7629.11 8728.73 8737.38
5162.24 7657.49 7474.28 8859.11 8654.97
5165.13 7236.39 7559.58 8377.07 8697.97
5168.02 7784.87 7509.09 8857.72 8649.58
5170.92 7506.01 7609.69 8713.96 8772.12
5173.81 7538.19 7503.5 8744.69 8693.48
5176.7 7466.3 7548.86 8621.78 8668.66
5179.59 7642.09 7566.58 8639.51 8658.13
5182.48 7591.35 7495.32 8713.09 8648.89
5185.36 7252.51 7410.9 8594.07 8623.29
5188.25 7388.82 7330.45 8562.72 8555.43
5191.14 7350 7436.37 8509.51 8597.49
5194.03 7570.28 7472.22 8720.24 8652.55
5196.92 7496.39 7547.18 8727.92 8686.84
5199.81 7574.87 7467.45 8612.36 8587.28
5202.7 7331.08 7496.42 8421.57 8600.11
5205.59 7583.29 7468.65 8766.39 8609.1
5208.48 7491.56 7493.05 8639.32 8684.43
5211.37 7404.29 7522.33 8647.56 8639.93
5214.26 7671.12 7531.31 8632.9 8604.7
5217.15 7518.5 7505.96 8533.64 8495.8
5220.04 7328.27 7463.12 8320.85 8428.28
5222.92 7542.6 7423.17 8430.35 8414.4
5225.81 7398.64 7381.06 8491.99 8431.48
5228.7 7201.96 7282.32 8372.08 8429.04
5231.59 7246.35 7238.76 8423.05 8391.65
5234.48 7267.97 7290.93 8379.81 8428.88
5237.37 7358.47 7374.8 8483.78 8420.05
5240.25 7497.97 7252.71 8396.56 8394.64
5243.14 6901.71 7159.96 8303.57 8308.24
5246.03 7080.2 7155.93 8224.58 8333.23
5248.92 7485.89 7279.31 8471.52 8343.17
5251.81 7271.85 7384.13 8333.39 8435.11
5254.69 7394.65 7263.16 8500.43 8404.73
5257.58 7122.98 7209.7 8380.38 8408.37
5260.47 7111.47 7169.49 8344.3 8399.07
5263.36 7274.03 7206.07 8472.53 8423.84
5266.24 7232.72 7288.59 8454.69 8419.94
5269.13 7359.02 7267.83 8332.6 8379.78
5272.02 7211.75 7286.88 8352.06 8368.16
5274.9 7289.86 7210.71 8419.82 8373.98
5277.79 7130.51 7180.63 8350.05 8386.01
5280.68 7121.5 7211.54 8388.16 8423.51
5283.56 7382.6 7178.43 8532.3 8374.8
5286.45 7031.21 7087.44 8203.95 8247.96
5289.34 6848.53 7070.01 8007.64 8222.29
5292.22 7330.31 7144.11 8455.28 8281.59
5295.11 7253.48 7278.52 8381.84 8375.74
5298 7251.76 7200.46 8290.12 8339.93
5300.88 7096.13 7196.63 8347.84 8337
5303.77 7242.01 7132.21 8373.04 8268.38
5306.65 7058.48 7139.65 8084.25 8285.1
5309.54 7118.47 7119.37 8398 8303.79
5312.43 7181.16 7153.4 8429.13 8319.07
5315.31 7160.58 7169.11 8130.09 8217.2
5318.2 7165.59 7109.62 8092.38 8110.17
5321.08 7002.69 7074.41 8108.04 8207.48
5323.97 7054.95 7031.73 8422.03 8292.15
5326.85 7037.54 6993.75 8346.38 8317.48
5329.74 6888.77 7026.14 8184.01 8257.42
5332.62 7152.1 6969.76 8241.86 8164.04
5335.51 6868.42 7057.62 8066.24 8107.98
5338.4 7152.35 7052.36 8015.82 8064.25
5341.28 7136.32 7056.11 8110.7 8053.67
5344.16 6879.67 6956.84 8034.48 8080.22
5347.05 6854.52 6873.1 8095.47 8083.79
5349.93 6885.12 6858.72 8121.42 8087.18
5352.82 6836.53 6932.12 8044.64 8118.19
5355.7 7074.7 7022.1 8188.52 8179.93
5358.59 7155.06 7081.12 8306.64 8215.83
5361.47 7013.58 6970.06 8152.32 8167.24
5364.36 6741.53 6927.77 8042.75 8112.83
5367.24 7028.19 6872.47 8143.41 8154.64
5370.12 6847.7 6980.88 8277.75 8184.23
5373.01 7066.77 7023.76 8131.53 8205.4
5375.89 7156.82 7080.71 8206.93 8164.48
5378.78 7018.53 7071.88 8154.99 8221.74
5381.66 7040.28 6947.39 8303.32 8171.75
5384.54 6783.37 6938.55 8056.93 8147.66
5387.43 6992 6765.3 8082.72 8034.94
5390.31 6520.53 6784.18 7965.17 8089.74
5393.19 6840.01 6818.42 8221.33 8123.41
5396.08 7094.72 6940.98 8183.73 8194.03
5398.96 6888.19 6938.41 8177.02 8172.45
5401.84 6832.3 6815.35 8156.61 8143.64
5404.72 6725.55 6677.24 8097.29 7999.86
5407.61 6473.88 6673.04 7745.67 7983.91
5410.49 6819.69 6737.94 8108.78 8008.33
5413.37 6920.25 6757.67 8170.54 8035.5
5416.25 6533.06 6716.48 7827.19 7968.37
5419.14 6696.14 6613.34 7907.4 7903.09
5422.02 6610.84 6703.11 7974.68 7944.36
5424.9 6802.36 6726.94 7951 7967.22
5427.78 6767.62 6790.79 7975.97 7968.85
5430.67 6802.39 6754.45 7979.59 7959.37
5433.55 6693.33 6848.24 7922.55 8033.71
5436.43 7049.01 6830.72 8199 8068.35
5439.31 6749.81 6823.56 8083.5 8073.21
5442.19 6671.88 6719 7937.14 7994.03
5445.07 6735.32 6765.67 7961.46 8009.69
5447.96 6889.82 6733.77 8130.47 8016.72
5450.84 6576.18 6773.94 7958.24 8025.62
5453.72 6855.8 6654.24 7988.16 7918.81
5456.6 6530.72 6634.25 7810.03 7830.97
5459.48 6516.23 6596.32 7694.72 7820.43
5462.36 6742.01 6676.86 7956.53 7891.99
5465.24 6772.34 6832.69 8024.72 8018.45
5468.12 6983.72 6766.62 8074.09 7936.53
5471 6543.81 6750.56 7710.79 8002.76
5473.88 6724.15 6678.03 8223.39 7935.65
5476.76 6766.13 6714.19 7872.76 7998.44
5479.64 6652.28 6753.92 7899.18 7902.91
5482.52 6843.35 6724.55 7936.8 7861.69
5485.4 6678.01 6720.14 7749.08 7886.72
5488.28 6639.06 6664.44 7974.27 7837.67
5491.16 6676.24 6710.18 7789.67 7869
5494.04 6815.23 6615.47 7843.07 7788.33
5496.92 6354.92 6636.13 7732.25 7876.69
5499.8 6738.24 6529.64 8054.76 7880.33
5502.68 6495.76 6601.54 7853.97 7912.92
5505.56 6570.63 6593.82 7830.03 7844.83
5508.44 6715.05 6640.31 7850.5 7821.38
5511.32 6635.23 6609.54 7783.61 7745.74
5514.2 6478.33 6516.07 7603.1 7696.33
5517.08 6434.64 6505.8 7702.29 7739.79
5519.96 6604.43 6544.53 7913.97 7802.61
5522.84 6594.51 6562.58 7791.59 7827.84
5525.72 6488.8 6615.37 7777.95 7862.04
5528.59 6762.8 6596.65 8016.59 7863.63
5531.47 6538.34 6565.58 7796.33 7918.39
5534.35 6395.6 6530.53 7942.25 7888.61
5537.23 6657.65 6545.14 7927.25 7942.65
5540.11 6582.18 6620.29 7958.44 7912.25
5542.99 6621.04 6616.08 7851.06 7888.44
5545.86 6645.01 6626.73 7855.8 7839.71
5548.74 6614.13 6657.24 7812.27 7798.65
5551.62 6712.58 6548.14 7727.88 7777.47
5554.5 6317.7 6473.84 7792.26 7698.39
5557.37 6391.23 6407.66 7575.02 7750.1
5560.25 6514.04 6439.98 7883.03 7733.86
5563.13 6414.67 6461.8 7743.54 7746.7
5566.01 6456.68 6472.41 7613.53 7727.22
5568.88 6545.87 6504.39 7824.57 7692.95
5571.76 6510.63 6538.88 7640.75 7763.16
5574.64 6560.14 6580.39 7824.16 7746.98
5577.52 6670.41 6492.07 7776.02 7741.69
5580.39 6245.67 6587.89 7624.9 7756.77
5583.27 6847.59 6456.37 7869.4 7683.24
5586.15 6275.85 6527.79 7555.42 7677.74
5589.02 6459.93 6440.43 7608.4 7684.92
5591.9 6585.52 6446.1 7890.93 7730.9
5594.77 6292.84 6432.43 7693.36 7754.93
5597.65 6418.94 6303.27 7680.5 7609.86
5600.53 6198.04 6303.07 7455.71 7576.81
5603.4 6292.22 6296.98 7594.22 7563.25
5606.28 6400.69 6337.2 7639.81 7657.43
5609.15 6318.7 6312.04 7738.25 7634.61
5612.03 6216.73 6338.92 7525.77 7650.78
5614.91 6481.33 6361.53 7688.32 7656.89
5617.78 6386.53 6379.91 7756.6 7612.4
5620.66 6271.87 6382.58 7392.3 7621.03
5623.53 6489.34 6250.68 7714.19 7520.55
5626.41 5990.83 6275.33 7455.16 7657.05
5629.28 6345.83 6129.84 7801.8 7599.79
5632.16 6052.87 6207.36 7542.42 7663.68
5635.03 6223.38 6206.36 7646.83 7543.81
5637.91 6342.83 6267.66 7442.2 7542.71
5640.78 6236.77 6308.43 7539.11 7483.07
5643.66 6345.67 6223.44 7467.91 7457.33
5646.53 6087.88 6318.69 7364.96 7417.3
5649.4 6522.51 6305.91 7419.04 7405.3
5652.28 6307.33 6355.98 7431.9 7420.58
5655.15 6238.1 6300.6 7410.8 7473.24
5658.03 6356.36 6311.39 7577.03 7542.89
5660.9 6339.73 6332.19 7640.83 7572.91
5663.77 6300.48 6308.67 7500.88 7538.28
5666.65 6285.8 6268.29 7473.12 7444.51
5669.52 6218.59 6231.2 7359.52 7396.79
5672.39 6189.21 6169.62 7357.73 7330.01
5675.27 6101.07 6149.69 7272.78 7336.5
5678.14 6158.79 6166.31 7378.99 7341.29
5681.01 6239.07 6211.47 7372.11 7359.09
5683.89 6236.56 6166.45 7326.16 7345.17
5686.76 6023.71 6116.41 7337.24 7341.62
5689.63 6088.97 6084.58 7361.47 7380.75
5692.51 6141.07 6053.98 7443.56 7377.35
5695.38 5931.89 6066.13 7327.03 7386.63
5698.25 6125.43 6017.09 7389.3 7284.51
5701.12 5993.95 6096.87 7137.2 7261.1
5704 6171.22 6017.7 7256.79 7187.2
5706.87 5887.93 6055.4 7167.63 7238.25
5709.74 6107.06 6009.48 7290.33 7224.84
5712.61 6033.44 5966.01 7216.58 7218.54
5715.48 5757.54 5944.63 7148.72 7283.05
5718.36 6042.9 5917.42 7483.86 7301.73
5721.23 5951.8 6044.51 7272.62 7321.35
5724.1 6138.82 6010.58 7207.59 7195.69
5726.97 5941.12 5920.21 7106.87 7140.54
5729.84 5680.71 5819.45 7107.15 7107.17
5732.71 5836.52 5781.43 7107.48 7052.02
5735.58 5827.06 5802.17 6941.44 7041.45
5738.45 5742.91 5816.93 7075.42 7052.11
5741.32 5880.8 5905.25 7139.46 7200.3
5744.2 6092.04 5965.28 7386.02 7239.53
5747.07 5922.99 5974.02 7193.12 7208.57
5749.94 5907.01 5859.23 7046.58 7129.47
5752.81 5747.69 5858.33 7148.72 7076.1
5755.68 5920.28 5808.24 7033.01 7013.66
5758.55 5756.76 5875.13 6859.25 7008.91
5761.42 5948.35 5718.45 7134.47 6924.77
5764.29 5450.24 5717.83 6780.6 7031.74
5767.16 5754.89 5665.37 7180.15 6969.6
5770.03 5790.98 5758.3 6948.06 7061.44
5772.9 5729.04 5839.61 7056.11 7100.5
5775.77 5998.81 5812.27 7297.33 7134.98
5778.64 5708.96 5762.6 7051.51 7139.15
5781.51 5580.03 5631.68 7068.62 7010.9
5784.37 5606.05 5661.16 6912.57 7055.81
5787.24 5797.38 5682.11 7186.23 7003.01
5790.11 5642.88 5688.26 6910.21 7003.57
5792.98 5624.53 5742.23 6914.27 6929.61
5795.85 5959.29 5749.07 6964.33 6906.91
5798.72 5663.4 5701.97 6842.12 6906.35
5801.59 5483.23 5659.47 6912.61 6911.82
5804.46 5831.79 5651.99 6980.73 6935.68
5807.32 5640.94 5762.73 6913.69 6959.31
5810.19 5815.46 5698.43 6983.49 6934.23
5813.06 5638.89 5762.86 6905.51 6989.16
5815.93 5834.24 5659.38 7078.49 6859.4
5818.8 5505 5596.19 6594.21 6829.51
5821.66 5449.32 5528.36 6815.83 6721.1
5824.53 5630.77 5602.78 6753.26 6860.68
5827.4 5728.24 5640 7012.94 6847.58
5830.27 5560.99 5661.47 6776.54 6898.01
5833.13 5695.19 5653.1 6904.54 6842.26
5836 5703.12 5643.43 6845.71 6834.54
5838.87 5531.99 5745.27 6753.39 6932.01
5841.73 6000.7 5768.56 7196.93 6955.89
5844.6 5773.01 5872.04 6917.36 6977.71
5847.47 5842.43 5657.89 6818.83 6755.82
5850.33 5358.25 5630.18 6531.26 6760.02
5853.2 5689.85 5580.17 6929.96 6796.45
5856.07 5692.41 5702.32 6928.14 6966.71
5858.93 5724.69 5656.23 7042.03 6901.09
5861.8 5551.59 5619.16 6733.1 6889.65
5864.67 5581.2 5529.91 6893.83 6767.9
5867.53 5456.96 5504.54 6676.76 6752.61
5870.4 5475.46 5556.29 6687.24 6735.57
5873.26 5736.46 5606.88 6842.71 6724.79
5876.13 5608.71 5618.84 6644.4 6717.42
5878.99 5511.35 5483.16 6665.15 6608.2
5881.86 5329.42 5365.65 6515.05 6594.5
5884.72 5256.2 5339.98 6603.3 6592
5887.59 5434.33 5378.73 6657.64 6664.95
5890.45 5445.66 5413.67 6733.92 6692.34
5893.32 5361 5407.53 6685.44 6671.51
5896.18 5415.92 5401.72 6595.18 6660.43
5899.05 5428.23 5413.84 6700.67 6662.09
5901.91 5397.38 5441.5 6690.43 6698.76
5904.78 5498.9 5459.38 6705.19 6703.3
5907.64 5481.85 5520.39 6714.29 6735.79
5910.51 5580.43 5461.65 6787.9 6643.48
5913.37 5322.68 5523.51 6428.24 6570.36
5916.23 5667.43 5456 6494.94 6505.46
5919.1 5377.88 5478.07 6593.19 6537.15
5921.96 5388.89 5271.11 6523.33 6516.02
5924.82 5046.56 5305.48 6431.55 6535.71
5927.69 5480.98 5290.23 6652.25 6562.54
5930.55 5343.15 5366.33 6603.83 6573.56
5933.41 5274.88 5300.4 6464.6 6506.91
5936.28 5283.19 5213.65 6452.31 6467.06
5939.14 5082.9 5216.31 6484.28 6440.99
5942 5282.84 5189.64 6386.39 6397.36
5944.87 5203.19 5225.27 6321.42 6402.52
5947.73 5189.77 5240.43 6499.75 6467.92
5950.59 5328.34 5264 6582.6 6586.23
5953.45 5273.88 5388.79 6676.33 6559
5956.32 5564.15 5338.83 6418.07 6495.27
5959.18 5178.47 5299.16 6391.41 6428.98
5962.04 5154.88 5172.66 6477.47 6350.6
5964.9 5184.64 5197.83 6182.91 6374.22
5967.76 5253.99 5310.48 6462.28 6391.19
5970.63 5492.8 5303.09 6528.37 6403.5
5973.49 5162.48 5321.12 6219.86 6322.4
5976.35 5308.08 5195.1 6218.97 6234.35
5979.21 5114.74 5225.66 6264.21 6315.09
5982.07 5254.18 5155.17 6462.08 6333.38
5984.93 5096.59 5176.67 6273.85 6339.25
5987.79 5179.24 5074.26 6281.83 6239.19
5990.65 4946.94 5156.47 6161.89 6313.85
5993.51 5343.22 5162.6 6497.85 6336.37
5996.37 5197.65 5277.22 6349.36 6400.32
5999.24 5290.8 5202.31 6353.74 6298.91
6002.1 5118.49 5233.91 6193.63 6297.28
6004.96 5292.45 5173.58 6344.46 6291.58
6007.82 5109.81 5178.33 6336.64 6315.66
6010.68 5132.72 5155.98 6265.87 6303.77
6013.54 5225.4 5114.06 6308.8 6269.15
6016.4 4984.05 4997.91 6232.79 6150.37
6019.25 4784.27 4894.15 5909.52 6024.62
6022.11 4914.14 4919.52 5931.54 5961.41
6024.97 5060.15 5031.25 6043.17 6016.68
6027.83 5119.45 5165.39 6075.32 6124.05
6030.69 5316.59 5245.72 6253.65 6165.03
6033.55 5301.13 5213.31 6166.11 6200.06
6036.41 5022.22 5051.25 6180.41 6115.72
6039.27 4830.41 4948.92 6000.65 6084.14
6042.13 4994.15 4999.02 6071.35 6073.29
6044.99 5172.52 5068.25 6147.88 6111.73
6047.84 5038.1 5030.22 6115.96 6106.98
6050.7 4880.03 4965.52 6057.09 6090.55
6053.56 4978.44 4924.85 6098.6 6090.88
6056.42 4916.07 4964.31 6116.96 6106.14
6059.28 4998.42 5017.34 6102.85 6126.32
6062.13 5137.52 4945.36 6159.14 6019.93
6064.99 4700.14 4903.37 5797.8 5977.94
6067.85 4872.46 4799.01 5976.88 5975.73
6070.71 4824.44 4858.75 6152.49 6019.27
6073.56 4879.34 4931.03 5928.44 6094.63
6076.42 5089.3 4953.88 6202.97 6011.13
6079.28 4893.01 5004.58 5901.98 6071.85
6082.13 5031.42 4984.57 6110.61 6000.51
6084.99 5029.27 5005.13 5988.94 5991.26
6087.85 4954.7 4949.69 5874.21 5913.27
6090.7 4865.09 4926.61 5876.66 5946.34
6093.56 4960.04 4930.16 6088.14 5986.87
6096.42 4965.34 4887.83 5995.82 6000.8
6099.27 4738.1 4873.22 5918.43 5938.63
6102.13 4916.21 4860.34 5901.64 5960.59
6104.98 4926.7 4966.8 6061.69 5969.7
6107.84 5057.47 4914.47 5945.77 5955.44
6110.7 4759.23 4902.51 5858.85 5890.55
6113.55 4890.83 4784.24 5867.02 5900.7
6116.41 4702.65 4801.77 5976.24 5947.58
6119.26 4811.83 4715.75 5999.47 5929.57
6122.12 4632.77 4752.98 5812.99 5863.12
6124.97 4814.33 4740.21 5776.88 5831.96
6127.83 4773.53 4739.58 5906 5836.73
6130.68 4630.89 4760.16 5827.31 5825.39
6133.53 4876.06 4695.48 5742.86 5751.37
6136.39 4579.49 4748.61 5683.94 5683.14
6139.24 4790.28 4718.2 5622.62 5710.09
6142.1 4784.84 4766.79 5823.72 5729.24
6144.95 4725.25 4761.03 5741.37 5714.22
6147.81 4773.02 4743.27 5577.56 5718.13
6150.66 4731.54 4672.75 5835.45 5726.59
6153.51 4513.69 4639.26 5766.76 5754.49
6156.37 4672.54 4694.5 5661.27 5793.21
6159.22 4897.25 4826.27 5951.59 5781.77
6162.07 4909 4805.18 5732.45 5809.94
6164.93 4609.27 4736.77 5745.77 5748.96
6167.78 4692.05 4675.45 5768.66 5723.72
6170.63 4725.04 4676.58 5656.72 5641.81
6173.48 4612.64 4655.01 5500.04 5548.22
6176.34 4627.36 4642.03 5487.89 5589.25
6179.19 4686.09 4613.96 5779.83 5686.61
6182.04 4528.43 4605.6 5792.1 5706.31
6184.89 4602.28 4660.49 5546.99 5717.86
6187.75 4850.78 4774.11 5814.48 5659.63
6190.6 4869.28 4810.27 5617.42 5744.56
6193.45 4710.74 4721.07 5801.77 5710.88
6196.3 4583.2 4638.16 5713.44 5813.1
6199.15 4620.54 4544.4 5924.11 5745.19
6202 4429.46 4626.49 5598.02 5694.62
6204.86 4829.47 4655.97 5561.74 5622.28
6207.71 4709 4698.96 5707.07 5596.48
6210.56 4558.43 4603.54 5520.63 5623.66
6213.41 4543.19 4592.84 5643.27 5597.06
6216.26 4676.9 4643.61 5627.28 5675.31
6219.11 4710.73 4632.51 5755.37 5650.68
6221.96 4509.9 4678.03 5569.4 5654.39
6224.81 4813.47 4701.34 5638.39 5625.42
6227.66 4780.65 4750.84 5668.47 5604.81
6230.51 4658.41 4665.84 5507.57 5502.25
6233.36 4558.46 4618.78 5330.7 5505.68
6236.21 4639.46 4590.64 5678.76 5519.54
6239.06 4574 4614.73 5549.16 5645.38
6241.91 4630.73 4586.75 5708.22 5529.75
6244.76 4555.5 4543.4 5331.88 5493.34
6247.61 4443.97 4497.32 5439.92 5338.28
6250.46 4492.47 4489.04 5243.04 5359.73
6253.31 4530.67 4521.95 5396.22 5376.31
6256.16 4542.7 4507.47 5489.68 5424.85
6259 4449.03 4500.23 5388.65 5438.89
6261.85 4508.95 4526.12 5438.33 5420.38
6264.7 4620.37 4556.59 5434.16 5419.68
6267.55 4540.44 4564.09 5386.55 5413.92
6270.4 4531.46 4455.41 5421.06 5346.7
6273.25 4294.32 4376.32 5232.48 5304.48
6276.09 4303.18 4260.57 5259.89 5190.65
6278.94 4184.21 4279.22 5079.57 5238.09
6281.79 4350.26 4244.16 5374.8 5184.28
6284.64 4198.01 4344.19 5098.46 5286.95
6287.48 4484.3 4335.09 5387.59 5242.96
6290.33 4322.96 4396.91 5242.84 5299.46
6293.18 4383.47 4354.83 5267.96 5252.42
6296.03 4358.06 4343.37 5246.45 5168.34
6298.87 4288.58 4300 4990.61 5176.09
6301.72 4253.38 4285.27 5291.21 5164.04
6304.57 4313.85 4271.09 5210.3 5234
6307.41 4246.05 4323.92 5200.5 5153.79
6310.26 4411.86 4315.74 5050.57 5142.42
6313.1 4289.31 4326.81 5176.18 5162.81
6315.95 4279.25 4296.47 5261.68 5166.89
6318.8 4320.86 4378.24 5062.79 5196.95
6321.64 4534.62 4472.78 5266.36 5190.49
6324.49 4562.87 4466.13 5242.31 5227.59
6327.33 4300.9 4436.1 5174.09 5190.74
6330.18 4444.52 4332.8 5155.83 5153.93
6333.02 4252.97 4281.27 5131.86 5140.12
6335.87 4146.31 4235.42 5132.68 5139.85
6338.71 4306.98 4264.11 5155 5137.61
6341.56 4339.04 4365.83 5125.15 5168.1
6344.4 4451.47 4367.46 5224.16 5172.87
6347.25 4311.88 4371.62 5169.3 5154.29
6350.09 4351.51 4327.93 5069.41 5091.13
6352.94 4320.4 4348.39 5034.69 5076.95
6355.78 4373.26 4333.73 5126.76 5094.69
6358.62 4307.53 4348.43 5122.63 5112.44
6361.47 4364.49 4317.56 5087.92 5086.72
6364.31 4280.66 4302.05 5049.6 5030.17
6367.15 4261.01 4241.83 4952.99 4996.4
6370 4183.81 4208.95 4986.59 4954.02
6372.84 4182.04 4185.69 4922.47 4915.82
6375.68 4191.21 4167.62 4838.39 4903.34
6378.53 4129.61 4267.28 4949.17 4996.69
6381.37 4481.02 4347.17 5202.5 5034.38
6384.21 4430.87 4347.56 4951.48 4972.03
6387.05 4130.79 4251.61 4762.11 4884.18
6389.9 4193.16 4122.56 4938.95 4835.91
6392.74 4043.72 4108.03 4806.67 4824.76
6395.58 4087.21 4089.59 4728.65 4775.26
6398.42 4137.83 4126.14 4790.46 4808.94
6401.26 4153.38 4112.89 4907.7 4870.15
6404.11 4047.46 4146.31 4912.28 4918.68
6406.95 4238.08 4131.88 4936.05 4885.58
6409.79 4110.12 4172.92 4808.4 4867.49
6412.63 4170.58 4158.53 4858.01 4837.06
6415.47 4194.91 4099.95 4844.77 4811.59
6418.31 3934.35 4034.55 4732 4770.77
6421.15 3974.4 4048.53 4735.55 4737.62
6423.99 4236.83 4014.64 4745.32 4703.41
6426.83 3832.7 3920.7 4629.35 4643.03
6429.67 3692.57 3830.96 4554.43 4607.64
6432.51 3967.59 3945.13 4639.15 4692.13
6435.35 4175.23 4071.41 4882.8 4732.14
6438.19 4071.41 4028.56 4674.48 4677.77
6441.03 3839.05 3950.74 4476.02 4600.14
6443.87 3941.74 3936.13 4649.91 4588.95
6446.71 4027.6 3979.75 4640.93 4613.38
6449.55 3969.91 4008.85 4549.29 4560.47
6452.39 4029.04 3940.61 4491.2 4476.74
6455.23 3822.89 3906.55 4389.73 4442.51
6458.07 3867.72 3836.24 4446.6 4436.48
6460.91 3818.1 3804.84 4473.12 4490.61
6463.75 3728.71 3792.76 4552.12 4481.76
6466.59 3831.48 3812.56 4420.03 4452.52
6469.42 3877.49 3851.9 4385.42 4366.69
6472.26 3846.71 3796.95 4294.62 4359.24
6475.1 3666.65 3801.26 4397.67 4315.4
6477.94 3890.41 3735.68 4253.9 4265.45
6480.78 3649.98 3751.25 4144.77 4234.46
6483.61 3713.38 3612.87 4304.69 4217.73
6486.45 3475.25 3665.1 4203.72 4280.38
6489.29 3806.69 3617.11 4332.72 4226.54
6492.12 3569.39 3579.72 4143.19 4230.33
6494.96 3363.08 3562.76 4215.07 4167.41
6497.8 3755.83 3557.32 4143.97 4218.29
6500.63 3553.05 3635.65 4295.84 4147.64
6503.47 3598.09 3568.7 4003.1 4130.8
6506.31 3554.95 3547.22 4093.47 4038.45
6509.14 3488.62 3460.77 4018.78 3960.72
6511.98 3338.73 3386.08 3769.92 3902
6514.82 3330.89 3331.57 3917.32 3814.24
6517.65 3325.1 3280.92 3755.49 3822.95
6520.49 3186.78 3314.11 3796.06 3808.6
6523.32 3430.45 3248.8 3874.24 3824.17
6526.16 3129.17 3273.24 3802.21 3793.63
6528.99 3260.1 3209.66 3704.44 3705.46
6531.83 3239.71 3194.7 3609.74 3563.33
6534.66 3084.29 3056.07 3375.81 3450.84
6537.5 2844.22 3011.04 3366.96 3419.72
6540.33 3104.61 2919.91 3516.38 3425.21
6543.17 2810.91 2916.77 3392.28 3350.4
6546 2834.79 2756.8 3142.53 3194.45
6548.83 2624.71 2781.35 3048.55 3109
6551.67 2884.54 2685.97 3135.92 3048.6
6554.5 2548.67 2552.64 2961.34 2964.72
6557.34 2224.7 2355.22 2796.89 2824.29
6560.17 2292.3 2289.34 2714.62 2714.04
6563 2351.02 2359.79 2630.61 2719.42
6565.84 2436.07 2413.82 2813.02 2800.76
6568.67 2454.38 2528.26 2958.66 2936.52
6571.5 2694.34 2607.49 3037.88 2996.7
6574.33 2673.74 2685.35 2993.57 3032.46
6577.17 2687.98 2704.53 3065.92 3068.83
6580 2751.86 2831.05 3147.01 3183.56
6582.83 3053.3 2891.01 3337.76 3235.89
6585.66 2867.87 2976.16 3222.91 3286.77
6588.5 3007.31 2967.44 3299.64 3327.13
6591.33 3027.14 3083.86 3458.85 3425.71
6594.16 3217.13 3126.49 3518.65 3529.02
6596.99 3135.19 3208.58 3609.57 3624.22
6599.82 3273.43 3197.17 3744.44 3669.8
6602.65 3182.88 3274.84 3655.4 3702.21
6605.48 3368.2 3335.35 3706.78 3710.74
6608.32 3454.98 3340.95 3770.04 3724.41
6611.15 3199.68 3322.07 3696.42 3697.99
6613.98 3311.55 3294.6 3627.51 3727.06
6616.81 3372.56 3329.41 3857.26 3730.11
6619.64 3304.11 3429.33 3705.57 3875.9
6622.47 3611.32 3496.68 4064.86 3886.98
6625.3 3574.61 3509.31 3890.5 3941.91
6628.13 3342 3413.88 3870.38 3917.58
6630.96 3325.04 3375.89 3991.87 3944.34
6633.79 3460.64 3440 3970.77 3978.37
6636.62 3534.33 3427.24 3972.46 3926.06
6639.44 3286.77 3442.78 3834.96 3946.74
6642.27 3507.24 3409.18 4032.81 3963.55
6645.1 3433.52 3444.4 4022.89 4023.48
6647.93 3392.43 3495.81 4014.75 4049
6650.76 3661.48 3458.79 4109.38 3998.25
6653.59 3322.47 3527.63 3870.62 3950.03
6656.42 3598.94 3472.67 3870.08 3906.21
6659.24 3496.61 3568.39 3977.92 3966.45
6662.07 3609.63 3572.64 4051.35 4076.42
6664.9 3611.69 3561.17 4200 4072.49
6667.73 3462.19 3586.1 3966.13 4106.76
6670.56 3684.41 3558.41 4154.14 4087.7
6673.38 3528.62 3515.36 4142.85 4057.85
6676.21 3333.03 3569.4 3876.56 4065.07
6679.04 3846.55 3598.62 4175.79 4027.16
6681.86 3616.26 3734.89 4029.11 4071.5
6684.69 3741.86 3640.14 4009.6 4014.48
6687.52 3562.29 3618.2 4004.72 4043.15
6690.34 3550.47 3653.38 4115.12 4079.21
6693.17 3847.4 3678.04 4117.78 4137.42
6695.99 3636.26 3720.36 4179.36 4163.22
6698.82 3677.4 3605.21 4192.53 4086.73
6701.65 3501.97 3617.12 3888.3 4083.82
6704.47 3671.97 3534.66 4170.63 4024.12
6707.3 3430.03 3542.15 4013.42 4048.49
6710.12 3524.46 3562.05 3961.43 4009.62
6712.95 3731.66 3629.2 4054.01 4005.01
6715.77 3631.47 3676.8 3999.6 4006.88
6718.6 3667.28 3652.87 3967.02 3978.65
6721.42 3659.87 3620.57 3969.34 4005.17
6724.25 3534.58 3606.77 4079.15 3993.81
6727.07 3625.85 3584.28 3932.94 3996.07
6729.89 3592.4 3575.45 3976.12 3956.24
6732.72 3508.1 3546.42 3959.64 3975.37
6735.54 3538.76 3539.78 3990.33 3997.96
6738.37 3572.48 3593.96 4043.91 4009.69
6741.19 3670.63 3625.13 3994.83 3996.03
6744.01 3632.28 3618.1 3949.36 3931.2
6746.83 3551.38 3549.47 3849.4 3937.52
6749.66 3464.74 3536.1 4013.79 3922.74
6752.48 3592.18 3482.7 3905.02 3927.9
6755.3 3391.18 3520.85 3864.89 3910.07
6758.13 3579.19 3552.68 3960.31 3901.71
6760.95 3687.68 3543.04 3879.94 3910.89
6763.77 3362.24 3547.05 3892.43 3892.39
6766.59 3591.23 3446.23 3904.8 3835.5
6769.41 3385.21 3588.38 3709.27 3875.7
6772.24 3788.7 3578.98 4013.04 3900.18
6775.06 3563.04 3647.14 3978.24 3994.12
6777.88 3589.68 3595.05 3991.1 3986.77
6780.7 3632.44 3653.5 3990.98 3977.72
6783.52 3738.39 3677.34 3951.1 4001.75
6786.34 3661.18 3615.09 4063.16 3942.01
6789.16 3445.7 3532.47 3811.78 3868.8
6791.98 3490.53 3441.36 3731.45 3793.57
6794.8 3387.84 3490.03 3837.49 3870.2
6797.62 3591.71 3475.9 4041.67 3894.79
6800.44 3448.15 3536.42 3805.22 3862.15
6803.26 3569.41 3472.79 3739.56 3781.47
6806.08 3400.83 3461.05 3799.64 3746.3
6808.9 3412.92 3547.72 3699.69 3867.24
6811.72 3829.41 3489.04 4102.4 3846.38
6814.54 3224.79 3494.71 3737.03 3879.72
6817.36 3429.93 3389.76 3799.74 3776.05
6820.18 3514.54 3495.91 3791.38 3776.63
6823 3543.26 3562.16 3738.76 3793.57
6825.81 3628.67 3599.32 3850.56 3756.18
6828.63 3626.04 3552.86 3679.22 3771.58
6831.45 3403.86 3601.08 3784.97 3826.84
6834.27 3773.35 3663.32 4016.34 3975.3
6837.09 3812.76 3707.87 4124.6 4060.52
6839.9 3537.5 3576.09 4040.62 3955.04
6842.72 3378 3483.79 3699.92 3844.4
6845.54 3535.87 3486.88 3792.66 3792.52
6848.35 3546.76 3540.37 3884.98 3769.57
6851.17 3538.47 3616.3 3631.07 3827.06
6853.99 3763.67 3601.38 3965.14 3793.69
6856.8 3502.01 3514.05 3784.85 3806.07
6859.62 3276.46 3213.15 3668.21 3579.86
6862.44 2860.98 2956.89 3286.53 3307.8
6865.25 2733.23 2701.7 2968.66 3053.72
6868.07 2510.89 2590.8 2905.99 2937.75
6870.89 2528.27 2679.2 2938.59 2978.34
6873.7 2998.42 2801.22 3090.44 3080.6
6876.52 2876.97 2967.81 3212.75 3213.1
6879.33 3028.03 2968.02 3336.11 3230.57
6882.15 2999.07 2995.17 3142.86 3217.37
6884.96 2958.42 2923.33 3173.14 3158.51
6887.78 2812.5 2882.9 3159.53 3212.63
6890.59 2877.8 2847.9 3305.21 3194.87
6893.4 2853.41 2913.77 3119.87 3231.44
6896.22 3010.12 2984.08 3269.23 3200.66
6899.03 3088.7 3011.78 3212.9 3264.04
6901.85 2936.53 2983.91 3309.99 3247.18
6904.66 2926.49 2979.65 3218.64 3295.97
6907.47 3075.93 3018.65 3359.28 3307.5
6910.29 3053.52 3132.24 3344.58 3382.41
6913.1 3267.26 3144.68 3443.36 3384.31
6915.91 3113.25 3173.73 3365.01 3396.81
6918.73 3140.7 3095.05 3382.05 3378.91
6921.54 3031.21 3129.05 3389.67 3382.09
6924.35 3215.26 3082.99 3374.55 3383.21
6927.16 3002.52 3135.06 3385.41 3377.03
6929.97 3187.41 3064.71 3371.12 3377.76
6932.79 3004.19 3074.39 3376.77 3336.3
6935.6 3031.56 3105.07 3261.01 3364.63
6938.41 3279.46 3064.83 3456.13 3296.83
6941.22 2883.48 3170.32 3173.34 3366.1
6944.03 3348.04 3083.36 3468.82 3342.38
6946.84 3018.56 3147.81 3384.98 3384.67
6949.65 3076.85 2978.65 3300.21 3314.71
6952.47 2840.53 3003.73 3258.95 3292.33
6955.28 3093.81 2958.57 3317.82 3293.69
6958.09 2941.38 3102.75 3304.3 3318.2
6960.9 3273.07 3053.2 3332.49 3311.09
6963.71 2945.14 3115.59 3296.49 3299.07
6966.52 3128.55 3030.7 3268.24 3279.36
6969.33 3018.4 3083.29 3273.36 3278.49
6972.13 3102.93 3035.57 3293.85 3259.32
6974.94 2985.37 3037.45 3210.75 3282.57
6977.75 3024.05 2993.46 3343.11 3230.01
6980.56 2970.95 3045.35 3136.17 3271.54
6983.37 3141.05 3049.01 3335.33 3228.57
6986.18 3035.04 3056.82 3214.2 3269.3
6988.99 2994.38 3043.05 3258.38 3254.77
6991.8 3099.74 3043.79 3291.73 3199.02
6994.6 3037.25 3099.37 3046.95 3198.56
6997.41 3161.13 3079.68 3256.99 3196.6
7000.22 3040.66 3016.64 3285.87 3182.97
7003.03 2848.11 2980.49 3006.06 3142.65
7005.83 3052.7 2978.24 3136 3093.55
7008.64 3033.91 2983.58 3138.58 3169.47
7011.45 2864.14 2953.64 3233.84 3186.71
7014.25 2962.87 2933.03 3187.7 3194.11
7017.06 2972.07 2862.67 3160.8 3079.1
7019.87 2653.08 2811.95 2888.81 3054.59
7022.67 2810.7 2813.87 3114.17 3022.77
7025.48 2977.84 2936.96 3065.32 3071.98
7028.29 3022.33 3004.39 3036.46 3110.67
7031.09 3012.99 2926.81 3230.23 3113.06
7033.9 2745.1 2870.73 3072.5 3106.86
7036.7 2854.1 2778.79 3017.85 3060.46
7039.51 2737.18 2831.57 3091.03 3114.62
7042.31 2903.43 2865.98 3234.99 3192.47
7045.12 2957.33 2939.94 3251.4 3183.71
7047.92 2959.08 2919.83 3064.74 3095.68
7050.73 2843.07 2921.9 2970.91 3050.22
7053.53 2963.54 2872.04 3114.99 3050.26
7056.33 2809.52 2854.19 3064.86 3032.86
7059.14 2789.51 2775.39 2918.71 3028.24
7061.94 2727.13 2840.06 3101.16 3057.7
7064.74 3003.55 2874.87 3153.22 3084.88
7067.55 2893.94 2865.49 3000.26 3023.3
7070.35 2698.98 2868.61 2916.42 3000.11
7073.15 3012.9 2907.65 3083.64 3028.65
7075.96 3011.07 2938.1 3085.87 3060.13
7078.76 2790.33 2886.92 3010.86 3030.29
7081.56 2859.36 2849.21 2994.14 3005.44
7084.36 2897.95 2894.46 3011.32 2953.02
7087.17 2926.08 2827.63 2853.61 2913.97
7089.97 2658.87 2797.73 2877 2898.18
7092.77 2808.24 2732.08 2963.95 2894.39
7095.57 2729.12 2725.96 2842.21 2901.63
7098.37 2640.52 2666.12 2898.72 2857.75
7101.17 2628.71 2751.46 2832.3 2935.79
7103.97 2985.15 2838.65 3076.34 2907.65
7106.77 2902.1 2912.65 2814.3 2941.06
7109.57 2850.71 2877.8 2932.55 2899.42
7112.37 2880.58 2826.97 2951.42 2926.06
7115.17 2749.64 2784.01 2894.2 2898.16
7117.97 2721.82 2758.21 2848.87 2902.11
7120.77 2803.17 2796.53 2963.26 2934.23
7123.57 2864.61 2805.73 2990.57 2975.22
7126.37 2749.4 2733.34 2971.84 2938.73
7129.17 2586 2726.62 2853.78 2938.81
7131.97 2844.47 2760.56 2990.8 2927.23
7134.77 2851.21 2776.17 2937.09 2868.5
7137.57 2632.83 2706.26 2677.6 2778.17
7140.37 2634.75 2695.73 2719.82 2742.78
7143.17 2819.62 2727.86 2830.92 2760.86
7145.96 2729.2 2786.83 2731.86 2835.39
7148.76 2811.67 2720.61 2943.4 2807.77
7151.56 2620.96 2643.91 2748.04 2803.92
7154.36 2499.1 2563.72 2720.31 2747.42
7157.15 2571.09 2523.26 2773.91 2713.01
7159.95 2499.59 2580.21 2644.83 2737.73
7162.75 2669.94 2570.91 2794.45 2711.54
7165.54 2543.2 2574.89 2695.35 2725.55
7168.34 2511.52 2534.38 2686.85 2657.22
7171.14 2548.42 2555.37 2589.46 2606.64
7173.93 2606.17 2603.89 2543.59 2578.37
7176.73 2657.09 2524.43 2602.06 2521.69
7179.52 2310.03 2472.97 2419.43 2508.58
7182.32 2451.8 2389.81 2504.26 2409.21
7185.12 2407.61 2411.04 2303.94 2411.61
7187.91 2373.7 2406.49 2426.64 2407.2
7190.71 2438.16 2408.84 2491.01 2471.59
7193.5 2414.66 2404.25 2497.13 2493.23
7196.29 2359.93 2356.77 2491.55 2479.77
7199.09 2295.73 2304.18 2450.64 2402.32
7201.88 2256.89 2352.15 2264.78 2419.81
7204.68 2503.82 2438.91 2544.01 2447.57
7207.47 2556.04 2556.4 2533.92 2533.86
7210.26 2609.35 2562.35 2523.66 2506.91
7213.06 2521.68 2566.5 2463.16 2487.6
7215.85 2568.49 2524.66 2475.98 2485.61
7218.64 2483.81 2458.41 2517.69 2471.8
7221.44 2322.94 2435.09 2421.74 2492.26
7224.23 2498.51 2468.31 2537.36 2495.48
7227.02 2583.5 2483.88 2527.34 2518.12
7229.81 2369.64 2435.62 2489.66 2464.48
7232.61 2353.73 2293.48 2376.45 2399.35
7235.4 2157.06 2277.59 2331.94 2350.75
7238.19 2321.99 2188.12 2343.85 2312.49
7240.98 2085.32 2283.98 2261.68 2356.61
7243.77 2444.63 2353 2464.28 2404.5
7246.56 2529.05 2398.71 2487.53 2436.31
7249.35 2222.44 2409.02 2357.13 2395.34
7252.15 2475.57 2351.07 2341.36 2343.28
7254.94 2355.19 2420.79 2331.35 2341.98
7257.73 2431.6 2357.42 2353.24 2340.19
7260.52 2285.46 2427.89 2335.98 2361.91
7263.31 2566.63 2388.68 2396.49 2358.36
7266.1 2313.96 2416.39 2342.61 2317.9
7268.89 2368.59 2280.35 2214.61 2279.91
7271.67 2158.5 2265.75 2282.5 2277.54
7274.46 2270.16 2264.89 2335.52 2303.79
7277.25 2366 2279.11 2293.35 2293.42
7280.04 2201.17 2239.64 2251.38 2265.07
7282.83 2151.76 2215.82 2250.49 2294.42
7285.62 2294.53 2260.49 2381.38 2299.76
7288.41 2335.18 2308.21 2267.4 2306.18
7291.19 2294.91 2290.34 2269.77 2241
7293.98 2240.92 2246.26 2185.82 2217.75
7296.77 2202.94 2245.61 2197.67 2238.56
7299.56 2292.98 2233.98 2332.19 2241.03
7302.34 2206.01 2231.97 2193.22 2296.45
7305.13 2196.92 2264.15 2363.96 2258.39
7307.92 2389.52 2268.7 2217.99 2252.1
7310.7 2219.65 2263.67 2174.35 2181.6
7313.49 2181.85 2272.98 2152.47 2220.87
7316.28 2417.45 2286.6 2335.79 2216.37
7319.06 2260.51 2302.51 2160.84 2232.36
7321.85 2229.58 2281.6 2200.44 2198
7324.63 2354.71 2343.42 2232.73 2246.77
7327.42 2445.96 2156.56 2307.14 2214.34
7330.2 1669 2001.13 2103.15 2215.6
7332.99 1888.43 1700.64 2236.5 2152.69
7335.77 1544.5 1879.04 2118.42 2223.99
7338.56 2204.17 2010.37 2317.06 2228.45
7341.34 2282.43 2194.08 2249.87 2232.12
7344.13 2095.64 2190.71 2129.42 2235.82
7346.91 2194.05 1976.71 2328.16 2204.68
7349.69 1640.44 1997.71 2156.46 2271.95
7352.48 2158.65 1986.25 2331.24 2241.31
7355.26 2159.67 2141.03 2236.25 2237.32
7358.04 2104.77 2182.11 2144.46 2226.88
7360.83 2281.9 2232.72 2299.93 2251.82
7363.61 2311.49 2289.77 2311.07 2280.37
7366.39 2275.94 2312.36 2230.12 2287.75
7369.17 2349.65 2113 2322.07 2229.34
7371.96 1713.4 2091 2135.84 2211.16
7374.74 2209.93 2034.07 2175.58 2143.68
7377.52 2178.89 2176.99 2119.61 2160.03
7380.3 2142.15 2182.07 2184.88 2185.23
7383.08 2225.18 2065.55 2251.19 2116.25
7385.86 1829.3 2044.19 1912.67 2063.44
7388.64 2078.08 1814.65 2026.45 1997.9
7391.42 1536.58 1797.83 2054.57 2078.93
7394.2 1778.83 1834.48 2155.77 2118.98
7396.98 2188.03 2068.05 2146.6 2112.54
7399.76 2237.3 2202.87 2035.26 2115.33
7402.54 2183.3 2172.49 2164.13 2116.61
7405.32 2096.87 2139.32 2150.44 2154.01
7408.1 2137.78 2121.4 2147.45 2142.13
7410.88 2129.54 2132.05 2128.5 2101.19
7413.66 2128.83 2126.61 2027.61 2073.33
7416.44 2121.46 2159.96 2063.87 2092.24
7419.22 2229.57 2131.62 2185.24 2090.47
7422 2043.83 2126.35 2022.3 2119.04
7424.77 2105.63 2112.89 2149.57 2068.78
7427.55 2189.21 2142.27 2034.46 2072.68
7430.33 2131.96 2126.74 2034 1996.27
7433.11 2059.05 2108.43 1920.36 2020.91
7435.88 2134.27 2076.53 2108.38 2006.11
7438.66 2036.29 2037.36 1989.6 2009.48
7441.44 1941.52 1921.02 1930.46 1944.64
7444.22 1785.25 1948.28 1913.85 1988.93
7446.99 2118.06 1997.65 2122.47 1983.88
7449.77 2089.63 2101.08 1915.31 2044.79
7452.54 2095.53 1907.31 2096.6 1999.74
7455.32 1536.75 1907.99 1987.3 2058.8
7458.1 2091.69 1904.55 2092.52 1996.14
7460.87 2085.2 2025.04 1908.59 1988.46
7463.65 1898.22 1870.89 1964.26 1932.89
7466.42 1629.23 1878.16 1925.8 1945.29
7469.2 2107.04 1873.07 1945.82 1935.63
7471.97 1882.93 2075.69 1935.25 1931.56
7474.74 2237.1 2020.26 1913.62 1917.83
7477.52 1940.74 2051.27 1904.62 1904.11
7480.29 1975.99 1831.59 1894.09 1907.03
7483.07 1578.05 1854.67 1922.37 1910
7485.84 2009.96 1915.75 1913.55 1901.16
7488.61 2159.23 2101.79 1867.57 1899.16
7491.38 2136.17 1934.29 1916.36 1888.4
7494.16 1507.47 1861.77 1881.27 1860.35
7496.93 1941.67 1728.39 1783.42 1885.97
7499.7 1736.03 1723.26 1993.22 1869.64
7502.47 1492.08 1768.48 1832.29 1905.78
7505.25 2077.34 1687.39 1891.83 1842.8
7508.02 1492.74 1879.94 1804.28 1857.59
7510.79 2069.74 1661.32 1876.65 1821.73
7513.56 1421.49 1828.22 1784.27 1795.12
7516.33 1993.44 1780.58 1724.45 1769.88
7519.1 1926.8 1935.82 1800.91 1734
7521.87 1887.23 1997.54 1676.64 1819.2
7524.64 2178.59 1853.22 1980.04 1798.59
7527.41 1493.85 1852.41 1739.09 1855.79
7530.18 1884.79 1719.44 1848.23 1755.14
7532.95 1779.7 1881.68 1678.08 1800.81
7535.72 1980.56 1777.1 1876.1 1786.44
7538.49 1571.03 1818 1805.14 1832.37
7541.26 1902.4 1528.22 1815.86 1752.58
7544.03 1111.24 1471.26 1636.75 1751.73
7546.8 1400.13 1317.87 1802.57 1714.16
7549.57 1442.23 1421.07 1703.17 1748.44
7552.34 1420.85 1416.42 1739.57 1728.11
7555.1 1386.17 1535.87 1741.6 1707.99
7557.87 1800.6 1679.74 1642.81 1741.22
7560.64 1852.45 1664.92 1839.25 1721.03
7563.41 1341.72 1699.02 1681.04 1749.15
7566.17 1902.9 1640.3 1727.17 1696.16
7568.94 1676.29 1832.42 1680.28 1721.15
7571.71 1918.08 1801.72 1756 1725.83
7574.47 1810.81 1887.7 1741.21 1752.5
7577.24 1934.22 1678.59 1760.29 1750.47
7580.01 1290.75 1668.92 1749.91 1735.26
7582.77 1781.79 1475.75 1695.58 1715.09
7585.54 1354.7 1570.85 1699.78 1593.18
7588.3 1576.06 1264.29 1384.18 1432.77
7591.07 862.108 1060.96 1214.35 1259.47
7593.83 744.722 791.255 1179.89 1068.66
7596.6 766.935 733.44 811.743 881.633
7599.36 688.664 653.58 653.263 671.661
7602.13 505.141 597.699 549.976 605.035
7604.89 599.293 614.01 611.867 598.253
7607.65 737.596 776.12 632.915 694.274
7610.42 991.472 1006.36 838.038 844.784
7613.18 1290.03 1196.71 1063.4 1027.45
7615.94 1308.64 1246.38 1180.92 1107.48
7618.71 1140.49 1185.63 1078.11 1082.34
7621.47 1107.76 1077.02 987.994 969.605
7624.23 982.797 945.481 842.714 913.956
7626.99 745.887 893.127 911.16 887.872
7629.76 950.695 888.99 909.741 903.305
7632.52 970.389 1044.11 889.012 943.098
7635.28 1211.24 1120.93 1030.54 991.447
7638.04 1181.16 1209.3 1054.79 1043.39
7640.8 1235.48 1254.42 1044.85 1088.43
7643.56 1346.62 1286.02 1165.64 1129.9
7646.32 1275.97 1174.06 1179.22 1164.42
7649.08 899.588 1126.22 1148.4 1198.19
7651.84 1203.09 1156.25 1266.95 1203.35
7654.6 1366.08 1331.55 1194.71 1232.86
7657.36 1425.49 1427.01 1236.93 1241.34
7660.12 1489.47 1476.26 1292.37 1272.35
7662.88 1513.81 1505.2 1287.75 1318.85
7665.64 1512.33 1495.84 1376.42 1295.4
7668.4 1461.38 1495.33 1222.04 1311.87
7671.16 1512.26 1529.88 1337.14 1296.49
7673.92 1616 1386.95 1330.29 1342.04
7676.68 1032.58 1363.07 1358.68 1318.7
7679.43 1440.61 1337.33 1267.12 1345.25
7682.19 1538.81 1538.61 1409.93 1333.41
7684.95 1636.4 1610.48 1323.16 1376.37
7687.71 1656.21 1625.37 1396.02 1382.48
7690.46 1583.49 1619.68 1428.26 1387.04
7693.22 1619.32 1469.11 1336.83 1385.43
7695.98 1204.51 1466.48 1391.2 1357.88
7698.73 1575.6 1474.2 1345.62 1395.47
7701.49 1642.51 1638.67 1449.59 1438.38
7704.24 1697.9 1651.83 1519.93 1456.03
7707 1615.09 1670.84 1398.56 1451.36
7709.76 1699.53 1579.32 1435.6 1384.47
7712.51 1423.35 1476.1 1319.23 1417.17
7715.27 1305.42 1491.55 1496.67 1431.52
7718.02 1745.88 1470.83 1478.64 1487.69
7720.78 1361.18 1584.25 1487.77 1475.97
7723.53 1645.69 1501.01 1461.51 1442.21
7726.28 1496.14 1431.36 1377.34 1368.87
7729.04 1152.26 1251.49 1267.77 1330.64
7731.79 1106.08 1337.69 1346.82 1352.78
7734.54 1754.72 1491.68 1443.75 1386.14
7737.3 1614.24 1630.82 1367.84 1373.68
7740.05 1523.49 1569.28 1309.43 1325.03
7742.8 1570.1 1545.09 1297.82 1322.07
7745.55 1541.66 1547.98 1358.95 1320.74
7748.31 1532.17 1506.88 1305.44 1304.46
7751.06 1446.8 1529.62 1249 1301.67
7753.81 1609.88 1527.63 1350.56 1276.41
7756.56 1526.22 1537.92 1229.67 1280.37
7759.31 1477.67 1539.41 1260.88 1254.82
7762.06 1614.33 1474.16 1273.92 1250.51
7764.81 1330.46 1456.56 1216.74 1253.42
7767.57 1424.9 1403.04 1269.61 1223.64
7770.32 1453.76 1418.85 1184.59 1206.96
7773.07 1377.9 1254.41 1166.7 1178.57
7775.82 931.562 1253.32 1184.44 1193.73
7778.56 1450.5 1303.82 1230.05 1217.27
7781.31 1529.4 1521.61 1237.32 1244.68
7784.06 1584.94 1507.58 1266.69 1219.02
7786.81 1408.39 1524.68 1153.05 1239.2
7789.56 1580.7 1500.27 1297.85 1205.36
7792.31 1511.71 1562.93 1165.17 1273.05
7795.06 1596.39 1341.73 1356.13 1208.96
7797.81 917.074 1305.4 1105.58 1248.48
7800.55 1402.75 1148.69 1283.72 1243.44
7803.3 1126.24 1342.32 1341.02 1304.44
7806.05 1497.96 1219.05 1288.57 1293.28
7808.79 1032.96 1309.53 1250.23 1253.24
7811.54 1397.69 1195.01 1220.93 1179.17
7814.29 1154.38 1189.22 1066.35 1165.97
7817.03 1015.6 1226.69 1210.62 1196.19
7819.78 1510.1 1327.7 1311.59 1251.28
7822.53 1457.41 1453.85 1231.64 1208.66
7825.27 1394.06 1433.78 1082.76 1155.52
7828.02 1449.87 1298.45 1152.17 1151.94
7830.76 1051.44 1266.44 1220.89 1188.55
7833.51 1298.01 1260.89 1192.6 1198.89
7836.25 1433.23 1378.82 1183.18 1173.84
7838.99 1405.21 1443.99 1145.73 1177.83
7841.74 1493.53 1455.81 1204.58 1180.09
7844.48 1468.7 1471.79 1189.97 1183.33
7847.23 1453.15 1403.39 1155.45 1157.41
7849.97 1288.33 1376.64 1126.8 1130
7852.71 1388.44 1371.44 1107.76 1164.64
7855.46 1437.55 1353.4 1259.37 1197
7858.2 1234.22 1354.68 1223.87 1188.31
7860.94 1392.27 1278.14 1081.67 1108.5
7863.68 1207.93 1215.94 1019.95 1052.61
7866.42 1047.63 1194.35 1056.2 1054.69
7869.17 1327.51 1239.92 1087.93 1059.61
7871.91 1344.64 1166.07 1034.7 1067.26
7874.65 826.061 1147.52 1079.16 1081.28
7877.39 1271.85 1170.34 1129.98 1117.68
7880.13 1413.09 1212.46 1143.89 1139.12
7882.87 952.43 1184.99 1143.48 1075.59
7885.61 1189.46 1165.35 939.419 1040.26
7888.35 1354.17 1294.23 1037.89 1020.17
7891.09 1339.07 1312.17 1083.2 1080.72
7893.83 1243.26 1175.92 1121.09 1074.13
7896.57 945.429 1059.05 1018.1 1073.09
7899.31 988.455 1069.64 1080.07 1035.31
7902.05 1275.02 1224.91 1007.76 1036.54
7904.78 1411.27 1207.08 1021.79 1004.22
7907.52 934.956 1186.03 983.111 971.659
7910.26 1211.87 1016.78 910.074 969.747
7913 903.525 1165.64 1016.06 994.342
7915.74 1381.52 1200.64 1056.89 1026.35
7918.47 1316.88 1352.37 1006.1 1031.26
7921.21 1358.71 1332.23 1030.78 1014.82
7923.95 1321.1 1292.36 1007.57 998.388
7926.68 1197.25 1298.56 956.807 1005.14
7929.42 1377.33 1243.92 1051.04 977.013
7932.15 1157.18 1285.55 923.189 1016.88
7934.89 1322.14 1223.64 1076.41 990.317
7937.63 1191.6 1281.53 971.353 985.415
7940.36 1330.84 1208.83 908.484 918.726
7943.1 1104.03 1209.61 876.343 889.622
7945.83 1193.95 1132.34 884.038 868.408
7948.56 1099.04 1193.76 844.842 899.064
7951.3 1288.3 1136.9 968.312 949.12
7954.03 1023.35 1139.99 1034.21 944.765
7956.77 1108.32 1149.84 831.776 930.09
7959.5 1317.85 1230.33 924.287 895.192
7962.23 1264.84 1272.29 929.514 943.815
7964.97 1234.19 1122.68 977.643 935.303
7967.7 869.019 1114.9 898.752 947.897
7970.43 1241.49 1118.56 967.297 938.505
7973.16 1245.17 1231.55 949.467 947.639
7975.9 1207.98 1235.63 926.154 932.005
7978.63 1253.73 1089.75 920.393 931.637
7981.36 807.545 1089.07 948.363 937.067
7984.09 1205.93 1054.43 942.444 898.711
7986.82 1149.83 1167.54 805.325 882.887
7989.55 1146.86 1200.26 900.892 881.182
7992.28 1304.09 1146.72 937.33 909.801
7995.01 989.223 1147.58 891.181 923.013
7997.74 1149.41 1107.7 940.529 934.153
8000.47 1184.45 1138.97 970.749 909.329
8003.2 1083.03 1121.06 816.708 879.188
8005.93 1095.69 1114.68 850.108 837.844
8008.66 1165.31 1155.28 846.716 867.438
8011.39 1204.85 1200.43 905.49 923.378
8014.12 1231.13 1235.9 1017.93 940.783
8016.84 1271.74 1200.74 898.93 919.658
8019.57 1099.34 1171.04 842.115 887.294
8022.3 1142.05 1180.45 920.837 904.998
8025.03 1299.95 1196.69 952.041 906.963
8027.75 1148.06 1175.22 848.012 890.538
8030.48 1077.63 1181.16 871.562 881.369
8033.21 1317.78 1213 924.532 915.043
8035.93 1243.58 1221.68 949.036 913.168
8038.66 1103.68 1159.69 865.936 855.851
8041.38 1131.81 1061.96 752.58 833.716
8044.11 950.394 1076.36 882.631 834.116
8046.84 1146.89 965.775 867.136 883.02
8049.56 800.044 1071.47 899.293 879.488
8052.29 1267.48 1077.72 872.036 881.01
8055.01 1165.65 1222.6 871.702 859.056
8057.73 1234.69 1174.14 833.429 853.968
8060.46 1122.1 1093.57 856.772 833.997
8063.18 923.943 1058.34 811.791 834.89
8065.91 1128.97 954.096 836.108 816.884
8068.63 809.374 1049.86 802.752 849.132
8071.35 1211.22 1027.77 908.536 830.327
8074.07 1062.7 1078.99 779.695 798.816
8076.8 963.048 1038.98 708.217 770.6
8079.52 1091.19 1067.16 823.888 783.683
8082.24 1147.26 1140.23 818.943 817.856
8084.96 1182.25 1134.24 810.738 822.211
8087.68 1073.2 1137.32 836.951 819.159
8090.4 1156.52 1151.17 809.787 844.463
8093.13 1223.8 1141.37 886.65 836.709
8095.85 1043.8 1129.28 813.69 843.03
8098.57 1120.25 1089.3 828.751 829.363
8101.29 1103.85 1136.45 845.649 828.673
8104.01 1185.25 1139.16 811.619 837.831
8106.73 1128.39 1100.82 856.226 817.247
8109.44 988.837 1044.62 783.897 799.16
8112.16 1016.63 986.007 757.357 764.444
8114.88 952.556 1011.27 752.076 756.309
8117.6 1064.63 993.132 759.492 736.994
8120.32 962.213 909.257 699.414 721.576
8123.04 700.931 859.044 705.822 672.258
8125.75 913.987 908.197 611.539 686.4
8128.47 1109.67 1041.87 741.839 720.029
8131.19 1101.96 1074.72 806.709 770.628
8133.91 1012.51 1031.3 763.338 756.817
8136.62 979.43 1017.22 700.404 728.284
8139.34 1059.73 1023.77 721.109 718.789
8142.05 1032.14 1041.47 734.853 725.792
8144.77 1032.55 881.239 721.414 696.107
8147.49 579.033 843.366 632.056 669.972
8150.2 918.519 830.499 656.446 644.939
8152.92 993.944 883.319 646.314 655.712
8155.63 737.493 826.607 664.377 637.253
8158.35 748.385 784.602 601.069 619.476
8161.06 867.928 758.186 592.982 602.595
8163.77 658.247 689.917 613.734 587.096
8166.49 543.575 676.721 554.572 596.598
8169.2 828.34 771.707 621.487 620.175
8171.91 943.205 892.69 684.467 659.322
8174.63 906.525 866.986 672.014 644.072
8177.34 751.228 890.205 575.735 633.619
8180.05 1012.86 896.46 653.107 647.357
8182.76 925.291 941.97 713.23 682.153
8185.47 887.757 898.718 680.123 662.577
8188.19 883.106 862.989 594.377 618.265
8190.9 818.105 851.404 580.294 601.97
8193.61 853 837.578 631.239 588.967
8196.32 841.629 874.721 555.366 594.432
8199.03 929.534 765.94 596.692 606.814
8201.74 526.658 686.204 668.386 613.164
8204.45 602.421 582.066 574.415 654.173
8207.16 617.118 649.458 719.717 641.057
8209.87 728.834 774.535 629.04 685.06
8212.58 977.655 856.165 706.421 650.385
8215.29 862.006 877.874 615.695 636.923
8217.99 793.962 818.07 588.652 597.649
8220.7 798.241 765.755 588.601 561.961
8223.41 705.061 780.975 508.629 552.732
8226.12 839.623 795.051 560.966 538.408
8228.83 840.469 808.767 545.63 581.9
8231.53 746.208 772.473 639.104 605.65
8234.24 730.743 777.185 632.217 640.101
8236.95 854.605 812.996 648.983 634.794
8239.65 853.639 854.09 623.183 641.574
8242.36 854.025 867.91 652.557 640.195
8245.06 896.066 866.636 644.846 620.207
8247.77 849.816 841.753 563.219 617.075
8250.47 779.378 814.404 643.16 625.301
8253.18 814.017 824.251 669.523 660.274
8255.88 879.356 896.747 668.14 658.558
8258.59 996.868 933.529 638.011 681.522
8261.29 924.362 959.246 738.417 672.338
8264 956.508 867.163 640.586 667.199
8266.7 720.618 877.78 622.595 623.617
8269.4 956.214 797.082 607.67 634.944
8272.11 714.415 861.395 674.566 631.072
8274.81 913.556 753.375 610.98 626.864
8277.51 632.155 816.553 595.047 600.91
8280.21 903.948 799.929 596.702 601.781
8282.92 863.683 770.33 613.594 610.228
8285.62 543.358 681.279 620.389 591
8288.32 636.795 727.108 539.018 601.92
8291.02 1001.17 858.401 646.353 621.45
8293.72 937.237 975.87 678.978 680.952
8296.42 989.2 926.604 717.526 664.249
8299.12 853.374 914.14 596.244 644.201
8301.82 899.846 871.973 618.834 606.426
8304.52 862.7 859.108 604.2 599.053
8307.22 814.777 885.759 574.126 592.14
8309.92 979.801 873.047 598.094 593.102
8312.62 824.565 872.29 607.085 594.593
8315.32 812.504 875.156 578.599 603.532
8318.01 988.4 852.497 624.913 593.832
8320.71 756.588 811.51 577.984 626.004
8323.41 689.543 740.43 675.114 601.96
8326.11 775.159 767.71 552.781 604.706
8328.8 838.429 829.695 586.221 578.106
8331.5 875.497 782.192 595.315 573.843
8334.2 632.65 841.821 539.994 590.486
8336.89 1017.32 859.774 636.15 606.724
8339.59 929.355 891.143 644.027 637.882
8342.28 726.759 846.854 633.468 614.933
8344.98 884.45 814.674 567.303 545.028
8347.67 832.813 840.776 434.312 505.817
8350.37 805.066 853.192 515.836 530.814
8353.06 921.698 845.402 642.294 579.78
8355.76 809.441 884.876 581.211 603.565
8358.45 923.488 859.84 587.19 556.953
8361.15 846.592 873.827 502.459 555.832
8363.84 851.4 780.627 577.847 555.746
8366.53 643.888 696.505 586.931 583.329
8369.22 594.227 665.99 585.21 580.169
8371.92 759.854 699.357 568.366 614.881
8374.61 743.991 773.076 691.068 604.263
8377.3 815.383 800.214 553.357 605.13
8379.99 841.269 753.827 570.965 572.417
8382.68 604.829 710.67 592.931 599.972
8385.37 685.91 695.801 636.02 553.121
8388.07 796.664 795.261 430.413 557.181
8390.76 903.208 858.436 605.11 538.593
8393.45 875.437 858.404 580.255 553.064
8396.14 796.568 767.028 473.826 538.59
8398.83 629.08 766.015 561.689 538.668
8401.51 872.397 779.338 580.489 530.53
8404.2 836.536 847.994 449.412 552.166
8406.89 835.051 817.893 626.596 521.943
8409.58 782.092 830.954 489.82 545.676
8412.27 875.718 852.105 520.613 548.864
8414.96 898.506 767.965 636.16 563.172
8417.64 529.671 780.869 532.743 585.773
8420.33 914.431 775.005 588.417 572.721
8423.02 880.914 891.926 597.003 552.334
8425.71 880.434 934.098 471.582 589.292
8428.39 1040.95 924.738 699.29 558.645
8431.08 852.834 867.607 505.064 529.278
8433.76 709.041 819.635 383.48 470.83
8436.45 897.029 787.391 523.947 460.478
8439.13 756.102 743.536 474.008 516.091
8441.82 577.477 718.217 550.317 522.578
8444.5 821.071 685.186 543.41 558.444
8447.19 657.011 800.36 581.606 543.829
8449.87 922.999 711.41 506.471 537.956
8452.56 554.221 770.49 525.791 489.094
8455.24 834.251 745.437 435.018 487.138
8457.92 847.839 837.106 500.603 495.784
8460.6 829.226 748.869 551.729 520.012
8463.29 569.542 759.578 507.702 544.934
8465.97 879.967 766.757 575.372 516.474
8468.65 850.764 864.876 466.347 530.014
8471.33 863.896 819.208 548.322 494.825
8474.01 742.963 808.145 469.807 499.325
8476.7 817.576 839.23 479.846 486.456
8479.38 957.151 769.698 509.714 489.383
8482.06 534.367 776.165 478.591 470.413
8484.74 836.976 740.256 422.935 465.509
8487.42 849.425 767.955 495.003 465.987
8490.1 617.465 723.706 480.023 480.248
8492.78 704.226 701.456 465.718 469.127
8495.45 782.676 771.227 461.641 460.121
8498.13 826.777 802.909 453.003 476.834
8500.81 799.274 832.496 515.858 494.286
8503.49 871.438 781.899 513.996 462.869
8506.17 674.984 796.317 358.754 437.098
8508.84 842.527 701.141 438.546 401.148
8511.52 585.91 670.881 406.144 431.68
8514.2 584.206 630.963 450.351 425.337
8516.88 722.772 731.829 419.517 439.836
8519.55 888.508 725.503 449.639 454.605
8522.23 565.23 754.681 494.658 450.793
8524.9 810.307 764.241 408.082 446.546
8527.58 917.185 840.106 436.897 396.92
8530.25 792.827 809.462 345.781 387.429
8532.93 718.373 747.557 379.61 371.286
8535.6 731.472 765.552 388.468 372.601
8538.28 846.811 773.713 349.724 359.109
8540.95 742.858 784.533 339.135 357.946
8543.62 763.932 745.476 384.979 365.263
8546.3 729.64 773.433 371.675 399.92
8548.97 826.727 738.853 443.105 402.26
8551.64 660.191 744.595 392.001 389.205
8554.31 746.866 731.443 332.509 353.646
8556.99 787.271 736.404 336.429 331.939
8559.66 675.075 756.994 326.88 352.148
8562.33 808.636 697.119 393.134 390.68
8565 607.647 719.886 452.027 412.005
8567.67 743.376 724.238 390.854 399.554
8570.34 821.692 837.344 355.781 390.155
8573.01 946.964 850.699 423.829 379.19
8575.68 783.44 859.263 357.961 407.31
8578.35 847.386 738.292 440.141 389.652
8581.02 584.05 688.997 370.854 383.069
8583.69 635.554 680.868 338.214 347.634
8586.36 822.999 770.047 333.834 363.47
8589.03 851.588 747.025 418.362 376.803
8591.69 566.489 753.178 378.213 423.099
8594.36 841.457 687.928 472.722 411.778
8597.03 655.837 756.728 384.4 421.947
8599.7 772.892 705.085 408.719 402.771
8602.36 686.527 741.173 415.193 415.243
8605.03 764.101 718.437 421.816 393.116
8607.7 704.682 762.291 342.338 406.791
8610.36 818.09 752.451 456.217 379.66
8613.03 734.582 749.287 340.425 381.15
8615.69 695.188 734.444 346.809 351.521
8618.36 773.563 787.183 367.328 398.172
8621.02 892.797 782.827 480.378 410.974
8623.69 682.121 782.597 385.215 417.128
8626.35 772.873 737.226 385.792 390.091
8629.01 756.683 776.51 399.265 415.586
8631.68 799.974 753.598 461.7 415.124
8634.34 704.138 798.464 384.407 456.449
8637 891.281 791.448 523.24 432.68
8639.67 778.925 772.216 390.394 437.433
8642.33 646.443 726.693 398.665 380.015
8644.99 754.71 591.381 350.987 412.048
8647.65 372.99 609.56 486.491 421.702
8650.31 700.981 590.862 427.626 449.091
8652.97 698.616 705.674 433.157 436.896
8655.63 717.427 686.616 449.904 422.203
8658.29 643.806 627.711 383.547 403.048
8660.95 521.899 641.961 375.695 386.655
8663.61 760.177 661.71 400.725 413.209
8666.27 703.052 719.205 463.209 395.975
8668.93 694.387 627.323 323.991 399.168
8671.59 484.53 661.179 410.305 345.966
8674.25 804.621 658.071 303.602 338.319
8676.91 685.061 653.206 301.048 302.858
8679.56 469.936 640.976 303.923 345.434
8682.22 767.929 591.854 431.33 362.689
8684.88 537.696 646.651 352.815 387.239
8687.54 634.327 543.669 377.572 399.433
8690.19 458.983 639.117 467.912 391.114
8692.85 824.042 640.754 327.857 349.613
8695.5 639.239 657.673 253.071 320.472
8698.16 509.74 647.379 380.487 324.62
8700.81 793.158 675.729 340.302 342.709
8703.47 724.288 686.205 307.337 357.715
8706.12 541.169 658.891 425.506 364.671
8708.78 711.216 564.948 361.17 384.707
8711.43 442.459 581.086 367.444 351.393
8714.08 589.583 510.566 325.565 309.9
8716.74 499.656 531.323 236.692 269.852
8719.39 504.729 595.377 247.298 261.843
8722.04 781.745 707.505 301.54 296.977
8724.7 836.041 832.227 342.095 334.417
8727.35 878.895 828.246 359.618 338.081
8730 769.802 732.047 312.53 333.009
8732.65 547.443 713.119 326.879 305.777
8735.3 822.112 724.626 277.921 313.674
8737.95 804.324 777.802 336.221 299.224
8740.6 706.971 730.045 283.53 279.908
8743.25 678.84 691.583 219.973 247.999
8745.9 688.939 614.714 240.494 228.18
8748.55 476.363 517.901 224.073 256.437
8751.2 388.402 502.465 304.745 256.732
8753.85 642.629 475.939 241.377 274.086
8756.5 396.787 583.912 276.136 273.614
8759.15 712.321 585.534 303.33 283.992
8761.79 647.494 687.14 272.509 267.909
8764.44 701.605 675.63 227.889 271.118
8767.09 677.792 641.783 312.957 288.84
8769.73 545.952 558.338 325.673 318.528
8772.38 451.271 583.613 316.955 295.414
8775.03 753.617 617.602 243.613 266.216
8777.67 647.918 718.518 238.081 269.295
8780.32 754.019 692.78 326.191 273.14
8782.96 676.402 704.96 255.148 287.247
8785.61 684.459 652.538 280.402 253.854
8788.25 596.753 626.203 226.011 252.861
8790.9 597.396 633.166 252.17 275.22
8793.54 705.348 672.35 347.479 306.913
8796.18 714.306 724.847 321.09 350.413
8798.83 754.887 736.121 382.67 334.56
8801.47 739.169 681.979 299.921 326.789
8804.11 551.88 666.572 297.777 292.863
8806.75 708.667 582.577 280.89 307.907
8809.4 487.183 584.34 345.053 309.022
8812.04 557.171 550.604 301.122 321.937
8814.68 607.459 629.818 319.637 318.959
8817.32 724.825 678.34 336.118 332.002
8819.96 702.736 703.92 340.252 331.195
8822.6 684.198 620.739 317.214 346.096
8825.24 475.281 624.33 380.822 346.291
8827.88 713.511 521.374 340.835 362.035
8830.52 375.329 583.321 364.447 341.944
8833.16 661.123 575.833 320.549 351.851
8835.8 691.046 660.08 370.557 348.761
8838.43 628.073 679.973 355.177 351.856
8841.07 720.802 673.947 329.834 337.648
8843.71 672.965 705.419 327.933 335.997
8846.35 722.489 732.014 350.223 331.034
8848.98 800.587 665.508 314.946 351.689
8851.62 473.448 560.309 389.898 307.448
8854.26 406.89 492.375 217.499 279.781
8856.89 596.787 584.994 231.945 271.205
8859.53 751.304 652.638 364.17 322.479
8862.16 609.822 631.318 371.32 348.501
8864.8 532.829 626.057 310.013 308.184
8867.43 735.519 603.422 243.218 290.07
8870.07 541.917 612.727 316.979 291.251
8872.7 560.745 606.844 313.556 315.699
8875.33 717.869 530.715 316.562 305.601
8877.97 313.532 562.634 286.685 325.854
8880.6 656.502 556.948 374.314 323.206
8883.23 700.81 676.486 308.618 339.859
8885.86 672.145 689.712 336.644 338.495
8888.49 696.18 570.143 370.223 334.518
8891.13 342.103 555.527 296.688 299.429
8893.76 628.298 511.882 231.378 244.057
8896.39 565.245 608.032 204.105 247.317
8899.02 630.553 486.614 306.468 247.822
8901.65 264.045 501.471 232.892 249.592
8904.28 609.814 423.104 209.417 238.662
8906.91 395.455 547.667 273.677 222.152
8909.54 637.734 549.386 183.361 246.221
8912.17 614.97 604.519 281.625 234.133
8914.79 560.854 577.862 237.413 269.789
8917.42 557.762 513.747 290.328 273
8920.05 422.625 429.338 291.257 250.938
8922.68 307.628 455.619 171.229 186.56
8925.3 636.605 494.842 97.1919 114.284
8927.93 540.294 592.922 74.4316 129.841
8930.56 601.866 545.877 217.9 131.21
8933.18 495.47 561.041 101.297 137.542
8935.81 585.787 592.764 93.4278 120.481
8938.43 697.034 609.273 166.72 130.161
8941.06 544.998 659.556 130.335 167.97
8943.68 736.636 578.993 206.856 167.083
8946.31 455.345 600.232 164.059 163.748
8948.93 608.715 470.044 120.329 145.803
8951.56 346.072 574.289 153.02 118.983
8954.18 768.079 487.667 83.6003 144.385
8956.8 348.85 460.623 196.535 162.751
8959.42 264.94 407.746 208.12 177.425
8962.05 609.446 462.154 127.621 101.446
8964.67 512.076 486.032 -31.4038 70.1301
8967.29 336.575 282.884 114.173 27.5897
