wavelength spec_sum spec_optimal
3418.5 1065.92 752.954
3421.43 1049.25 711.91
3424.36 983.121 680.685
3427.28 1064.46 750.583
3430.21 1032.09 717.673
3433.14 911.801 701.003
3436.07 940.812 671.833
3438.99 1147.66 826.119
3441.92 1045.06 758.402
3444.85 1022.33 717.81
3447.78 1057.68 710.832
3450.7 1092.24 773.888
3453.63 1039.75 719.232
3456.56 1076.06 751.636
3459.49 1029.89 779.167
3462.41 990.969 710.73
3465.34 1070.19 776.396
3468.27 1007.9 733.723
3471.19 969.671 679.039
3474.12 939.592 660.709
3477.05 956.502 704.784
3479.97 1019.25 759.671
3482.9 987.939 700.652
3485.83 948.669 686.408
3488.75 960.702 702.977
3491.68 941.797 701.202
3494.61 920.578 700.834
3497.53 958.569 721.246
3500.46 995.617 717.427
3503.39 934.195 677.057
3506.31 986.265 718
3509.24 974.143 748.297
3512.17 1108.3 826.7
3515.09 974.55 736.738
3518.02 954.916 677.239
3520.94 947.067 663.058
3523.87 993.409 742.375
3526.8 1018.85 746.223
3529.72 989.011 733.025
3532.65 1039.44 797.756
3535.57 1059.21 768.939
3538.5 908.295 719.72
3541.43 980.164 735.701
3544.35 985.02 732.63
3547.28 947.177 726.441
3550.2 971.309 752.691
3553.13 926.679 675.481
3556.05 988.29 749.519
3558.98 1008.96 725.756
3561.91 933.593 701.824
3564.83 888.87 672.793
3567.76 915.393 700.87
3570.68 925.555 721.937
3573.61 883.336 643.017
3576.53 909.08 704.498
3579.46 916.587 705.451
3582.38 936.159 732.126
3585.31 960.599 752.94
3588.23 962.765 741.937
3591.16 907.969 694.722
3594.08 974.402 755.09
3597.01 897.049 696.585
3599.93 926.21 731.057
3602.86 897.286 716.215
3605.78 961.034 749.825
3608.71 967.74 776.465
3611.63 923.419 717.445
3614.56 884.647 693.262
3617.48 958.097 726.714
3620.41 1024.19 769.138
3623.33 906.057 710.783
3626.25 928.836 704.592
3629.18 906.182 733.881
3632.1 972.958 736.481
3635.03 1006.59 795.693
3637.95 909.099 712.332
3640.88 914.65 698.586
3643.8 881.593 691.169
3646.72 992.724 776.951
3649.65 950.831 726.304
3652.57 924.047 694.032
3655.5 887.721 672.469
3658.42 886.691 678.062
3661.34 934.105 720.594
3664.27 899.621 677.785
3667.19 866.052 677.976
3670.11 859.998 629.489
3673.04 934.686 710.608
3675.96 886.347 654.201
3678.89 863.642 663.607
3681.81 841.959 669.017
3684.73 863.836 667.469
3687.66 881.011 700.879
3690.58 825.638 652.453
3693.5 817.964 647.685
3696.43 853.256 668.666
3699.35 880.323 682.232
3702.27 835.066 673.218
3705.2 935.803 770.041
3708.12 861.463 698.619
3711.04 861.094 673.235
3713.96 886.584 703.442
3716.89 861.499 705.197
3719.81 828.708 645.523
3722.73 843.755 690.132
3725.66 866.16 676.572
3728.58 822.397 672.051
3731.5 864.481 667.218
3734.42 881.844 715.722
3737.35 875.011 704.144
3740.27 891.686 701.279
3743.19 849.398 657.87
3746.11 856.703 699.769
3749.04 909.91 731.915
3751.96 886.05 704.325
3754.88 845.539 680.124
3757.8 858.713 671.752
3760.72 787.256 607.3
3763.65 819.389 651.59
3766.57 838 674.077
3769.49 791.471 637.462
3772.41 756.801 625.858
3775.33 756.614 618.276
3778.26 796.453 634.343
3781.18 802.891 633.039
3784.1 807.398 663.399
3787.02 765.611 624.52
3789.94 795.965 639.103
3792.87 795.323 635.454
3795.79 806.34 646.733
3798.71 841.072 679.574
3801.63 818.373 654.852
3804.55 862.783 691.004
3807.47 791.251 664.536
3810.39 824.129 684.655
3813.32 866.365 692.698
3816.24 866.71 703.774
3819.16 858.377 693.738
3822.08 826.953 680.25
3825 834.774 677.42
3827.92 829.517 669.502
3830.84 814.138 676.737
3833.76 808.367 669.396
3836.68 813.199 650.439
3839.6 816.937 665.867
3842.52 870.665 711.626
3845.45 835.613 678.541
3848.37 902.471 760.17
3851.29 849.229 720.209
3854.21 860.309 713.707
3857.13 843.804 711.725
3860.05 843.429 721.265
3862.97 851.373 681.543
3865.89 848.588 706.889
3868.81 833.57 681.306
3871.73 812.468 673.062
3874.65 756.654 632.404
3877.57 723.842 608.657
3880.49 704.407 584.559
3883.41 654.794 532.773
3886.33 623.385 531.222
3889.25 688.419 572.399
3892.17 656.264 552.41
3895.09 701.899 601.837
3898.01 703.509 611.206
3900.93 768.403 648.136
3903.85 766.49 646.135
3906.77 826.321 683.479
3909.69 770.058 660.427
3912.61 814.467 705.741
3915.53 869.205 729.254
3918.45 850.839 736.705
3921.36 910.318 768.452
3924.28 924.682 776.586
3927.2 916.883 791.081
3930.12 899.914 759.121
3933.04 891.209 765.754
3935.96 893.567 754.761
3938.88 873.797 743.341
3941.8 836.169 713.629
3944.72 823.923 693.785
3947.64 822.663 679.017
3950.56 795.025 681.408
3953.47 752.961 638.929
3956.39 689.459 569.377
3959.31 673.343 581.99
3962.23 635.656 530.439
3965.15 585.155 500.273
3968.07 587.082 497.21
3970.99 620.646 523.171
3973.9 642.22 556.591
3976.82 651.919 562.855
3979.74 689.681 624.412
3982.66 733.137 644.702
3985.58 739.55 626.966
3988.49 812.767 719.088
3991.41 811.099 692.682
3994.33 863.678 743.733
3997.25 876.164 757.782
4000.17 935.747 812.792
4003.08 962.828 811.339
4006 972.089 846.375
4008.92 953.915 839.58
4011.84 961.043 843.692
4014.76 952.316 830.563
4017.67 999.246 856.528
4020.59 1024.28 863.721
4023.51 1002.2 889.391
4026.42 1034.03 886.377
4029.34 1007.19 883.135
4032.26 1008.61 868.548
4035.18 994.465 878.618
4038.09 995.059 882.897
4041.01 1013.53 878.527
4043.93 945.033 839.551
4046.85 972.32 830.173
4049.76 951.8 842.024
4052.68 933.273 826.1
4055.6 927.328 806.584
4058.51 921.536 809.59
4061.43 890.908 750.685
4064.35 890.522 772.282
4067.26 816.73 724.846
4070.18 831.019 717.411
4073.1 830.835 728.81
4076.01 793.076 691.884
4078.93 780.542 683.983
4081.84 739.379 653.339
4084.76 694.505 608.473
4087.68 639.38 565.114
4090.59 602.969 514.662
4093.51 572.938 500.158
4096.43 539.587 445.248
4099.34 508.469 433.295
4102.26 537.717 465.907
4105.17 553.761 490.927
4108.09 546.508 481.296
4111.01 614.307 548.001
4113.92 639.851 564.469
4116.84 655.309 600.567
4119.75 689.725 615.069
4122.67 742.502 665.159
4125.58 787.393 685.61
4128.5 774.355 678.956
4131.41 789.823 722.132
4134.33 829.148 746.702
4137.24 849.373 789.831
4140.16 886.347 791.909
4143.07 916.556 821.746
4145.99 904.57 821.189
4148.91 938.631 867.838
4151.82 945.903 858.783
4154.73 976.62 885.617
4157.65 961.648 874.508
4160.56 989.433 900.631
4163.48 964.419 863.009
4166.39 1024.42 913.862
4169.31 1028.51 937.376
4172.22 1026.03 912.937
4175.14 1020.63 911.497
4178.05 1037.32 930.401
4180.97 1002.01 922.197
4183.88 1008.06 913.127
4186.8 1014.2 937.629
4189.71 1021.24 922.466
4192.62 1037.86 944.305
4195.54 1002.87 933.118
4198.45 998.073 902.364
4201.37 1013.03 936.398
4204.28 1016.22 921.141
4207.19 992.174 909.913
4210.11 1027.43 930.285
4213.02 985.989 906.204
4215.93 1014.46 914.087
4218.85 956.591 873.607
4221.76 993.768 911.533
4224.68 990.976 897.979
4227.59 1016.81 910.865
4230.5 957.508 886.644
4233.42 947.722 888.808
4236.33 963.636 888.109
4239.24 963.579 890.692
4242.16 951.363 871.636
4245.07 931.869 853.41
4247.98 973.755 902.41
4250.89 956.348 877.972
4253.81 945.414 868.181
4256.72 953.029 857.567
4259.63 928.193 857.854
4262.55 953.241 861.928
4265.46 941.684 853.967
4268.37 927.911 848.26
4271.28 921.629 858.874
4274.2 886.06 827.049
4277.11 890.919 831.505
4280.02 885.567 818.194
4282.93 892.371 825.095
4285.85 877.536 800.832
4288.76 849.469 784.256
4291.67 826.522 767.028
4294.58 813.312 764.384
4297.49 802.459 750.388
4300.41 798.342 751.984
4303.32 776.072 709.845
4306.23 752.018 694.619
4309.14 710.614 665.736
4312.05 710.424 676.015
4314.97 692.784 637.857
4317.88 660.501 589.906
4320.79 648.454 590.726
4323.7 616.591 558.984
4326.61 584.969 532.477
4329.52 552.759 490.185
4332.43 520.224 450.995
4335.35 480.207 419.428
4338.26 459.654 423.177
4341.17 466.859 418.067
4344.08 470.451 420.268
4346.99 454.96 443.967
4349.9 528.48 487.306
4352.81 511.422 495.019
4355.72 578.091 527.546
4358.63 588 555.068
4361.54 589.149 563.355
4364.45 618.655 583.963
4367.36 642.894 618.677
4370.28 671.892 651.26
4373.19 685.709 658.538
4376.1 697.444 657.944
4379.01 720.307 686.482
4381.92 730.445 705.313
4384.83 746.623 715.058
4387.74 770.274 737.17
4390.65 766.025 725.167
4393.56 767.998 731.463
4396.47 804.233 760.3
4399.38 803.756 763.614
4402.29 807.584 780.341
4405.2 823.381 784.078
4408.11 819.921 793.352
4411.02 826.643 796.778
4413.93 829.021 800.482
4416.83 840.838 806.103
4419.74 838.73 794.802
4422.65 831.486 809.522
4425.56 834.893 804.149
4428.47 832.867 809.13
4431.38 857.921 812.884
4434.29 853.264 826.814
4437.2 844.439 823.555
4440.11 858.165 825.525
4443.02 859.209 829.961
4445.93 852.36 829.782
4448.84 833.956 807.847
4451.74 874.494 843.276
4454.65 869.175 840.18
4457.56 854.305 834.478
4460.47 862.933 843.238
4463.38 871.27 846.254
4466.29 878.72 839.242
4469.19 884.808 859.326
4472.1 849.209 824.128
4475.01 851.233 842.395
4477.92 849.641 829.065
4480.83 875.054 849.753
4483.74 886.098 873.629
4486.64 883.551 860.369
4489.55 894.882 867.17
4492.46 901.038 867.087
4495.37 886.645 863.5
4498.27 905.629 893.898
4501.18 895.289 875.452
4504.09 868.101 861.474
4507 885.666 861.48
4509.9 899.475 865.234
4512.81 891.391 863.723
4515.72 886.862 865.321
4518.63 862.103 862.037
4521.53 894.127 882.526
4524.44 874.254 865.918
4527.35 880.218 873.415
4530.26 847.74 845.649
4533.16 880.898 857.567
4536.07 858.137 837.197
4538.98 853.371 859.679
4541.88 845.432 825.214
4544.79 847.97 833.046
4547.7 848.504 856.864
4550.6 852.815 854.119
4553.51 846.144 830.349
4556.41 846.613 845.636
4559.32 866.313 848.919
4562.23 838.595 834.455
4565.13 832.557 819.197
4568.04 836.014 827.787
4570.95 841.184 830.532
4573.85 833.707 837.818
4576.76 842.555 826.516
4579.66 851.013 840.261
4582.57 813.976 820.133
4585.47 827.41 838.951
4588.38 827.589 807.554
4591.29 795.895 804.222
4594.19 824.243 820.197
4597.1 856.913 825.05
4600 809.747 806.843
4602.91 818.13 807.756
4605.81 832.007 839.797
4608.72 813.579 804.365
4611.62 801.975 811.43
4614.53 813.978 798.909
4617.43 801.902 812.019
4620.34 780.003 799.587
4623.24 797.783 801.933
4626.15 800.968 793.861
4629.05 775.299 788.966
4631.96 800.507 803.32
4634.86 796.27 793.67
4637.77 788.298 812.119
4640.67 788.942 798.524
4643.57 770.782 787.855
4646.48 763.612 770.799
4649.38 788.909 797.537
4652.29 777.621 793.211
4655.19 801.568 798.535
4658.09 808.539 819.417
4661 784.725 808.274
4663.9 790.173 814.458
4666.81 796.03 809.137
4669.71 784.411 794.632
4672.61 793.939 803.032
4675.52 787.137 794.367
4678.42 781.14 823.744
4681.32 757.633 783.545
4684.23 755.684 783.012
4687.13 798.141 801.234
4690.03 771.097 790.232
4692.94 766.777 787.179
4695.84 761.91 778.623
4698.74 759.166 777.169
4701.65 761.426 789.836
4704.55 788.731 810.32
4707.45 746.977 773.247
4710.35 753.929 788.858
4713.26 781.452 797.235
4716.16 746.152 781.166
4719.06 732.185 773
4721.96 759.16 776.575
4724.87 738.15 751.727
4727.77 721.332 766.429
4730.67 716.954 754.02
4733.57 729.384 751.829
4736.48 709.773 727.918
4739.38 687.822 720.219
4742.28 710.944 741.715
4745.18 698.593 729.128
4748.08 688.513 720.692
4750.98 684.714 710.659
4753.89 679.578 713.612
4756.79 672.106 704.619
4759.69 674.432 691.863
4762.59 679.568 711.559
4765.49 661.7 698.067
4768.39 655.016 677
4771.29 648.496 673.56
4774.2 626.387 673.201
4777.1 642.4 681.99
4780 646.071 688.619
4782.9 629.193 650.031
4785.8 626.34 650.63
4788.7 636.756 669.85
4791.6 606.542 640.648
4794.5 611.87 639.344
4797.4 587.222 626.19
4800.3 583.074 615.196
4803.2 611.294 623.009
4806.1 607.135 632.75
4809 581.893 610.147
4811.9 571.991 597.885
4814.8 546.473 594.743
4817.7 556.178 570.747
4820.6 574.032 583.045
4823.5 527.932 555.411
4826.4 513.126 551.234
4829.3 525.564 537.392
4832.2 491.953 519.034
4835.1 485.094 520.623
4838 471.202 497.591
4840.9 438.805 490.279
4843.8 461.685 479.326
4846.7 442.837 460.053
4849.6 408.658 442.789
4852.5 411.307 431.124
4855.4 357.519 382.397
4858.3 351.886 367.282
4861.19 342.411 352.022
4864.09 332.969 362.61
4866.99 342.286 383.22
4869.89 369.411 419.353
4872.79 397.137 417.655
4875.69 403.554 432.233
4878.59 415.958 456.209
4881.48 442.473 473.37
4884.38 445.681 494.037
4887.28 459.903 500.185
4890.18 462.289 509.015
4893.08 471.535 529.625
4895.97 495.713 538.456
4898.87 500.615 545.321
4901.77 503.306 554.378
4904.67 514.278 566.899
4907.57 531.652 574.95
4910.46 514.895 573.66
4913.36 541.914 590.967
4916.26 537.405 598.728
4919.16 572.985 614.579
4922.05 587.726 626.115
4924.95 571.33 601.374
4927.85 584.724 625.36
4930.74 579.098 616.33
4933.64 594.864 639.792
4936.54 595.41 650.178
4939.43 595.915 654.196
4942.33 589.542 647.575
4945.23 581.189 635.801
4948.12 566.729 636.663
4951.02 597.758 649.755
4953.92 590.213 653.39
4956.81 591.523 655.322
4959.71 577.075 648.025
4962.61 600.156 661.115
4965.5 595.304 653.902
4968.4 609.978 664.485
4971.29 610.067 681.01
4974.19 627.468 684.716
4977.09 597.358 657.609
4979.98 592.581 660.122
4982.88 593.066 658.385
4985.77 622.907 687.851
4988.67 608.395 675.316
4991.56 620.654 676.49
4994.46 606.806 668.024
4997.35 611.171 674.319
5000.25 618.559 686.781
5003.14 601.773 668.177
5006.04 610.76 683.812
5008.93 603.832 679.034
5011.83 618.887 687.825
5014.72 617.882 692.476
5017.62 591.546 678.2
5020.51 633.681 684.018
5023.41 599.821 660.053
5026.3 616.305 679.233
5029.2 587.599 659.703
5032.09 611.447 671.61
5034.98 604.309 675.566
5037.88 591.927 669.168
5040.77 606.848 660.155
5043.67 592.573 651.131
5046.56 609.98 673.454
5049.45 601.542 656.406
5052.35 611.316 674.556
5055.24 615.842 676.952
5058.13 602.696 667.433
5061.03 609.071 670.246
5063.92 596.142 673.012
5066.81 598.5 668.973
5069.71 593.477 666.019
5072.6 585.988 654.133
5075.49 594.549 661.488
5078.39 580.53 652.846
5081.28 599.609 664.312
5084.17 592.875 665.329
5087.06 613.325 672.734
5089.96 577.153 658.839
5092.85 595.375 670.385
5095.74 602.224 668.631
5098.63 589.205 659.946
5101.53 589.753 662.397
5104.42 591.717 667.101
5107.31 578.445 678.301
5110.2 582.17 656.461
5113.09 579.876 656.443
5115.99 602.265 662.235
5118.88 578.419 656.639
5121.77 579.575 648.761
5124.66 598.101 665.479
5127.55 583.128 669.67
5130.44 583.326 650.889
5133.34 566.229 652.505
5136.23 591.259 663.582
5139.12 585.158 655.209
5142.01 580.194 663.393
5144.9 585.912 665.477
5147.79 572.819 657.506
5150.68 571.955 661.842
5153.57 586.033 652.802
5156.46 583.021 652.931
5159.35 569.811 660.613
5162.24 579.319 670.227
5165.13 547.233 633.494
5168.02 588.445 669.54
5170.92 567.09 658.353
5173.81 569.228 660.334
5176.7 563.493 650.699
5179.59 576.432 651.666
5182.48 572.266 656.827
5185.36 546.389 647.459
5188.25 556.307 644.69
5191.14 553.026 640.27
5194.03 569.224 655.692
5196.92 563.29 655.829
5199.81 568.8 646.705
5202.7 550.115 631.944
5205.59 568.648 657.365
5208.48 561.38 647.388
5211.37 554.457 647.557
5214.26 574.042 646.014
5217.15 562.237 638.15
5220.04 547.641 621.817
5222.92 563.284 629.582
5225.81 552.17 633.769
5228.7 537.144 624.415
5231.59 540.108 627.814
5234.48 541.377 624.196
5237.37 547.775 631.545
5240.25 557.814 624.665
5243.14 513.139 617.367
5246.03 526.088 611.12
5248.92 555.894 629.085
5251.81 539.672 618.453
5254.69 548.456 630.471
5257.58 527.988 621.192
5260.47 526.818 618.146
5263.36 538.536 627.268
5266.24 535.156 625.571
5269.13 544.172 616.165
5272.02 532.959 617.229
5274.9 538.404 621.859
5277.79 526.312 616.328
5280.68 525.323 618.759
5283.56 544.245 629.001
5286.45 518.015 604.415
5289.34 504.236 589.577
5292.22 539.362 622.137
5295.11 533.362 616.333
5298 532.886 609.189
5300.88 521.106 613.026
5303.77 531.466 614.468
5306.65 517.653 592.881
5309.54 521.704 615.48
5312.43 525.948 617.35
5315.31 524.094 595.055
5318.2 524.115 591.904
5321.08 511.866 592.663
5323.97 515.353 615.216
5326.85 513.754 609.301
5329.74 502.577 597.072
5332.62 521.467 600.923
5335.51 500.481 587.762
5338.4 520.862 583.743
5341.28 519.396 590.314
5344.16 500.438 584.441
5347.05 498.34 588.56
5349.93 500.305 590.14
5352.82 496.526 584.27
5355.7 513.581 594.437
5358.59 519.18 602.74
5361.47 508.697 591.291
5364.36 488.77 583.111
5367.24 509.365 590.19
5370.12 496.112 599.719
5373.01 511.816 588.932
5375.89 518.178 594.209
5378.78 508.013 590.272
5381.66 509.44 600.835
5384.54 490.71 582.839
5387.43 505.657 584.538
5390.31 471.425 575.87
5393.19 494.376 594.213
5396.08 512.626 591.312
5398.96 497.541 590.635
5401.84 493.334 588.957
5404.72 485.447 584.458
5407.61 467.095 558.855
5410.49 491.834 584.803
5413.37 498.854 588.983
5416.25 470.705 563.947
5419.14 482.189 569.412
5422.02 475.763 573.914
5424.9 489.229 571.839
5427.78 486.387 573.231
5430.67 488.512 573.052
5433.55 480.282 568.486
5436.43 505.352 587.796
5439.31 483.436 578.958
5442.19 477.364 567.891
5445.07 481.379 569.013
5447.96 491.859 580.428
5450.84 468.912 567.46
5453.72 488.252 568.895
5456.6 464.515 555.509
5459.48 462.888 546.603
5462.36 478.299 564.461
5465.24 479.815 568.545
5468.12 494.13 571.279
5471 462.385 544.844
5473.88 474.493 580.287
5476.76 476.82 554.807
5479.64 468.181 555.936
5482.52 481.004 557.86
5485.4 468.786 543.973
5488.28 465.474 559.087
5491.16 467.517 545.487
5494.04 476.696 548.589
5496.92 444.005 540.236
5499.8 470.288 562.173
5502.68 452.911 547.611
5505.56 457.703 545.432
5508.44 467.359 546.385
5511.32 461.439 541.302
5514.2 450.204 528.369
5517.08 446.876 534.912
5519.96 458.395 549.287
5522.84 457.46 540.501
5525.72 449.906 539.291
5528.59 468.696 555.59
5531.47 452.955 540.105
5534.35 442.901 550.007
5537.23 460.888 548.778
5540.11 455.516 550.759
5542.99 458.065 543.161
5545.86 459.588 543.329
5548.74 457.32 540.163
5551.62 463.994 534.175
5554.5 436.572 538.468
5557.37 441.521 523.3
5560.25 449.864 544.407
5563.13 442.853 534.595
5566.01 445.593 525.431
5568.88 451.574 539.786
5571.76 448.952 526.882
5574.64 452.156 539.278
5577.52 459.522 535.687
5580.39 430.021 524.982
5583.27 471.173 541.483
5586.15 431.545 519.532
5589.02 443.887 522.803
5591.9 452.176 541.809
5594.77 431.741 527.828
5597.65 440.031 526.514
5600.53 424.529 510.672
5603.4 430.607 519.71
5606.28 437.644 522.368
5609.15 431.654 528.629
5612.03 424.306 513.651
5614.91 441.968 524.273
5617.78 435.115 528.457
5620.66 426.924 503.191
5623.53 441.342 524.645
5626.41 407.09 506.595
5629.28 430.856 529.711
5632.16 410.636 511.689
5635.03 421.879 518.374
5637.91 429.662 504.133
5640.78 422.187 510.347
5643.66 429.283 505.203
5646.53 411.602 497.945
5649.4 440.753 501.335
5652.28 426.012 501.968
5655.15 421.165 500.34
5658.03 429.003 511.388
5660.9 427.761 515.55
5663.77 425.018 505.995
5666.65 423.957 504.038
5669.52 419.376 496.319
5672.39 417.368 496.166
5675.27 411.417 490.429
5678.14 415.321 497.605
5681.01 420.764 497.176
5683.89 420.64 494.131
5686.76 406.343 494.95
5689.63 410.819 496.674
5692.51 414.422 502.318
5695.38 400.401 494.573
5698.25 413.574 498.908
5701.12 404.814 482.026
5704 416.915 490.254
5706.87 397.907 484.389
5709.74 412.856 492.849
5712.61 408.024 488.036
5715.48 389.508 483.623
5718.36 408.965 506.485
5721.23 402.951 492.374
5724.1 415.77 488.156
5726.97 402.532 481.516
5729.84 385.032 481.715
5732.71 395.739 481.916
5735.58 395.242 470.829
5738.45 389.672 480.087
5741.32 399.166 484.599
5744.2 413.642 501.502
5747.07 402.292 488.56
5749.94 401.328 478.751
5752.81 390.615 485.829
5755.68 402.45 478.092
5758.55 391.43 466.393
5761.42 404.546 485.213
5764.29 370.741 461.236
5767.16 391.53 488.496
5770.03 394.039 472.771
5772.9 389.866 480.174
5775.77 408.254 496.625
5778.64 388.542 479.914
5781.51 379.768 481.079
5784.37 381.524 470.441
5787.24 394.515 489.026
5790.11 383.954 470.186
5792.98 382.642 470.385
5795.85 405.331 473.69
5798.72 385.105 465.257
5801.59 372.741 469.908
5804.46 396.299 474.376
5807.32 383.185 469.643
5810.19 394.878 474.189
5813.06 382.721 468.688
5815.93 395.796 480.206
5818.8 373.28 447.136
5821.66 369.321 461.934
5824.53 381.423 457.46
5827.4 387.825 474.804
5830.27 376.304 458.559
5833.13 385.185 466.977
5836 385.521 462.758
5838.87 373.762 456.285
5841.73 405.229 486.01
5844.6 389.665 466.906
5847.47 394.168 460.042
5850.33 361.344 440.448
5853.2 383.548 467.143
5856.07 383.575 466.843
5858.93 385.618 474.355
5861.8 373.844 453.407
5864.67 375.74 464.109
5867.53 367.297 449.4
5870.4 368.482 450.031
5873.26 386.002 460.441
5876.13 377.379 447.064
5878.99 370.816 448.447
5881.86 358.578 438.35
5884.72 353.666 444.306
5887.59 365.677 447.994
5890.45 366.475 453.171
5893.32 360.821 449.963
5896.18 364.569 443.95
5899.05 365.455 451.122
5901.91 363.44 450.509
5904.78 370.343 451.585
5907.64 369.263 452.282
5910.51 375.975 457.327
5913.37 358.677 433.177
5916.23 381.979 437.752
5919.1 362.528 444.453
5921.96 363.33 439.816
5924.82 340.301 433.694
5927.69 369.644 448.636
5930.55 360.389 445.421
5933.41 355.815 436.068
5936.28 356.397 435.264
5939.14 342.895 437.433
5942 356.38 430.826
5944.87 350.993 426.426
5947.73 350.062 438.424
5950.59 359.373 443.967
5953.45 355.653 450.23
5956.32 375.17 432.746
5959.18 349.102 430.872
5962.04 347.442 436.585
5964.9 349.37 416.64
5967.76 353.959 435.361
5970.63 369.952 439.7
5973.49 347.61 418.807
5976.35 357.312 418.629
5979.21 344.196 421.55
5982.07 353.473 434.733
5984.93 342.764 421.939
5987.79 348.213 422.342
5990.65 332.488 414.146
5993.51 359.007 436.586
5996.37 349.115 426.472
5999.24 355.258 426.63
6002.1 343.58 415.749
6004.96 355.147 425.742
6007.82 342.788 425.089
6010.68 344.224 420.219
6013.54 350.342 422.979
6016.4 334.071 417.771
6019.25 320.599 396.003
6022.11 329.223 397.384
6024.97 338.93 404.773
6027.83 342.832 406.844
6030.69 355.969 418.709
6033.55 354.876 412.78
6036.41 336.157 413.679
6039.27 323.281 401.6
6042.13 334.208 406.294
6044.99 346.122 411.389
6047.84 337.114 409.237
6050.7 326.534 405.294
6053.56 333.126 408.079
6056.42 328.969 409.329
6059.28 334.508 408.42
6062.13 343.858 412.236
6064.99 314.633 388.111
6067.85 326.231 400.176
6070.71 323.09 412.029
6073.56 326.855 397.131
6076.42 341.026 415.651
6079.28 327.989 395.622
6082.13 337.401 409.77
6084.99 337.406 401.789
6087.85 332.563 394.282
6090.7 326.716 394.649
6093.56 333.273 409.072
6096.42 333.817 403.096
6099.27 318.724 398.123
6102.13 330.899 397.226
6104.98 331.8 408.239
6107.84 340.807 400.666
6110.7 320.894 395.037
6113.55 329.951 395.808
6116.41 317.427 403.394
6119.26 324.962 405.167
6122.12 313.018 392.76
6124.97 325.426 390.489
6127.83 322.793 399.372
6130.68 313.251 394.182
6133.53 329.926 388.575
6136.39 309.924 384.669
6139.24 324.233 380.571
6142.1 323.884 394.205
6144.95 319.842 388.621
6147.81 323.038 377.489
6150.66 320.162 394.859
6153.51 305.325 390.088
6156.37 315.936 382.79
6159.22 330.958 402.21
6162.07 331.55 387.165
6164.93 311.091 387.796
6167.78 316.437 389.045
6170.63 318.4 381.182
6173.48 310.555 370.301
6176.34 311.261 369.145
6179.19 314.913 388.415
6182.04 304.024 388.863
6184.89 308.679 372.041
6187.75 325.024 389.597
6190.6 325.945 376.024
6193.45 315.028 387.99
6196.3 306.211 381.724
6199.15 308.425 395.44
6202 295.415 373.35
6204.86 321.83 370.628
6207.71 313.566 380.027
6210.56 303.333 367.361
6213.41 302.137 375.296
6216.26 310.869 374.04
6219.11 312.987 382.395
6221.96 299.551 369.924
6224.81 319.652 374.433
6227.66 317.45 376.403
6230.51 309.345 365.734
6233.36 302.752 354.041
6236.21 308.205 377.247
6239.06 303.954 368.756
6241.91 307.845 379.475
6244.76 302.982 354.618
6247.61 295.714 361.987
6250.46 299.105 349.077
6253.31 301.822 359.483
6256.16 302.804 365.928
6259 296.74 359.41
6261.85 300.918 362.943
6264.7 308.537 362.88
6267.55 303.373 359.906
6270.4 302.935 362.406
6273.25 287.224 349.972
6276.09 287.942 351.959
6278.94 280.086 340.02
6281.79 291.287 359.889
6284.64 281.152 341.457
6287.48 300.359 360.862
6290.33 289.554 351.168
6293.18 293.573 352.81
6296.03 291.8 351.284
6298.87 287.04 334.027
6301.72 284.54 353.968
6304.57 288.406 348.339
6307.41 283.669 347.434
6310.26 294.508 337.144
6313.1 286.075 345.225
6315.95 285.134 350.595
6318.8 287.62 337.007
6321.64 301.538 350.197
6324.49 303.097 348.23
6327.33 285.391 343.333
6330.18 294.608 341.757
6333.02 281.616 339.812
6335.87 274.272 339.519
6338.71 284.621 340.661
6341.56 286.472 338.373
6344.4 293.641 344.612
6347.25 284.208 340.723
6350.09 286.62 333.906
6352.94 284.4 331.42
6355.78 287.741 337.317
6358.62 283.314 336.925
6361.47 286.997 334.568
6364.31 281.465 332.025
6367.15 280.199 325.703
6370 275.196 328
6372.84 275.197 323.92
6375.68 275.958 318.57
6378.53 272.096 326.096
6381.37 295.494 343.071
6384.21 292.46 326.823
6387.05 272.934 314.647
6389.9 277.362 326.693
6392.74 267.791 318.316
6395.58 271.001 313.532
6398.42 274.703 318.03
6401.26 276.089 326.231
6404.11 269.397 326.959
6406.95 282.447 328.963
6409.79 274.266 320.861
6412.63 278.643 324.571
6415.47 280.6 324.069
6418.31 263.466 316.881
6421.15 266.425 317.449
6423.99 284.287 318.407
6426.83 257.388 310.887
6429.67 248.157 306.077
6432.51 266.796 311.954
6435.35 280.881 328.482
6438.19 273.972 314.553
6441.03 258.361 301.228
6443.87 265.253 312.908
6446.71 270.967 312.23
6449.55 266.982 305.947
6452.39 270.815 301.88
6455.23 256.788 294.864
6458.07 259.595 298.448
6460.91 256.033 299.957
6463.75 249.786 304.946
6466.59 256.386 295.769
6469.42 259.155 293.103
6472.26 256.77 286.669
6475.1 244.422 293.152
6477.94 258.973 283.17
6480.78 242.615 275.503
6483.61 246.46 285.706
6486.45 230.301 278.576
6489.29 251.872 286.677
6492.12 235.8 273.707
6494.96 221.82 278.015
6497.8 247.333 272.893
6500.63 233.613 282.451
6503.47 236.207 262.795
6506.31 233.019 268.318
6509.14 228.332 263.032
6511.98 218.206 246.387
6514.82 217.388 255.661
6517.65 216.717 244.768
6520.49 207.429 247.088
6523.32 223.008 251.858
6526.16 203.173 246.872
6528.99 211.425 240.242
6531.83 209.864 233.834
6534.66 199.579 218.443
6537.5 183.852 217.643
6540.33 200.484 227.075
6543.17 181.344 218.851
6546 182.719 202.555
6548.83 169.032 196.327
6551.67 185.613 201.788
6554.5 163.874 190.407
6557.34 142.939 179.702
6560.17 147.181 174.297
6563 150.856 168.796
6565.84 156.22 180.393
6568.67 157.308 189.629
6571.5 172.602 194.609
6574.33 171.204 191.684
6577.17 172.046 196.236
6580 176.071 201.353
6582.83 195.296 213.491
6585.66 183.386 206.089
6588.5 192.26 210.949
6591.33 193.494 221.088
6594.16 205.612 224.882
6596.99 200.359 230.674
6599.82 209.186 239.286
6602.65 203.403 233.599
6605.48 215.259 236.897
6608.32 220.83 240.967
6611.15 204.544 236.299
6613.98 211.74 231.942
6616.81 215.696 246.696
6619.64 211.383 237.067
6622.47 231.119 260.145
6625.3 228.862 249.087
6628.13 214.067 247.912
6630.96 213.088 255.823
6633.79 221.902 254.612
6636.62 226.764 254.875
6639.44 211.019 246.214
6642.27 225.333 259.1
6645.1 220.764 258.659
6647.93 218.3 258.345
6650.76 235.817 264.664
6653.59 214.179 249.515
6656.42 232.227 249.722
6659.24 225.854 256.943
6662.07 233.406 261.968
6664.9 233.803 271.887
6667.73 224.388 257.049
6670.56 239.079 269.56
6673.38 229.252 269.158
6676.21 216.815 252.172
6679.04 250.533 271.977
6681.86 235.827 262.75
6684.69 244.318 261.8
6687.52 232.874 261.797
6690.34 232.372 269.328
6693.17 252.089 269.805
6695.99 238.508 274.131
6698.82 241.448 275.27
6701.65 230.143 255.531
6704.47 241.516 274.314
6707.3 225.769 264.169
6710.12 232.131 260.911
6712.95 245.904 267.145
6715.77 239.393 263.661
6718.6 241.813 261.577
6721.42 241.347 261.755
6724.25 233.07 268.979
6727.07 239.032 259.277
6729.89 236.73 262.016
6732.72 231.035 260.772
6735.54 232.869 262.585
6738.37 234.857 265.849
6741.19 241.032 262.321
6744.01 238.203 258.997
6746.83 232.561 252.076
6749.66 226.529 262.427
6752.48 234.466 254.886
6755.3 220.953 251.817
6758.13 232.766 257.552
6760.95 239.358 251.837
6763.77 217.801 252.146
6766.59 232.162 252.434
6769.41 218.394 239.3
6772.24 243.917 258.36
6775.06 228.914 255.589
6777.88 230.151 255.888
6780.7 232.42 255.361
6783.52 238.723 252.306
6786.34 233.34 258.96
6789.16 219.196 242.484
6791.98 221.651 236.949
6794.8 214.765 243.269
6797.62 227.326 255.805
6800.44 217.919 240.485
6803.26 225.279 236.018
6806.08 214.381 239.522
6808.9 214.915 232.973
6811.72 240.919 258.094
6814.54 202.721 234.922
6817.36 215.474 238.706
6820.18 220.672 238.055
6823 222.385 234.655
6825.81 227.681 241.604
6828.63 227.479 230.815
6831.45 213.53 237.438
6834.27 236.724 251.968
6837.09 239.239 258.806
6839.9 222.03 253.608
6842.72 212.101 232.315
6845.54 222.123 238.255
6848.35 222.939 244.198
6851.17 222.571 228.396
6853.99 236.922 249.605
6856.8 220.643 238.464
6859.62 206.632 231.338
6862.44 180.62 207.486
6865.25 172.751 187.631
6868.07 158.892 183.894
6870.89 160.2 186.199
6873.7 190.252 196.09
6876.52 182.811 204.147
6879.33 192.702 212.308
6882.15 191.164 200.329
6884.96 188.885 202.595
6887.78 179.879 202.074
6890.59 184.384 211.769
6893.4 183.159 200.263
6896.22 193.586 210.25
6899.03 199.029 207.032
6901.85 189.605 213.718
6904.66 189.345 208.247
6907.47 199.433 217.804
6910.29 198.407 217.319
6913.1 212.76 224.228
6915.91 203.183 219.614
6918.73 205.441 221.229
6921.54 198.735 222.237
6924.35 211.294 221.762
6927.16 197.78 223.001
6929.97 210.46 222.59
6932.79 198.842 223.502
6935.6 201.141 216.365
6938.41 218.122 229.872
6941.22 192.257 211.583
6944.03 223.784 231.857
6946.84 202.263 226.815
6949.65 206.682 221.686
6952.47 191.285 219.462
6955.28 208.861 223.984
6958.09 199.064 223.626
6960.9 222.06 226.092
6963.71 200.302 224.198
6966.52 213.292 222.816
6969.33 206.275 223.699
6972.13 212.549 225.626
6974.94 204.967 220.441
6977.75 208.089 230.044
6980.56 204.881 216.275
6983.37 217.07 230.496
6986.18 210.171 222.577
6988.99 207.759 226.077
6991.8 215.469 228.815
6994.6 211.495 212.171
6997.41 220.485 227.171
7000.22 212.408 229.538
7003.03 199.239 210.288
7005.83 213.824 219.659
7008.64 212.752 220.091
7011.45 201.048 226.999
7014.25 208.154 223.949
7017.06 208.945 222.213
7019.87 186.616 203.197
7022.67 197.772 219.125
7025.48 209.569 215.725
7028.29 212.701 213.696
7031.09 212.013 227.3
7033.9 193.109 216.141
7036.7 200.698 212.213
7039.51 192.38 217.25
7042.31 203.946 227.235
7045.12 207.595 228.238
7047.92 207.57 214.982
7050.73 199.283 208.243
7053.53 207.566 218.174
7056.33 196.624 214.494
7059.14 195.072 204.107
7061.94 190.566 216.702
7064.74 209.731 220.182
7067.55 201.943 209.362
7070.35 188.226 203.39
7073.15 210.011 214.942
7075.96 209.797 215.008
7078.76 194.358 209.719
7081.56 199.133 208.519
7084.36 201.815 209.71
7087.17 203.802 198.754
7089.97 185.248 200.445
7092.77 195.752 206.606
7095.57 190.371 198.259
7098.37 184.355 202.382
7101.17 183.727 197.957
7103.97 208.898 215.279
7106.77 203.368 197.215
7109.57 200.07 205.814
7112.37 202.499 207.479
7115.17 193.632 203.812
7117.97 192.026 200.99
7120.77 198.146 209.462
7123.57 202.891 211.812
7126.37 195.127 210.914
7129.17 183.91 202.954
7131.97 202.714 213.143
7134.77 203.62 209.753
7137.57 188.416 191.62
7140.37 188.942 195.042
7143.17 202.607 203.419
7145.96 196.493 196.685
7148.76 202.813 212.315
7151.56 189.398 198.581
7154.36 180.899 196.911
7157.15 186.403 201.107
7159.95 181.481 192.026
7162.75 194.101 203.152
7165.54 185.096 196.169
7168.34 182.969 195.742
7171.14 185.813 188.805
7173.93 190.158 185.592
7176.73 193.989 189.971
7179.52 168.733 176.724
7182.32 179.16 182.993
7185.12 175.988 168.41
7187.91 173.554 177.424
7190.71 178.303 182.168
7193.5 176.614 182.646
7196.29 172.635 182.263
7199.09 167.96 179.294
7201.88 165.14 165.717
7204.68 183.234 186.175
7207.47 187.086 185.467
7210.26 191.027 184.754
7213.06 184.656 180.371
7215.85 188.144 181.368
7218.64 182.014 184.497
7221.44 170.309 177.553
7224.23 183.29 186.14
7227.02 189.659 185.536
7229.81 174.105 182.923
7232.61 173.107 174.777
7235.4 158.823 171.699
7238.19 171.186 172.798
7240.98 153.958 166.979
7243.77 180.769 182.222
7246.56 187.331 184.255
7249.35 164.921 174.916
7252.15 184.066 174.087
7254.94 175.478 173.701
7257.73 181.566 175.715
7260.52 171.044 174.825
7263.31 192.545 179.781
7266.1 174.02 176.175
7268.89 178.585 166.976
7271.67 163.174 172.548
7274.46 172.083 177.037
7277.25 179.848 174.326
7280.04 167.796 171.624
7282.83 164.508 172.056
7285.62 175.943 182.602
7288.41 179.598 174.385
7291.19 177.037 175.098
7293.98 173.404 169.141
7296.77 170.995 170.586
7299.56 178.54 181.593
7302.34 172.305 171.306
7305.13 172.134 185.222
7307.92 187.813 174.331
7310.7 175.006 171.434
7313.49 172.561 170.238
7316.28 191.786 185.307
7319.06 179.881 171.95
7321.85 177.955 175.629
7324.63 188.498 178.734
7327.42 196.373 185.228
7330.2 134.375 169.33
7332.99 152.464 180.565
7335.77 125.031 171.491
7338.56 178.896 188.059
7341.34 185.71 183.061
7344.13 170.92 173.675
7346.91 179.353 190.316
7349.69 134.386 176.659
7352.48 177.195 191.363
7355.26 177.611 183.909
7358.04 173.394 176.664
7360.83 188.282 189.769
7363.61 190.99 190.955
7366.39 188.282 184.492
7369.17 194.582 192.298
7371.96 142.012 177.025
7374.74 183.285 180.436
7377.52 180.795 175.876
7380.3 177.799 181.346
7383.08 184.719 186.878
7385.86 151.859 158.78
7388.64 172.497 168.211
7391.42 127.525 170.515
7394.2 147.593 178.868
7396.98 181.488 178.052
7399.76 185.51 168.758
7402.54 180.966 179.377
7405.32 173.737 178.176
7408.1 177.064 177.865
7410.88 176.325 176.238
7413.66 176.218 167.84
7416.44 175.573 170.807
7419.22 184.5 180.831
7422 169.128 167.347
7424.77 174.263 177.899
7427.55 181.227 168.417
7430.33 176.562 168.449
7433.11 170.626 159.133
7435.88 176.999 174.852
7438.66 169.044 165.168
7441.44 161.378 160.458
7444.22 148.61 159.315
7446.99 176.619 176.986
7449.77 174.588 160.024
7452.54 175.458 175.548
7455.32 128.974 166.787
7458.1 175.992 176.062
7460.87 175.916 161.017
7463.65 160.595 166.182
7466.42 138.245 163.409
7469.2 179.338 165.616
7471.97 160.769 165.237
7474.74 191.628 163.919
7477.52 166.793 163.689
7480.29 170.392 163.33
7483.07 136.539 166.331
7485.84 174.5 166.13
7488.61 188.094 162.687
7491.38 186.712 167.5
7494.16 132.201 164.982
7496.93 170.836 156.913
7499.7 153.232 175.933
7502.47 132.108 162.23
7505.25 184.478 168.004
7508.02 132.942 160.687
7510.79 184.828 167.585
7513.56 127.262 159.741
7516.33 178.892 154.753
7519.1 173.295 161.972
7521.87 170.085 151.106
7524.64 196.718 178.789
7527.41 135.125 157.308
7530.18 170.762 167.449
7532.95 161.477 152.257
7535.72 179.941 170.451
7538.49 142.905 164.2
7541.26 173.233 165.352
7544.03 101.286 149.184
7546.8 127.723 164.434
7549.57 131.657 155.478
7552.34 129.784 158.897
7555.1 126.68 159.162
7557.87 164.621 150.195
7560.64 169.414 168.207
7563.41 122.733 153.771
7566.17 174.09 158.013
7568.94 153.367 153.732
7571.71 175.485 160.656
7574.47 165.657 159.29
7577.24 176.92 161.011
7580.01 118.038 160.028
7582.77 162.9 155.018
7585.54 123.815 155.354
7588.3 143.995 126.464
7591.07 78.7342 110.904
7593.83 67.9844 107.71
7596.6 69.9801 74.0686
7599.36 62.8079 59.5792
7602.13 46.047 50.134
7604.89 54.6015 55.7471
7607.65 67.1671 57.6346
7610.42 90.2379 76.2732
7613.18 117.349 96.7334
7615.94 118.98 107.368
7618.71 103.639 97.9706
7621.47 100.615 89.7373
7624.23 89.2231 76.5057
7626.99 67.6851 82.6827
7629.76 86.2343 82.5195
7632.52 87.9872 80.6086
7635.28 109.788 93.4095
7638.04 107.03 95.5795
7640.8 111.925 94.6557
7643.56 121.971 105.578
7646.32 115.557 106.795
7649.08 81.4649 103.997
7651.84 108.95 114.733
7654.6 123.72 108.2
7657.36 129.121 112.041
7660.12 134.95 117.092
7662.88 137.201 116.712
7665.64 137.125 124.802
7668.4 132.576 110.863
7671.16 137.278 121.382
7673.92 146.805 120.85
7676.68 93.8847 123.535
7679.43 131.112 115.322
7682.19 140.204 128.461
7684.95 149.279 120.704
7687.71 151.294 127.526
7690.46 144.869 130.667
7693.22 148.393 122.506
7695.98 110.581 127.72
7698.73 144.933 123.778
7701.49 151.411 133.627
7704.24 156.877 140.434
7707 149.597 129.541
7709.76 157.839 133.327
7712.51 132.567 122.869
7715.27 121.955 139.822
7718.02 163.634 138.587
7720.78 128.021 139.927
7723.53 155.348 137.962
7726.28 141.778 130.521
7729.04 109.636 120.627
7731.79 105.687 128.69
7734.54 168.399 138.556
7737.3 155.619 131.865
7740.05 147.55 126.818
7742.8 152.782 126.287
7745.55 150.735 132.87
7748.31 150.537 128.261
7751.06 142.846 123.317
7753.81 159.73 134.001
7756.56 152.175 122.607
7759.31 148.058 126.336
7762.06 162.538 128.264
7764.81 134.601 123.096
7767.57 144.839 129.054
7770.32 148.456 120.968
7773.07 141.342 119.677
7775.82 95.9733 122.026
7778.56 150.059 127.253
7781.31 158.853 128.515
7784.06 165.242 132.062
7786.81 147.355 120.639
7789.56 165.924 136.233
7792.31 159.157 122.672
7795.06 168.529 143.165
7797.81 97.0528 117.002
7800.55 148.78 136.155
7803.3 119.691 142.517
7806.05 159.481 137.188
7808.79 110.15 133.319
7811.54 149.255 130.38
7814.29 123.429 114.017
7817.03 108.712 129.588
7819.78 161.807 140.537
7822.53 156.301 132.088
7825.27 149.627 116.215
7828.02 155.732 123.756
7830.76 113.013 131.226
7833.51 139.606 128.269
7836.25 154.246 127.335
7838.99 151.325 123.382
7841.74 160.939 129.803
7844.48 158.371 128.315
7847.23 156.809 124.684
7849.97 139.134 121.689
7852.71 150.078 119.739
7855.46 155.541 136.263
7858.2 133.69 132.569
7860.94 150.999 117.313
7863.68 131.188 110.772
7866.42 113.95 114.882
7869.17 144.625 118.524
7871.91 146.741 112.917
7874.65 90.3098 117.98
7877.39 139.305 123.766
7880.13 155.072 125.53
7882.87 104.725 125.732
7885.61 131.05 103.502
7888.35 149.5 114.583
7891.09 148.135 119.829
7893.83 137.816 124.274
7896.57 105.014 113.086
7899.31 110.013 120.209
7902.05 142.185 112.381
7904.78 157.679 114.163
7907.52 104.654 110.044
7910.26 135.89 102.049
7913 101.485 114.125
7915.74 155.419 118.898
7918.47 148.363 113.349
7921.21 153.279 116.285
7923.95 149.214 113.802
7926.68 135.365 108.18
7929.42 155.861 118.937
7932.15 131.041 104.544
7934.89 149.806 121.964
7937.63 135.073 110.107
7940.36 150.901 103.011
7943.1 125.206 99.3847
7945.83 135.414 100.265
7948.56 124.646 95.8169
7951.3 146.095 109.808
7954.03 116.028 117.259
7956.77 125.629 94.2829
7959.5 149.334 104.737
7962.23 143.276 105.292
7964.97 139.749 110.7
7967.7 98.3597 101.725
7970.43 140.457 109.436
7973.16 140.813 107.372
7975.9 136.548 104.691
7978.63 141.661 103.997
7981.36 91.2108 107.116
7984.09 136.16 106.41
7986.82 129.786 90.9006
7989.55 129.419 101.663
7992.28 147.135 105.755
7995.01 111.599 100.538
7997.74 129.668 106.103
8000.47 133.629 109.519
8003.2 122.205 92.1539
8005.93 123.66 95.9438
8008.66 131.556 95.589
8011.39 136.069 102.261
8014.12 139.097 115.009
8016.84 143.756 101.614
8019.57 124.336 95.2439
8022.3 129.245 104.211
8025.03 147.212 107.813
8027.75 130.103 96.1
8030.48 122.213 98.8432
8033.21 149.567 104.934
8035.93 141.263 107.805
8038.66 125.48 98.4506
8041.38 128.794 85.6397
8044.11 108.25 100.532
8046.84 130.756 98.8616
8049.56 91.3012 102.627
8052.29 144.789 99.6158
8055.01 133.29 99.6777
8057.73 141.328 95.3981
8060.46 128.573 98.1707
8063.18 105.976 93.1122
8065.91 129.627 96.0006
8068.63 93.0283 92.2672
8071.35 139.366 104.539
8074.07 122.415 89.8149
8076.8 111.069 81.6788
8079.52 126.007 95.1401
8082.24 132.664 94.6986
8084.96 136.912 93.8889
8087.68 124.484 97.0809
8090.4 134.385 94.0953
8093.13 142.477 103.226
8095.85 121.777 94.9308
8098.57 130.997 96.9106
8101.29 129.405 99.1356
8104.01 139.33 95.4082
8106.73 133.044 100.954
8109.44 116.97 92.7277
8112.16 120.686 89.9076
8114.88 113.518 89.6265
8117.6 127.407 90.8907
8120.32 115.675 84.0821
8123.04 84.6795 85.2704
8125.75 111.004 74.2716
8128.47 135.543 90.6135
8131.19 135.433 99.146
8133.91 125.265 94.4381
8136.62 122.025 87.2615
8139.34 133.011 90.5095
8142.05 130.552 92.9493
8144.77 131.658 91.9857
8147.49 74.4449 81.2619
8150.2 119.093 85.1133
8152.92 129.988 84.5252
8155.63 97.2907 87.6452
8158.35 99.596 79.991
8161.06 116.516 79.6053
8163.77 89.1339 83.1063
8166.49 74.2378 75.7397
8169.2 114.075 85.5882
8171.91 130.947 95.0259
8174.63 126.839 94.0268
8177.34 105.889 81.1526
8180.05 143.761 92.6994
8182.76 132.178 101.885
8185.47 127.559 97.725
8188.19 127.553 85.8501
8190.9 118.693 84.1908
8193.61 124.211 91.9189
8196.32 122.9 81.0982
8199.03 135.993 87.2972
8201.74 77.1215 97.8755
8204.45 88.2143 84.1133
8207.16 90.2866 105.297
8209.87 106.452 91.876
8212.58 142.449 102.929
8215.29 125.213 89.4341
8217.99 114.908 85.1937
8220.7 115.043 84.8298
8223.41 101.143 72.9641
8226.12 119.841 80.0679
8228.83 119.322 77.4633
8231.53 105.35 90.2288
8234.24 102.571 88.7415
8236.95 119.251 90.5584
8239.65 118.41 86.4432
8242.36 117.76 89.98
8245.06 122.834 88.3961
8247.77 115.823 76.7623
8250.47 105.633 87.1706
8253.18 109.739 90.2592
8255.88 117.95 89.6195
8258.59 133.083 85.1754
8261.29 122.874 98.1564
8264 126.656 84.8232
8266.7 95.1014 82.1651
8269.4 125.839 79.9703
8272.11 93.8024 88.5703
8274.81 119.735 80.0776
8277.51 82.7428 77.8858
8280.21 118.212 78.0327
8282.92 112.892 80.2028
8285.62 71.0152 81.0829
8288.32 83.2485 70.4661
8291.02 130.96 84.5478
8293.72 122.707 88.8948
8296.42 129.663 94.052
8299.12 112.019 78.2664
8301.82 118.315 81.3666
8304.52 113.643 79.5908
8307.22 107.55 75.784
8309.92 129.618 79.1217
8312.62 109.336 80.4984
8315.32 107.999 76.9082
8318.01 131.709 83.2725
8320.71 101.078 77.2168
8323.41 92.3598 90.4271
8326.11 104.097 74.2335
8328.8 112.882 78.9256
8331.5 118.169 80.3515
8334.2 85.5985 73.062
8336.89 137.964 86.2717
8339.59 126.314 87.5337
8342.28 98.9855 86.2791
8344.98 120.703 77.4212
8347.67 113.868 59.3823
8350.37 110.268 70.6528
8353.06 126.449 88.1169
8355.76 111.216 79.8577
8358.45 127.062 80.7912
8361.15 116.63 69.2207
8363.84 117.425 79.6969
8366.53 88.8949 81.0314
8369.22 82.1109 80.8649
8371.92 105.076 78.5964
8374.61 102.946 95.6232
8377.3 112.879 76.6051
8379.99 116.503 79.0702
8382.68 83.7777 82.1296
8385.37 95.0157 88.1047
8388.07 110.351 59.6192
8390.76 125.083 83.8005
8393.45 121.196 80.3307
8396.14 110.223 65.5647
8398.83 86.9929 77.6737
8401.51 120.547 80.2117
8404.2 115.487 62.0428
8406.89 115.162 86.4137
8409.58 107.734 67.4732
8412.27 120.481 71.6259
8414.96 123.453 87.4074
8417.64 72.6762 73.0977
8420.33 125.291 80.6222
8423.02 120.525 81.6806
8425.71 120.284 64.4272
8428.39 142.01 95.3993
8431.08 116.181 68.8048
8433.76 96.4603 52.1699
8436.45 121.874 71.1857
8439.13 102.6 64.3212
8441.82 78.2714 74.5902
8444.5 111.173 73.5774
8447.19 88.8772 78.6767
8449.87 124.762 68.4596
8452.56 74.8672 71.0267
8455.24 112.644 58.7381
8457.92 114.449 67.5758
8460.6 111.929 74.4727
8463.29 76.8894 68.5408
8465.97 118.844 77.7072
8468.65 114.975 63.0236
8471.33 116.856 74.1694
8474.01 100.614 63.6223
8476.7 110.87 65.0711
8479.38 130 69.229
8482.06 72.7019 65.1135
8484.74 114.083 57.6477
8487.42 116.006 67.6026
8490.1 84.4985 65.6899
8492.78 96.5717 63.8647
8495.45 107.554 63.438
8498.13 113.852 62.381
8500.81 110.29 71.1823
8503.49 120.487 71.0661
8506.17 93.501 49.6958
8508.84 116.915 60.8556
8511.52 81.4357 56.45
8514.2 81.3146 62.6836
8516.88 100.723 58.4625
8519.55 123.939 62.7205
8522.23 78.8991 69.0481
8524.9 113.153 56.9853
8527.58 128.085 61.0125
8530.25 110.685 48.2736
8532.93 100.221 52.9596
8535.6 101.935 54.1354
8538.28 117.826 48.6609
8540.95 103.162 47.0963
8543.62 105.847 53.341
8546.3 100.835 51.3646
8548.97 113.929 61.0632
8551.64 90.7045 53.8575
8554.31 102.287 45.5389
8556.99 107.466 45.9241
8559.66 91.8435 44.4718
8562.33 109.646 53.3066
8565 82.1202 61.089
8567.67 100.138 52.6508
8570.34 110.343 47.777
8573.01 126.791 56.7473
8575.68 104.609 47.7969
8578.35 112.866 58.6239
8581.02 77.6212 49.2871
8583.69 84.3096 44.8659
8586.36 109.014 44.2196
8589.03 112.683 55.358
8591.69 74.9146 50.0163
8594.36 111.269 62.5098
8597.03 86.7652 50.855
8599.7 102.362 54.1306
8602.36 91.0795 55.0824
8605.03 101.614 56.0954
8607.7 93.9982 45.6648
8610.36 109.522 61.0762
8613.03 98.7552 45.7658
8615.69 93.8968 46.8424
8618.36 105.021 49.8697
8621.02 121.881 65.5793
8623.69 93.6722 52.8996
8626.35 106.794 53.308
8629.01 105.234 55.5268
8631.68 112 64.6403
8634.34 99.2568 54.1868
8637 126.509 74.2688
8639.67 111.336 55.801
8642.33 93.0437 57.3806
8644.99 109.377 50.867
8647.65 54.4219 70.9825
8650.31 102.951 62.8044
8652.97 103.253 64.0193
8655.63 106.671 66.894
8658.29 96.2627 57.3484
8660.95 78.4387 56.465
8663.61 114.782 60.5072
8666.27 106.589 70.2265
8668.93 105.635 49.2876
8671.59 73.9098 62.5875
8674.25 122.985 46.4051
8676.91 104.855 46.0784
8679.56 71.9843 46.5546
8682.22 117.656 66.085
8684.88 82.3565 54.0391
8687.54 97.081 57.7858
8690.19 70.1602 71.5251
8692.85 125.761 50.0357
8695.5 97.3671 38.5471
8698.16 77.467 57.8239
8700.81 120.237 51.5872
8703.47 109.497 46.4627
8706.12 81.5764 64.1412
8708.78 106.884 54.278
8711.43 66.2877 55.0492
8714.08 88.0507 48.6212
8716.74 74.384 35.2364
8719.39 74.9046 36.7004
8722.04 115.662 44.6139
8724.7 123.332 50.4653
8727.35 129.294 52.9031
8730 112.953 45.8574
8732.65 80.1374 47.8501
8735.3 120.095 40.5989
8737.95 117.287 49.028
8740.6 102.937 41.2828
8743.25 98.7193 31.9893
8745.9 100.089 34.9389
8748.55 69.1524 32.5281
8751.2 56.351 44.2137
8753.85 93.1981 35.006
8756.5 57.5304 40.0372
8759.15 103.268 43.9751
8761.79 93.8699 39.5068
8764.44 101.724 33.0409
8767.09 98.2865 45.3818
8769.73 79.1845 47.2354
8772.38 65.4671 45.9815
8775.03 109.355 35.3499
8777.67 94.0376 34.5546
8780.32 109.457 47.3513
8782.96 98.2013 37.0428
8785.61 99.375 40.7109
8788.25 86.6359 32.812
8790.9 86.7132 36.603
8793.54 102.349 50.4208
8796.18 103.598 46.5687
8798.83 109.409 55.4621
8801.47 107.036 43.4305
8804.11 79.8279 43.0726
8806.75 102.375 40.5777
8809.4 70.278 49.7752
8812.04 80.2506 43.3713
8814.68 87.3536 45.9643
8817.32 104.062 48.2558
8819.96 100.728 48.7706
8822.6 97.9181 45.3977
8825.24 67.9197 54.4211
8827.88 101.828 48.642
8830.52 53.5027 51.9514
8833.16 94.1527 45.6504
8835.8 98.3451 52.7352
8838.43 89.3463 50.5256
8841.07 102.528 46.9162
8843.71 95.7502 46.6587
8846.35 102.867 49.8641
8848.98 114.114 44.8917
8851.62 67.5929 55.6647
8854.26 58.2149 31.1182
8856.89 85.6146 33.2746
8859.53 108.14 52.4173
8862.16 88.1243 53.6588
8864.8 77.3599 45.0099
8867.43 107.369 35.5042
8870.07 79.6015 46.5606
8872.7 82.938 46.3771
8875.33 106.977 47.1743
8877.97 47.0992 43.0662
8880.6 99.4501 56.7029
8883.23 107.083 47.1567
8885.86 103.61 51.8933
8888.49 108.266 57.575
8891.13 53.6699 46.5451
8893.76 99.4099 36.6088
8896.39 90.1643 32.5575
8899.02 101.353 49.2607
8901.65 42.7398 37.6972
8904.28 99.3234 34.1088
8906.91 64.7511 44.8114
8909.54 104.862 30.1499
8912.17 101.422 46.446
8914.79 92.6469 39.218
8917.42 92.148 47.9651
8920.05 69.7169 48.0462
8922.68 50.5814 28.1541
8925.3 104.139 15.8992
8927.93 87.7586 12.0897
8930.56 96.868 35.0701
8933.18 78.8522 16.121
8935.81 92.0075 14.6744
8938.43 108.014 25.8353
8941.06 83.4295 19.952
8943.68 111.732 31.3757
8946.31 68.743 24.7678
8948.93 92.0322 18.1926
8951.56 52.8148 23.3527
8954.18 119.48 13.0046
8956.8 55.9869 31.5419
8959.42 44.5371 34.9855
