wavelength spec_sum spec_optimal
3416.51 1080.03 1083.61
3419.45 1035.11 1021.57
3422.38 1005.6 974.098
3425.32 1063.67 1071.25
3428.25 1033.41 1022.07
3431.19 913.641 996.092
3434.12 932.242 952.925
3437.06 1143.72 1169.75
3439.99 1027.95 1071.93
3442.93 1038.22 1013.09
3445.86 1051.75 1001.82
3448.8 1101.67 1088.74
3451.73 1010 1010.35
3454.67 1076.12 1054.15
3457.6 1051.75 1091.08
3460.54 1000.93 993.745
3463.47 1063.17 1083.71
3466.41 1014.98 1022.59
3469.34 977.683 944.812
3472.28 941.286 917.519
3475.21 963.025 976.677
3478.15 1047 1050.5
3481.08 973.447 967.153
3484.02 931.56 945.258
3486.95 980.384 966.203
3489.88 951.693 961.575
3492.82 943.187 959.119
3495.75 972.809 984.778
3498.69 994.296 977.398
3501.62 945.505 920.614
3504.55 980.185 974.223
3507.49 996.017 1013.2
3510.42 1095.42 1117.13
3513.36 991.033 993.514
3516.29 938.331 911.388
3519.22 914.746 890.683
3522.16 988.6 995.372
3525.09 990.058 998.893
3528.02 983.137 979.455
3530.96 1028.39 1063.97
3533.89 1023.32 1023.82
3536.82 920.587 956.734
3539.76 990.021 976.693
3542.69 977.841 971.109
3545.62 963.097 961.618
3548.55 1001.47 995.214
3551.49 927.882 892.01
3554.42 998.805 988.55
3557.35 993.725 956.25
3560.28 915.711 923.695
3563.22 871.698 884.42
3566.15 917.709 920.259
3569.08 927.631 947.077
3572.01 879.147 842.853
3574.95 925.612 922.776
3577.88 920.031 922.976
3580.81 937.339 957.164
3583.74 979.708 983.709
3586.67 954.557 968.485
3589.61 918.016 906.323
3592.54 975.739 984.351
3595.47 905.058 907.515
3598.4 929.747 951.656
3601.33 915.917 931.574
3604.26 964.434 974.692
3607.2 990.938 1008.61
3610.13 925.806 931.532
3613.06 905.593 899.81
3615.99 969.758 942.635
3618.92 1001.48 996.94
3621.85 917.592 920.782
3624.78 924.888 912.413
3627.71 933.8 949.957
3630.65 938.468 952.579
3633.58 1012.38 1028.61
3636.51 917.969 920.401
3639.44 922.459 902.312
3642.37 910.304 892.268
3645.3 1005.75 1002.47
3648.23 943.155 936.679
3651.16 900.415 894.621
3654.09 871.511 866.283
3657.02 879.341 873.101
3659.95 908.321 927.214
3662.88 886.532 871.877
3665.81 866.129 871.345
3668.74 842.095 808.651
3671.67 908.83 912.309
3674.6 849.995 839.296
3677.53 854.571 850.878
3680.46 848.091 857.291
3683.39 866.187 854.824
3686.32 874.138 896.824
3689.25 831.323 834.107
3692.18 835.892 827.367
3695.11 859.479 853.61
3698.04 878.037 870.253
3700.97 853.528 857.732
3703.9 947.924 980.387
3706.83 873.15 888.553
3709.75 859.707 855.531
3712.68 896.604 893.168
3715.61 887.277 894.548
3718.54 843.374 818.14
3721.47 852.475 873.496
3724.4 847.947 855.842
3727.33 848.808 849.02
3730.26 856.928 842.251
3733.19 888.769 902.433
3736.11 879.657 886.914
3739.04 896.247 882.515
3741.97 841.381 827.069
3744.9 861.505 878.667
3747.83 916.169 918.119
3750.75 871.071 882.616
3753.68 854.021 851.539
3756.61 849.208 840.185
3759.54 784.956 758.888
3762.47 812.486 813.179
3765.39 823.082 840.432
3768.32 804.911 793.978
3771.25 781.801 778.698
3774.18 754.095 768.502
3777.11 792.654 787.781
3780.03 787.56 785.293
3782.96 811.812 822.08
3785.89 779.674 773.24
3788.81 786.579 790.334
3791.74 793.774 785.146
3794.67 808.088 798.252
3797.6 836.639 837.805
3800.52 819.653 806.648
3803.45 848.378 850.185
3806.38 804.798 816.692
3809.3 828.021 840.562
3812.23 855.969 849.595
3815.16 866.005 862.119
3818.08 848.298 849.122
3821.01 824.533 831.637
3823.94 822.985 827.316
3826.86 813.143 816.786
3829.79 826.398 824.802
3832.72 806.224 815.003
3835.64 795.191 791.194
3838.57 816.214 809.084
3841.49 866.445 863.769
3844.42 836.355 822.912
3847.35 908.918 921.053
3850.27 850.032 871.583
3853.2 864.551 863.05
3856.12 860.771 859.852
3859.05 867.098 870.531
3861.97 847.376 821.862
3864.9 851.447 851.531
3867.82 828.803 820.202
3870.75 817.153 809.429
3873.67 765.411 759.775
3876.6 740.825 730.548
3879.53 703.647 701.088
3882.45 655.186 638.37
3885.38 636.777 635.819
3888.3 677.284 684.488
3891.23 653.02 659.964
3894.15 701.214 718.259
3897.07 706.362 728.67
3900 765.778 771.959
3902.92 765.867 768.842
3905.85 801.277 812.402
3908.77 778.611 784.152
3911.7 825.172 836.915
3914.62 866.272 863.935
3917.55 865.461 871.575
3920.47 910.095 907.943
3923.39 920.257 916.492
3926.32 924.082 932.328
3929.24 891.926 893.546
3932.17 897.574 900.118
3935.09 888.052 886.018
3938.01 866.219 871.462
3940.94 841.376 835.561
3943.86 819.841 811.095
3946.78 813.174 792.953
3949.71 791.774 794.691
3952.63 748.447 744.183
3955.55 688.428 662.456
3958.48 678.146 676.225
3961.4 616.603 615.723
3964.32 594.359 580.106
3967.25 586.66 575.97
3970.17 614.413 605.477
3973.09 648.81 643.62
3976.02 648.912 650.454
3978.94 695.745 721.046
3981.86 739.119 744.078
3984.78 738.334 723.423
3987.71 811.139 829.397
3990.63 816.435 798.917
3993.55 865.499 857.672
3996.47 880.797 873.862
3999.4 923.234 937.322
4002.32 930.201 935.811
4005.24 958.674 976.471
4008.16 959.222 968.733
4011.08 960.055 973.689
4014.01 956.586 958.851
4016.93 1001.5 989.114
4019.85 1015.37 997.672
4022.77 1006 1027.44
4025.69 1025.73 1024.33
4028.62 1017.37 1020.69
4031.54 1006.54 1004.03
4034.46 1003.92 1015.76
4037.38 1010.06 1020.75
4040.3 1014.01 1015.73
4043.22 962.591 970.533
4046.14 962.254 959.603
4049.06 964.528 973.014
4051.99 942.269 954.242
4054.91 929.829 931.352
4057.83 936.226 934.211
4060.75 884.259 865.718
4063.67 886.301 890.022
4066.59 830.899 834.513
4069.51 828.722 825.165
4072.43 825.552 837.375
4075.35 790.14 794.009
4078.27 777.12 783.945
4081.19 743.662 747.866
4084.11 703.287 695.577
4087.03 646.908 645.072
4089.95 611.757 586.603
4092.87 579.977 569.165
4095.79 530.066 505.81
4098.71 506.226 491.455
4101.63 520.311 527.618
4104.55 545.935 554.98
4107.47 556.852 543.143
4110.39 600.278 617.42
4113.31 638.212 634.989
4116.23 662.673 674.357
4119.15 694.178 689.579
4122.07 750.226 744.495
4124.99 760.234 766.229
4127.91 772.128 757.612
4130.83 797.377 804.639
4133.75 834.995 830.832
4136.66 851.87 877.664
4139.58 885.195 878.885
4142.5 905.464 910.853
4145.42 905.279 909.224
4148.34 945.866 959.934
4151.26 945.993 948.99
4154.18 974.49 977.596
4157.1 966.33 964.641
4160.01 997.87 992.598
4162.93 958.841 950.345
4165.85 1008.73 1005.71
4168.77 1017.06 1030.88
4171.69 1006.52 1003.43
4174.61 1005.56 1001.36
4177.52 1018.54 1021.55
4180.44 1013.48 1012.06
4183.36 1004.41 1001.57
4186.28 1020.19 1028.12
4189.19 1015.11 1011.11
4192.11 1036.43 1034.66
4195.03 1016.74 1022.08
4197.95 996.338 988.158
4200.86 1024.86 1025.04
4203.78 1011.92 1008.15
4206.7 998.121 995.636
4209.62 1020.3 1017.67
4212.53 987.543 991.101
4215.45 1012.09 999.535
4218.37 958.098 955.077
4221.28 997.815 996.364
4224.2 981.984 981.36
4227.12 1002.49 995.294
4230.04 969.563 968.649
4232.95 952.23 970.907
4235.87 967.777 970.044
4238.78 968.596 972.681
4241.7 952.505 951.736
4244.62 932.54 931.723
4247.53 986.949 985.169
4250.45 949.02 958.229
4253.37 942.756 947.541
4256.28 950.978 935.882
4259.2 931.907 935.961
4262.11 950.609 940.399
4265.03 936.86 931.552
4267.95 930.301 925.203
4270.86 930.087 936.688
4273.78 895.356 901.83
4276.69 900.723 906.626
4279.61 889.343 891.954
4282.52 890.215 899.376
4285.44 873.087 872.803
4288.35 841.598 854.515
4291.27 837.143 835.709
4294.18 818.665 832.56
4297.1 810.704 817.073
4300.01 815.518 818.581
4302.93 772.02 772.512
4305.84 752.892 755.641
4308.76 721.59 723.866
4311.67 725.111 734.727
4314.59 699.976 692.974
4317.5 655.415 640.458
4320.42 651.708 640.922
4323.33 608.086 606.151
4326.25 575.116 576.944
4329.16 543.545 530.618
4332.07 510.159 487.815
4334.99 471.798 453.179
4337.9 458.36 456.722
4340.82 456.585 450.715
4343.73 458.849 452.541
4346.64 476.745 477.401
4349.56 535.814 523.35
4352.47 518.341 530.819
4355.39 568.388 564.825
4358.3 583.307 593.307
4361.21 585.721 601.213
4364.13 614.21 622.125
4367.04 652.045 657.978
4369.95 679.359 691.477
4372.87 698.212 697.978
4375.78 693.62 696.182
4378.69 720.824 725.098
4381.6 741.773 743.722
4384.52 739.08 752.68
4387.43 770.833 774.707
4390.34 760.663 760.786
4393.26 767.248 766.161
4396.17 796.121 795.175
4399.08 802.547 797.463
4401.99 810.647 813.776
4404.91 824.983 816.535
4407.82 821.282 825.062
4410.73 822.852 827.557
4413.64 832.078 830.486
4416.55 840.709 835.423
4419.47 827.082 822.895
4422.38 833.308 837.307
4425.29 825.776 831.011
4428.2 844.33 835.57
4431.11 855.033 838.901
4434.02 848.814 852.684
4436.94 841.854 848.953
4439.85 855.172 850.495
4442.76 860.093 854.698
4445.67 854.849 854.202
4448.58 837.217 831.328
4451.49 867.201 867.439
4454.4 861.02 864.1
4457.31 851.723 857.974
4460.23 860.752 866.708
4463.14 873.203 869.642
4466.05 868.475 862.301
4468.96 883.45 882.715
4471.87 846.113 846.3
4474.78 862.544 864.966
4477.69 853.553 851.018
4480.6 873.725 872.009
4483.51 892.755 896.328
4486.42 883.321 882.438
4489.33 888.208 889.115
4492.24 891.909 888.722
4495.15 888.123 884.699
4498.06 905.821 915.386
4500.97 897.354 896.094
4503.88 870.911 881.281
4506.79 886.191 880.793
4509.7 897.754 884.074
4512.61 894.29 882.039
4515.52 895.1 883.034
4518.43 895.459 879.035
4521.34 904.268 899.375
4524.25 896.634 881.777
4527.16 891.913 888.754
4530.07 839.725 859.932
4532.97 860.662 871.365
4535.88 841.492 850.028
4538.79 847.146 872.229
4541.7 833.658 836.572
4544.61 829.455 843.936
4547.52 844.426 867.381
4550.43 863.219 864.028
4553.34 831.846 839.316
4556.24 841.576 854.191
4559.15 856.722 856.927
4562.06 846.893 841.794
4564.97 827.368 825.912
4567.88 842.258 833.976
4570.78 835.411 836.203
4573.69 841.61 843.066
4576.6 845.417 831.215
4579.51 848.233 844.591
4582.42 827.988 823.911
4585.32 843.104 842.347
4588.23 817.844 810.39
4591.14 801.509 806.652
4594.05 833.264 822.272
4596.95 839.189 826.697
4599.86 811.405 807.946
4602.77 813.793 808.465
4605.67 837.391 840.004
4608.58 807.122 804.047
4611.49 816.844 810.652
4614.4 800.425 797.666
4617.3 800.38 810.205
4620.21 790.212 797.231
4623.12 807.332 799.02
4626.02 793.966 790.429
4628.93 785.418 784.858
4631.84 800.686 798.49
4634.74 785.616 788.285
4637.65 791.567 805.864
4640.55 791.667 791.537
4643.46 777.895 780.189
4646.37 763.962 762.5
4649.27 794.125 788.111
4652.18 776.87 782.906
4655.08 796.914 787.286
4657.99 806.884 806.891
4660.9 787.742 794.949
4663.8 790.439 800.056
4666.71 789.641 793.828
4669.61 777.055 778.651
4672.52 793.509 785.845
4675.42 786.667 776.399
4678.33 785.298 804.15
4681.23 752.63 763.93
4684.14 758.093 762.535
4687.04 785.273 779.37
4689.95 775.96 767.748
4692.85 771.79 763.971
4695.76 752.459 754.793
4698.66 750.12 752.619
4701.57 764.193 764.221
4704.47 781.068 783.333
4707.37 750.53 746.816
4710.28 764.943 761.343
4713.18 769.535 768.854
4716.09 743.494 752.871
4718.99 739.263 744.573
4721.89 755.065 747.67
4724.8 730.234 723.414
4727.7 728.904 737.271
4730.61 719.699 725.031
4733.51 722.823 722.741
4736.41 714.385 699.495
4739.32 700.604 691.995
4742.22 710.551 712.456
4745.12 703.189 700.251
4748.03 692.565 692.006
4750.93 685.936 682.282
4753.83 683.592 684.972
4756.74 672.23 676.215
4759.64 668.375 663.881
4762.54 679.26 682.61
4765.44 663.574 669.572
4768.35 649.876 649.199
4771.25 650.708 645.734
4774.15 646.144 645.244
4777.05 654.038 653.403
4779.96 649.718 659.499
4782.86 625.383 622.316
4785.76 623.684 622.591
4788.66 633.498 640.618
4791.57 604.944 612.262
4794.47 613.351 610.68
4797.37 597.444 597.678
4800.27 576.235 586.725
4803.17 589.122 593.719
4806.07 605.701 602.491
4808.98 579.758 580.445
4811.88 571.911 568.243
4814.78 558.627 564.676
4817.68 542.684 541.336
4820.58 560.844 552.429
4823.48 523.222 525.624
4826.38 521.235 521.13
4829.28 517.832 507.445
4832.19 491.601 489.519
4835.09 491.245 490.477
4837.99 471.058 468.226
4840.89 452.863 460.781
4843.79 451.099 449.971
4846.69 438.087 431.346
4849.59 416.437 414.678
4852.49 409.107 403.256
4855.39 359.773 357.239
4858.29 347.118 342.769
4861.19 337.884 328.168
4864.09 338.229 337.67
4866.99 348.128 356.46
4869.89 384.977 389.653
4872.79 383.1 387.681
4875.69 401.828 400.843
4878.59 416.372 422.684
4881.49 438.147 438.176
4884.39 456.083 456.991
4887.29 466.738 462.255
4890.19 458.431 469.962
4893.08 485.385 488.698
4895.98 493.184 496.38
4898.88 496.372 502.361
4901.78 503.625 510.264
4904.68 518.093 521.445
4907.58 530.817 528.49
4910.48 521.152 526.916
4913.38 538.431 542.463
4916.27 546.312 549.223
4919.17 569.035 563.396
4922.07 569.514 573.562
4924.97 564.546 550.58
4927.87 574.031 572.146
4930.77 574.707 563.508
4933.66 590.688 584.636
4936.56 596.453 593.725
4939.46 602.615 596.984
4942.36 585.649 590.516
4945.25 576.646 579.399
4948.15 572.98 579.786
4951.05 596.32 591.409
4953.95 595.216 594.324
4956.84 591.557 595.687
4959.74 591.312 588.736
4962.64 606.695 600.276
4965.53 591.317 593.331
4968.43 609.702 602.637
4971.33 612.631 617.216
4974.23 622.787 620.299
4977.12 597.379 595.469
4980.02 594.26 597.418
4982.92 595.827 595.528
4985.81 617.477 621.944
4988.71 609.816 610.393
4991.6 620.15 611.232
4994.5 606.943 603.335
4997.4 611.024 608.877
5000.29 616.616 619.937
5003.19 599.637 602.996
5006.08 612.515 616.999
5008.98 615.492 612.582
5011.88 619.065 620.418
5014.77 625.464 624.581
5017.67 606.056 611.635
5020.56 622.925 616.851
5023.46 591.015 595.212
5026.35 604.11 612.467
5029.25 590.305 594.821
5032.14 608.329 605.541
5035.04 607.673 609.084
5037.93 599.648 603.304
5040.83 604.4 595.116
5043.72 586.341 586.883
5046.62 602.965 606.952
5049.51 589.554 591.467
5052.4 613.368 607.763
5055.3 611.983 609.779
5058.19 599.494 601.043
5061.09 599.884 603.38
5063.98 610.503 605.66
5066.88 599.873 601.754
5069.77 597.671 598.813
5072.66 591.282 587.818
5075.56 591.18 594.076
5078.45 583.266 585.913
5081.34 591.658 595.751
5084.24 593.102 596.144
5087.13 607.139 602.282
5090.02 592.091 589.339
5092.92 603.509 599.057
5095.81 600.118 596.926
5098.7 591.128 588.557
5101.6 594.86 590.102
5104.49 592.934 593.661
5107.38 596.449 602.99
5110.27 577.107 582.873
5113.17 581.911 582.216
5116.06 592.074 586.711
5118.95 580.569 581.041
5121.84 571.089 573.464
5124.74 597.565 587.607
5127.63 582.078 590.6
5130.52 577.422 573.427
5133.41 567.867 574.269
5136.3 588.812 583.393
5139.2 576.18 575.498
5142.09 580.241 582.114
5144.98 583.592 583.467
5147.87 576.488 576.007
5150.76 574.946 579.311
5153.65 576.693 570.991
5156.54 571.909 570.71
5159.44 571.53 577.051
5162.33 587.885 585.132
5165.22 553.262 552.721
5168.11 585.244 583.944
5171 569.43 573.866
5173.89 570.151 575.4
5176.78 568.525 566.753
5179.67 571.517 567.434
5182.56 574.838 571.724
5185.45 558.595 563.406
5188.34 558.665 560.822
5191.23 554.123 556.864
5194.12 572.792 570.094
5197.01 564.065 570.147
5199.9 562.981 562.075
5202.79 554.492 549.151
5205.68 569.561 571.133
5208.57 560.119 562.332
5211.46 564.355 562.405
5214.35 565.76 560.965
5217.24 555.533 554.044
5220.13 542.892 539.719
5223.02 552.843 546.387
5225.9 547.615 549.879
5228.79 538.713 541.688
5231.68 542.345 544.505
5234.57 540.828 541.272
5237.46 544.65 547.503
5240.35 541.347 541.391
5243.24 531.335 534.981
5246.13 528.609 529.409
5249.01 551.13 544.889
5251.9 538.904 535.536
5254.79 545.301 545.792
5257.68 536.322 537.607
5260.57 532.136 534.845
5263.45 539.478 542.552
5266.34 537.917 540.933
5269.23 544.657 532.703
5272.12 528.735 533.412
5275 542.02 537.311
5277.89 525.282 532.357
5280.78 530.616 534.306
5283.66 541.848 542.972
5286.55 515.746 521.571
5289.44 504.444 508.62
5292.33 546.677 536.575
5295.21 531.366 531.409
5298.1 530.687 525.049
5300.99 525.103 528.215
5303.87 529.866 529.291
5306.76 509.018 510.522
5309.64 530.661 529.799
5312.53 531.842 531.251
5315.42 514.07 511.861
5318.3 518.825 508.982
5321.19 516.693 509.413
5324.07 520.02 528.608
5326.96 519.681 523.329
5329.85 508.917 512.632
5332.73 512.578 515.664
5335.62 499.01 504.16
5338.5 507.736 500.518
5341.39 511.539 505.959
5344.27 500.24 500.666
5347.16 498.642 503.913
5350.04 501.076 505.059
5352.93 497.371 499.802
5355.81 519.365 508.273
5358.7 514.239 515.038
5361.58 506.531 505
5364.46 491.893 497.724
5367.35 502.888 503.478
5370.23 502.51 511.29
5373.12 506.124 501.774
5376 510.378 505.964
5378.88 502.955 502.297
5381.77 507.566 510.994
5384.65 494.477 495.341
5387.54 499.022 496.471
5390.42 483.625 488.808
5393.3 500.491 504.067
5396.19 507.143 501.357
5399.07 509.301 500.451
5401.95 492.908 498.759
5404.84 493.996 494.643
5407.72 476.404 472.754
5410.6 492.989 494.457
5413.48 501.901 497.778
5416.37 469.434 476.384
5419.25 481.486 480.837
5422.13 485.439 484.432
5425.01 482.734 482.532
5427.9 484.666 483.59
5430.78 490.577 483.34
5433.66 482.352 479.388
5436.54 493.09 495.66
5439.42 489.867 488.155
5442.31 476.923 478.783
5445.19 474.887 479.769
5448.07 489.662 489.42
5450.95 479.301 478.527
5453.83 481.469 479.815
5456.71 459.896 468.574
5459.59 461.563 461.144
5462.48 475.314 476.302
5465.36 483.723 479.866
5468.24 489.379 482.266
5471.12 462.077 460.032
5474 488.767 490.112
5476.88 470.151 468.654
5479.76 468.655 469.695
5482.64 477.638 471.38
5485.52 459.67 459.714
5488.4 462.621 472.563
5491.28 458.256 461.043
5494.16 466.5 463.713
5497.04 451.557 456.634
5499.92 469.904 475.172
5502.8 459.487 462.79
5505.68 452.806 460.857
5508.56 465.538 461.567
5511.44 459.489 457.141
5514.32 448.231 446.055
5517.2 446.03 451.377
5520.07 461.913 463.295
5522.95 455.636 455.679
5525.83 460.17 454.392
5528.71 469.738 467.88
5531.59 456.109 454.527
5534.47 455.604 462.572
5537.35 458.416 461.244
5540.22 458.712 462.632
5543.1 462.23 455.915
5545.98 456.083 455.779
5548.86 451.961 452.785
5551.74 458.811 447.474
5554.61 444.539 450.81
5557.49 435.308 437.829
5560.37 462.498 455.25
5563.25 449.003 446.783
5566.12 443.967 438.871
5569 459.257 450.709
5571.88 455.168 439.726
5574.76 458.155 449.902
5577.63 456.212 446.785
5580.51 440.664 437.715
5583.39 451.662 451.428
5586.26 418.775 433.069
5589.14 435.335 435.791
5592.02 454.045 451.637
5594.89 430.755 440.016
5597.77 435.748 438.979
5600.64 416.515 425.808
5603.52 428.382 433.461
5606.4 433.013 435.726
5609.27 431.066 441.065
5612.15 426.642 428.641
5615.02 439.111 437.682
5617.9 431.134 441.26
5620.77 424.098 420.283
5623.65 439.043 438.309
5626.52 421.79 423.39
5629.4 435.285 442.767
5632.27 415.31 427.81
5635.15 431.732 433.508
5638.02 427.074 421.63
5640.9 422.504 426.927
5643.77 427.024 422.623
5646.65 416.437 416.564
5649.52 435.13 419.439
5652.4 424.939 419.934
5655.27 418.75 418.536
5658.14 429.644 427.717
5661.02 427.526 431.117
5663.89 428.046 422.962
5666.76 420.177 421.217
5669.64 422.274 414.615
5672.51 414.257 414.277
5675.38 410.962 409.333
5678.26 418.067 415.128
5681.13 421.878 414.557
5684 412.392 411.831
5686.88 402.024 412.259
5689.75 413.245 413.461
5692.62 418.569 417.897
5695.49 410.657 411.198
5698.37 412.961 414.534
5701.24 407.708 400.223
5704.11 410.564 406.805
5706.98 395.307 401.642
5709.86 412.887 408.418
5712.73 407.739 404.175
5715.6 394.133 400.252
5718.47 413.925 418.89
5721.34 402.449 406.942
5724.21 407.156 403.198
5727.08 400.341 397.503
5729.96 391.374 397.381
5732.83 395.348 397.32
5735.7 391.975 387.96
5738.57 390.325 395.4
5741.44 399.508 398.886
5744.31 409.466 412.611
5747.18 398.677 401.756
5750.05 395.949 393.507
5752.92 398.93 399.171
5755.79 397.748 392.633
5758.66 385.499 382.882
5761.53 402.116 398.229
5764.4 374.482 378.397
5767.27 405.087 400.674
5770.14 388.213 387.668
5773.01 394.928 393.665
5775.88 405.028 407.07
5778.75 392.434 393.304
5781.62 381.479 394.238
5784.49 381.336 385.492
5787.36 403.016 400.71
5790.22 383.255 385.294
5793.09 386.827 385.44
5795.96 391.755 388.197
5798.83 378.312 381.329
5801.7 375.407 385.227
5804.57 401.311 388.974
5807.44 388.012 385.159
5810.3 390.41 389.003
5813.17 380.784 384.624
5816.04 392.818 394.2
5818.91 363.562 367.18
5821.77 382.089 379.424
5824.64 381.242 375.902
5827.51 394.134 390.292
5830.38 375.891 377.017
5833.24 389.252 384.103
5836.11 382.197 380.74
5838.98 374.862 375.522
5841.84 403.071 400.124
5844.71 382.495 384.452
5847.58 385.875 378.862
5850.44 364.868 362.762
5853.31 384.114 384.834
5856.18 380.784 384.595
5859.04 384.332 390.788
5861.91 372.135 373.543
5864.77 378.572 382.31
5867.64 371.907 370.133
5870.51 369.138 370.585
5873.37 382.193 379.041
5876.24 365.208 367.902
5879.1 368.367 368.896
5881.97 363.426 360.437
5884.83 364.23 365.169
5887.7 369.605 367.989
5890.56 375.635 372.065
5893.43 357.936 369.224
5896.29 364.943 364.079
5899.15 365.91 369.759
5902.02 363.447 369.066
5904.88 375.735 369.7
5907.75 369.754 370.108
5910.61 377.563 374.069
5913.48 352.676 354.106
5916.34 365.86 357.668
5919.2 365.3 362.987
5922.07 363.816 359.04
5924.93 345.901 353.93
5927.79 366.697 366.031
5930.66 359.299 363.3
5933.52 356.996 355.657
5936.38 358.528 354.94
5939.24 350.099 356.738
5942.11 353.254 351.343
5944.97 346.406 347.844
5947.83 356.315 357.662
5950.69 357.064 362.309
5953.56 367.19 367.578
5956.42 365.2 353.458
5959.28 344.445 352.034
5962.14 352.622 356.881
5965 346.496 340.791
5967.87 353.05 356.311
5970.73 365.24 360.078
5973.59 344.872 343.168
5976.45 344.449 343.261
5979.31 347.491 345.829
5982.17 355.728 356.878
5985.03 346.89 346.592
5987.89 351.532 347.146
5990.75 342.005 340.626
5993.61 365.131 359.289
5996.47 348.186 351.101
5999.33 344.631 351.44
6002.19 346.83 342.618
6005.05 353.112 350.995
6007.91 348.027 350.555
6010.77 341.69 346.649
6013.63 343.075 349.006
6016.49 339.114 344.764
6019.35 324.855 326.792
6022.21 326.942 327.926
6025.07 338.963 334.04
6027.93 339.173 335.733
6030.79 345.961 345.456
6033.65 350.294 340.52
6036.51 340.579 341.22
6039.36 325.604 331.143
6042.22 334.63 334.928
6045.08 338.725 339.049
6047.94 344.016 337.118
6050.8 330.621 333.771
6053.66 335.001 335.957
6056.51 338.735 336.857
6059.37 334.824 335.971
6062.23 345.739 338.974
6065.09 312.36 319.012
6067.94 324.981 328.821
6070.8 330.784 338.444
6073.66 325.085 326.063
6076.51 340.363 341.169
6079.37 329.36 324.59
6082.23 335.562 336.093
6085.08 336.471 329.453
6087.94 326.104 323.179
6090.8 319.3 323.409
6093.65 331.027 335.18
6096.51 328.052 330.177
6099.36 325.82 326.081
6102.22 328.067 325.281
6105.08 333.477 334.268
6107.93 341.318 328.032
6110.79 319.965 323.382
6113.64 322.269 323.997
6116.5 322.104 330.207
6119.35 331.048 331.673
6122.21 319.618 321.525
6125.06 323.909 319.695
6127.92 329.164 326.962
6130.77 320.929 322.768
6133.62 320.399 318.24
6136.48 315.133 315.055
6139.33 316.221 311.761
6142.19 322.367 323.009
6145.04 319.818 318.493
6147.89 315.479 309.453
6150.75 319.966 323.783
6153.6 312.923 319.976
6156.45 314.268 314.135
6159.31 331.304 330.158
6162.16 322.769 317.957
6165.01 312.609 318.573
6167.87 317.175 319.783
6170.72 312.857 313.413
6173.57 310.784 304.617
6176.42 307.736 303.796
6179.28 316.101 319.8
6182.13 313.903 320.306
6184.98 310.664 306.618
6187.83 322.161 321.22
6190.68 319.672 310.204
6193.53 320.463 320.215
6196.39 311.645 315.156
6199.24 311.294 326.644
6202.09 305.107 308.532
6204.94 312.702 306.391
6207.79 315.014 314.263
6210.64 302.757 303.952
6213.49 311.863 310.612
6216.34 311.852 309.67
6219.19 313.709 316.667
6222.04 299.487 306.403
6224.89 314.217 310.215
6227.74 311.133 311.915
6230.59 306.549 303.141
6233.44 296.353 293.449
6236.29 311.642 312.753
6239.14 302.305 305.747
6241.99 311.172 314.627
6244.84 298.566 294.026
6247.69 298.053 300.165
6250.54 294.083 289.493
6253.39 301.523 298.127
6256.23 303.043 303.507
6259.08 293.637 298.121
6261.93 304.071 301.056
6264.78 307.65 301.065
6267.63 303.096 298.623
6270.48 301.032 300.767
6273.32 289.943 290.458
6276.17 294.205 292.194
6279.02 283.123 282.38
6281.87 299.688 298.951
6284.71 282.387 283.753
6287.56 294.266 300.028
6290.41 295.26 292.095
6293.25 284.774 293.604
6296.1 290.661 292.503
6298.95 280.224 278.336
6301.79 286.248 295.167
6304.64 285.98 290.701
6307.49 289.821 290.204
6310.33 291.424 281.841
6313.18 288.346 288.879
6316.02 291.398 293.644
6318.87 280.528 282.54
6321.72 296.156 293.885
6324.56 296.83 292.571
6327.41 288.158 288.708
6330.25 287.679 287.698
6333.1 287.875 286.38
6335.94 284.202 286.415
6338.79 291.7 287.666
6341.63 286.336 286.016
6344.47 290.237 291.578
6347.32 289.138 288.599
6350.16 276.222 283.076
6353.01 283.499 281.211
6355.85 286.615 286.478
6358.69 288.618 286.392
6361.54 289.3 284.569
6364.38 284.131 282.638
6367.22 278.471 277.412
6370.07 281.903 279.509
6372.91 274.969 276.185
6375.75 272.66 271.73
6378.6 278.794 278.302
6381.44 295.67 292.843
6384.28 280.709 279.087
6387.12 267.065 268.739
6389.97 274.914 279.098
6392.81 270.436 272.007
6395.65 269.652 267.974
6398.49 275.356 271.85
6401.33 277.866 278.859
6404.17 279.25 279.537
6407.01 277.268 281.288
6409.86 266.558 274.389
6412.7 280.645 277.601
6415.54 276.183 277.163
6418.38 262.047 271.079
6421.22 269.803 271.552
6424.06 277.532 272.44
6426.9 263.763 266.065
6429.74 255.648 261.995
6432.58 269.544 267.073
6435.42 280.566 281.3
6438.26 273.957 269.46
6441.1 260.655 258.156
6443.94 266.818 268.249
6446.78 267.922 267.796
6449.62 262.831 262.534
6452.46 262.09 259.184
6455.29 251.956 253.297
6458.13 255.101 256.539
6460.97 256.528 257.938
6463.81 261.312 262.39
6466.65 260.606 254.681
6469.49 256.366 252.555
6472.32 250.128 247.184
6475.16 250.45 252.926
6478 253.607 244.493
6480.84 239.047 238.004
6483.67 248.249 247.006
6486.51 235.045 241.005
6489.35 250.495 248.169
6492.19 237.899 237.132
6495.02 235.035 240.994
6497.86 242.225 236.709
6500.7 236.77 245.15
6503.53 231.768 228.244
6506.37 235.746 233.187
6509.2 231.794 228.727
6512.04 218.872 214.37
6514.88 218.145 222.541
6517.71 212.317 213.16
6520.55 206.225 215.261
6523.38 216.45 219.515
6526.22 209.335 215.25
6529.05 209.15 209.596
6531.89 198.509 204.058
6534.72 183.219 190.719
6537.56 185.891 190.042
6540.39 197.181 198.353
6543.22 179.437 191.228
6546.06 179.804 177.056
6548.89 170.958 171.641
6551.73 180.123 176.472
6554.56 163.566 166.556
6557.39 148.334 157.241
6560.23 145.249 152.538
6563.06 148.437 147.766
6565.89 156.503 157.935
6568.73 158.194 166.062
6571.56 168.979 170.459
6574.39 175.055 167.966
6577.22 176.047 171.982
6580.06 175.518 176.485
6582.89 188.434 187.149
6585.72 184.33 180.714
6588.55 186.862 184.986
6591.38 196.908 193.926
6594.21 205.344 197.278
6597.05 200.807 202.374
6599.88 211.465 209.993
6602.71 201.907 205.037
6605.54 209.543 207.947
6608.37 216.061 211.575
6611.2 203.879 207.528
6614.03 207.351 203.74
6616.86 216.798 216.733
6619.69 213.221 208.36
6622.52 227.709 228.68
6625.35 223.73 219.013
6628.18 208.426 218.028
6631.01 220.335 225.035
6633.84 216.681 224.04
6636.67 226.571 224.324
6639.5 212.069 216.754
6642.33 228.465 228.194
6645.15 227.892 227.893
6647.98 222.961 227.699
6650.81 235.838 233.35
6653.64 219.878 220.082
6656.47 230.934 220.365
6659.3 230.676 226.878
6662.12 234.716 231.388
6664.95 242.474 240.265
6667.78 226.366 227.282
6670.61 243.264 238.469
6673.43 234.869 238.226
6676.26 220.973 223.32
6679.09 245.411 240.986
6681.91 228.854 232.987
6684.74 238.781 232.332
6687.57 233.23 232.439
6690.39 241.343 239.298
6693.22 244.345 239.881
6696.04 234.582 243.893
6698.87 243.577 245.094
6701.69 226.605 227.756
6704.52 238.587 244.643
6707.35 229.275 235.794
6710.17 230.803 233.058
6713 243.207 238.803
6715.82 237.927 235.921
6718.64 234.295 234.246
6721.47 233.129 234.637
6724.29 235.435 241.278
6727.12 235.655 232.805
6729.94 237.269 235.448
6732.76 227.227 234.543
6735.59 230.527 236.39
6738.41 238.773 239.538
6741.24 240.249 236.593
6744.06 231.698 233.798
6746.88 231.61 227.788
6749.7 238.288 237.324
6752.53 231.882 230.677
6755.35 226.059 228.136
6758.17 235.249 233.516
6760.99 234.517 228.559
6763.82 224.107 229.002
6766.64 231.266 229.475
6769.46 223.775 217.711
6772.28 236.694 235.24
6775.1 237.415 232.883
6777.92 229.653 233.373
6780.74 232.665 233.061
6783.56 233.299 230.422
6786.39 232.834 236.699
6789.21 221.888 221.807
6792.03 224.55 216.862
6794.85 219.239 222.805
6797.67 230.381 234.412
6800.49 217.295 220.559
6803.31 221.731 216.584
6806.13 217.796 219.905
6808.94 221.85 214.024
6811.76 237.567 237.194
6814.58 213.272 216.016
6817.4 219.849 219.637
6820.22 222.797 219.14
6823.04 224.188 216.075
6825.86 225.228 222.589
6828.67 223.555 212.719
6831.49 215.962 218.919
6834.31 236.952 232.326
6837.13 239.455 238.685
6839.95 225.193 234.001
6842.76 208.518 214.504
6845.58 219.696 220.05
6848.4 217.599 225.647
6851.21 210.724 211.083
6854.03 224.501 230.75
6856.85 216.038 220.48
6859.66 209.54 213.934
6862.48 188.043 191.917
6865.3 166.005 173.615
6868.11 162.39 170.177
6870.93 169.455 172.36
6873.74 191.073 181.552
6876.56 193.595 189.039
6879.37 198.012 196.646
6882.19 197.409 185.59
6885 195.213 187.709
6887.82 187.546 187.247
6890.63 195.778 196.237
6893.45 195.371 185.609
6896.26 196.659 194.927
6899.07 205.693 191.946
6901.89 200.368 198.154
6904.7 190.711 193.137
6907.51 202.435 202.011
6910.33 202.413 201.616
6913.14 221.33 208.011
6915.95 207.983 203.763
6918.77 205.304 205.318
6921.58 204.898 206.272
6924.39 210.665 205.863
6927.2 203.693 206.992
6930.02 215.897 206.685
6932.83 211.748 207.528
6935.64 200.553 200.925
6938.45 218.321 213.471
6941.26 201.949 196.546
6944.07 216.917 215.364
6946.88 207.12 210.751
6949.69 209.438 206.001
6952.5 198.111 203.957
6955.32 213.463 208.232
6958.13 198.551 207.93
6960.94 219.023 210.253
6963.75 208.25 208.51
6966.56 205.849 207.284
6969.36 202.603 208.141
6972.17 212.902 209.959
6974.98 210.109 205.203
6977.79 209.359 214.158
6980.6 201.23 201.458
6983.41 210.13 214.728
6986.22 208.579 207.411
6989.03 210.198 210.703
6991.83 220.47 213.328
6994.64 204.984 197.905
6997.45 214.943 211.955
7000.26 224.538 214.225
7003.07 197.184 196.325
7005.87 208.792 205.15
7008.68 206.727 205.635
7011.49 205.61 212.186
7014.29 207.97 209.435
7017.1 205.494 207.898
7019.91 192.659 190.233
7022.71 201.269 205.238
7025.52 208.422 202.183
7028.32 208.824 200.369
7031.13 209.159 213.253
7033.94 199.606 202.903
7036.74 204.105 199.375
7039.55 197.572 204.213
7042.35 205.684 213.719
7045.16 210.302 214.803
7047.96 202.666 202.46
7050.76 190.079 196.289
7053.57 204.007 205.758
7056.37 198.634 202.422
7059.18 193.159 192.788
7061.98 200.604 204.794
7064.78 198.757 208.237
7067.59 202.933 198.139
7070.39 185.175 192.618
7073.19 207.432 203.685
7075.99 203.341 203.886
7078.8 195.164 199
7081.6 198.565 197.996
7084.4 203.003 199.218
7087.2 199.76 188.952
7090.01 191.342 190.672
7092.81 202.561 196.612
7095.61 192.937 188.783
7098.41 192.104 192.827
7101.21 186.651 188.711
7104.01 213.546 205.323
7106.81 196.728 188.202
7109.61 190.667 196.514
7112.41 196.715 198.197
7115.21 194.159 194.814
7118.01 197.325 192.186
7120.81 201.854 200.406
7123.61 194.533 202.778
7126.41 199.573 202.023
7129.21 188.255 194.528
7132.01 202.593 204.401
7134.81 196.408 201.256
7137.61 192.668 184.055
7140.41 193.594 187.431
7143.2 196.184 195.603
7146 189.025 189.262
7148.8 203.811 204.432
7151.6 197.965 191.373
7154.39 185.141 189.908
7157.19 189.724 194.107
7159.99 184.85 185.551
7162.79 190.859 196.476
7165.58 191.091 189.927
7168.38 189.107 189.689
7171.18 182.122 183.192
7173.97 182.968 180.268
7176.77 184.686 184.713
7179.56 170.8 172.036
7182.36 177.997 178.396
7185.15 166.584 164.383
7187.95 169.876 173.398
7190.74 181.766 178.259
7193.54 176.456 178.944
7196.33 177.707 178.808
7199.13 171.944 176.109
7201.92 159.388 162.985
7204.72 184.359 183.311
7207.51 188.793 182.86
7210.3 187.907 182.375
7213.1 182.156 178.246
7215.89 186.409 179.477
7218.68 184.001 182.717
7221.48 174.204 176.069
7224.27 185.667 184.743
7227.06 183.735 184.357
7229.85 175.445 181.875
7232.65 174.075 173.974
7235.44 168.882 171.064
7238.23 172.133 172.3
7241.02 163.023 166.634
7243.81 181.253 181.95
7246.6 180.67 184.092
7249.39 169.138 174.846
7252.19 177.405 174.084
7254.98 174.866 173.809
7257.77 178.481 175.872
7260.56 177.93 174.963
7263.35 188.362 179.956
7266.14 176.048 176.381
7268.93 173.603 167.156
7271.71 172.658 172.713
7274.5 174.912 177.118
7277.29 173.037 174.343
7280.08 166.819 171.568
7282.87 169.542 171.887
7285.66 174.385 182.252
7288.45 172.196 173.886
7291.23 175.921 174.447
7294.02 169.575 168.326
7296.81 169.414 169.523
7299.6 172.418 180.143
7302.38 171.238 169.691
7305.17 172.132 183.141
7307.96 180.023 172.035
7310.74 172.419 168.872
7313.53 168.37 167.309
7316.32 179.558 181.661
7319.1 175.312 168.221
7321.89 172.462 171.42
7324.67 180.688 174.042
7327.46 182.248 179.91
7330.25 166.974 164.119
7333.03 187.344 174.592
7335.81 166.987 165.471
7338.6 177.92 181.041
7341.38 178.542 175.889
7344.17 158.684 166.578
7346.95 176.493 182.218
7349.74 167.271 168.852
7352.52 175.493 182.707
7355.3 170.861 175.384
7358.09 169.105 168.337
7360.87 177.722 180.71
7363.65 186.76 181.757
7366.43 172.58 175.647
7369.22 178.111 183.13
7372 171.759 168.699
7374.78 171.491 172.124
7377.56 168.314 168.014
7380.34 170.156 173.54
7383.12 172.292 179.151
7385.91 159.662 152.633
7388.69 164.816 162.067
7391.47 163.775 164.738
7394.25 175.181 173.317
7397.03 176.461 173.068
7399.81 172.204 164.509
7402.59 174.103 175.445
7405.37 171.94 174.814
7408.15 176.31 175.14
7410.93 175.204 174.078
7413.7 171.128 166.343
7416.48 175.873 169.835
7419.26 183.985 180.316
7422.04 164.876 167.409
7424.82 170.193 178.473
7427.6 165.995 169.438
7430.37 169.291 169.848
7433.15 162.512 160.823
7435.93 169.857 177.043
7438.71 164.259 167.549
7441.48 168.909 162.998
7444.26 160.556 161.999
7447.04 171.228 180.003
7449.81 175.211 162.812
7452.59 175.304 178.554
7455.36 173.639 169.618
7458.14 175.271 178.904
7460.92 164.43 163.449
7463.69 164.414 168.553
7466.47 170.13 165.515
7469.24 173.896 167.471
7472.02 160.555 166.794
7474.79 180.332 165.155
7477.56 156.05 164.604
7480.34 153.915 163.874
7483.11 163.02 166.514
7485.89 161.853 165.892
7488.66 164.093 162.102
7491.43 166.468 166.482
7494.2 159.03 163.579
7496.98 166.005 155.226
7499.75 170.311 173.599
7502.52 159.092 159.753
7505.29 166.327 165.036
7508.07 160.74 157.535
7510.84 163.541 163.94
7513.61 154.083 155.992
7516.38 150.856 150.836
7519.15 156.011 157.667
7521.92 157.186 146.879
7524.69 173.19 173.512
7527.46 165.195 152.548
7530.23 159.244 162.207
7533 146.429 147.35
7535.77 163.536 164.83
7538.54 167.471 158.686
7541.31 151.548 159.709
7544.08 139.556 144.084
7546.85 155.659 158.72
7549.62 150.217 150.075
7552.38 164.022 153.415
7555.15 145.206 153.693
7557.92 148.758 145.058
7560.69 152.647 162.478
7563.46 151.215 148.638
7566.22 154.962 152.81
7568.99 138.917 148.764
7571.76 159.234 155.596
7574.52 156.162 154.399
7577.29 154.873 156.222
7580.06 146.268 155.429
7582.82 150.215 150.705
7585.59 150.479 151.235
7588.35 124.353 123.291
7591.12 105.296 108.253
7593.88 89.6902 105.258
7596.65 63.9635 72.504
7599.41 60.2277 58.4118
7602.18 42.4227 49.242
7604.94 53.1421 54.8551
7607.71 61.5697 56.8278
7610.47 83.4911 75.3351
7613.23 104.788 95.7477
7616 110.721 106.464
7618.76 95.3505 97.3545
7621.52 88.3577 89.3259
7624.28 79.9217 76.3482
7627.05 77.4795 82.6804
7629.81 83.2071 82.7161
7632.57 78.9662 80.9591
7635.33 93.7025 94.0259
7638.09 98.0995 96.4726
7640.85 104.235 95.7541
7643.62 108.849 107.032
7646.38 105.84 108.536
7649.14 102.097 105.951
7651.9 119.572 117.189
7654.66 115.431 110.845
7657.42 117.438 115.023
7660.18 118.429 120.527
7662.94 123.552 120.463
7665.7 122.294 129.09
7668.45 119.285 115.007
7671.21 133.642 126.218
7673.97 127.749 126.063
7676.73 133.33 129.122
7679.49 138.113 120.892
7682.25 136.001 135.031
7685 140.754 127.196
7687.76 139.341 134.729
7690.52 137.058 138.417
7693.27 132.214 130.138
7696.03 137.103 136.037
7698.79 139.147 132.196
7701.54 146.427 143.029
7704.3 153.946 150.748
7707.06 147.719 139.429
7709.81 143.739 143.87
7712.57 126.833 132.948
7715.32 153.567 151.626
7718.08 150.534 150.695
7720.83 159.554 152.556
7723.58 143.848 150.818
7726.34 134.8 143.047
7729.09 138.787 132.568
7731.85 145.111 141.756
7734.6 159.076 152.955
7737.35 145.945 145.922
7740.11 140.419 140.697
7742.86 143.32 140.406
7745.61 140.93 148.014
7748.36 142.134 143.211
7751.12 137.796 138.021
7753.87 153.435 150.259
7756.62 137.968 137.723
7759.37 137.062 142.138
7762.12 150.071 144.541
7764.87 139.018 138.948
7767.62 138.782 145.876
7770.37 138.17 136.895
7773.12 142.251 135.587
7775.87 138.664 138.348
7778.62 147.244 144.371
7781.37 154.469 145.923
7784.12 147.034 149.949
7786.87 143.153 137.037
7789.62 152.646 154.711
7792.37 140.696 139.291
7795.11 155.699 162.411
7797.86 134.768 132.68
7800.61 141.925 154.215
7803.36 157.216 161.262
7806.11 140.937 155.061
7808.85 146.783 150.549
7811.6 146.157 147.009
7814.35 149.09 128.431
7817.09 141.901 145.728
7819.84 160.801 157.84
7822.58 145.573 148.152
7825.33 128.743 130.189
7828.07 143.91 138.509
7830.82 147.908 146.716
7833.56 142.34 143.289
7836.31 144.635 142.09
7839.05 134.83 137.618
7841.8 140.282 144.706
7844.54 145.597 143.054
7847.29 137.535 138.995
7850.03 136.876 135.689
7852.77 138.21 133.59
7855.51 137.794 152.169
7858.26 146.358 148.226
7861 135.999 131.447
7863.74 121.084 124.358
7866.48 134.723 129.285
7869.23 135.75 133.767
7871.97 137.487 127.817
7874.71 125.243 133.986
7877.45 138.802 141.035
7880.19 147.655 143.557
7882.93 133.713 144.335
7885.67 125.773 119.37
7888.41 129.848 132.714
7891.15 138.602 139.4
7893.89 140.879 145.176
7896.63 135.233 132.76
7899.37 143.695 141.778
7902.11 140.639 133.183
7904.84 146.371 135.931
7907.58 133.795 131.648
7910.32 140.501 122.734
7913.06 139.617 137.826
7915.8 147.783 144.189
7918.53 134.456 138.089
7921.27 142.003 142.298
7924.01 122.113 139.794
7926.74 126.138 133.332
7929.48 142.471 147.134
7932.22 122.923 129.792
7934.95 144.49 151.848
7937.69 140.916 137.487
7940.42 130.965 128.956
7943.16 120.478 124.65
7945.89 127.11 125.99
7948.63 116.996 120.695
7951.36 143.712 138.503
7954.09 146.381 148.084
7956.83 120.681 119.256
7959.56 143.556 132.67
7962.3 138.4 133.471
7965.03 138.785 140.44
7967.76 134.243 129.185
7970.49 134.002 139.045
7973.23 128.85 136.52
7975.96 133.489 133.202
7978.69 136.164 132.319
7981.42 132.535 136.384
7984.15 133.085 135.497
7986.88 121.871 115.901
7989.61 119.164 129.578
7992.34 139.046 134.835
7995.07 140.795 128.316
7997.8 125.711 135.436
8000.53 135.347 139.842
8003.26 126.619 117.803
8005.99 119.498 122.672
8008.72 127.477 122.342
8011.45 136.805 130.944
8014.18 130.173 147.316
8016.91 131.845 130.338
8019.63 127.49 122.248
8022.36 129.646 133.844
8025.09 140.273 138.653
8027.82 132.162 123.729
8030.54 123.071 127.394
8033.27 138.896 135.385
8036 132.647 139.226
8038.72 129.068 127.319
8041.45 121.316 110.921
8044.17 114.649 130.311
8046.9 128.76 128.329
8049.62 127.76 133.382
8052.35 136.64 129.661
8055.07 134.938 129.933
8057.8 128.687 124.532
8060.52 119.444 128.331
8063.24 128.847 121.936
8065.97 120.19 125.89
8068.69 117.789 121.223
8071.41 137.207 137.547
8074.14 124.797 118.443
8076.86 114.583 107.891
8079.58 128.174 125.856
8082.3 126.849 125.504
8085.02 130.209 124.608
8087.75 128.821 129.044
8090.47 133.63 125.304
8093.19 137.085 137.598
8095.91 124.722 126.734
8098.63 135.39 129.568
8101.35 117.372 132.703
8104.07 125.086 127.873
8106.79 123.285 135.448
8109.51 117.127 124.569
8112.23 113.889 120.817
8114.94 113.775 120.505
8117.66 123.203 122.293
8120.38 113.264 113.174
8123.1 114.459 114.77
8125.82 110.141 100.005
8128.53 125.729 121.912
8131.25 130.569 133.285
8133.97 127.444 126.881
8136.68 115.318 117.118
8139.4 121.779 121.369
8142.12 120.988 124.439
8144.83 123.921 122.935
8147.55 111.292 108.427
8150.26 123.956 113.344
8152.98 122.627 112.328
8155.69 119.054 116.247
8158.41 96.4316 105.832
8161.12 101.607 105.069
8163.83 115.199 109.43
8166.55 101.566 99.5349
8169.26 119.969 112.212
8171.97 117.022 124.168
8174.69 121.797 122.608
8177.4 104.256 105.62
8180.11 126.792 120.4
8182.82 121.668 132.014
8185.53 126.488 126.421
8188.25 115.956 110.854
8190.96 111.456 108.575
8193.67 117.556 118.361
8196.38 110.139 104.32
8199.09 127.329 112.275
8201.8 108.469 125.799
8204.51 110.405 108.112
8207.22 119.707 135.299
8209.93 120.212 118.182
8212.64 134.432 132.497
8215.34 116.138 115.272
8218.05 108.293 109.88
8220.76 101.382 109.612
8223.47 99.9565 94.4478
8226.18 103.142 103.836
8228.88 116.737 100.689
8231.59 95.6423 117.453
8234.3 122.974 115.798
8237 114.034 118.44
8239.71 113.341 113.334
8242.42 116.956 118.239
8245.12 104.25 116.439
8247.83 114.651 101.432
8250.53 124.565 115.386
8253.24 105.064 119.767
8255.94 118.875 119.239
8258.64 124.399 113.59
8261.35 113.375 131.101
8264.05 113.752 113.566
8266.76 113.659 110.283
8269.46 116.459 107.579
8272.16 116.609 119.37
8274.86 111.722 108.172
8277.57 106.548 105.375
8280.27 113.06 105.767
8282.97 104.602 108.909
8285.67 110.838 110.27
8288.37 114.037 96.0241
8291.07 120.462 115.358
8293.77 114.276 121.455
8296.47 116.18 128.693
8299.17 109.189 107.298
8301.87 110.842 111.668
8304.57 110.418 109.436
8307.27 98.397 104.332
8309.97 113.336 109.025
8312.67 108.058 111.127
8315.37 105.708 106.312
8318.06 121.001 115.208
8320.76 97.4416 107.027
8323.46 120.403 125.434
8326.16 104.313 103.177
8328.85 110.846 109.787
8331.55 105.749 111.893
8334.25 109.353 101.902
8336.94 114.379 120.387
8339.64 119.147 122.332
8342.33 115.419 120.697
8345.03 112.607 108.462
8347.72 103.902 83.3056
8350.42 107.679 99.1861
8353.11 121.902 123.827
8355.81 105.83 112.369
8358.5 118.836 113.838
8361.19 117.096 97.6579
8363.89 112.088 112.548
8366.58 116.104 114.536
8369.27 101.038 114.441
8371.96 100.332 111.346
8374.65 127.492 135.666
8377.35 104.604 108.847
8380.04 105.086 112.446
8382.73 108.381 116.985
8385.42 119.131 125.632
8388.11 107.235 85.2242
8390.8 116.88 119.882
8393.49 106.519 115.062
8396.18 107.152 94.0829
8398.87 115.15 111.604
8401.56 108.631 115.416
8404.25 106.938 89.4504
8406.93 106.548 124.771
8409.62 100.058 97.6398
8412.31 105.729 103.829
8415 115.103 126.854
8417.69 107.832 106.372
8420.37 122.21 117.579
8423.06 118.146 119.374
8425.74 112.689 94.3974
8428.43 119.699 139.996
8431.12 108.878 101.283
8433.8 103.359 77.0761
8436.49 104.909 105.353
8439.17 95.6407 95.5146
8441.86 100.307 111.057
8444.54 112.409 109.929
8447.22 105.939 117.922
8449.91 109.795 102.982
8452.59 105.043 107.334
8455.27 104.553 89.1785
8457.96 98.4637 102.96
8460.64 100.128 113.997
8463.32 99.2555 105.439
8466 105.341 120.135
8468.68 109.565 97.9986
8471.37 113.372 116.023
8474.05 101.169 100.133
8476.73 105.87 103.036
8479.41 119.654 110.377
8482.09 98.8491 104.509
8484.77 107.016 93.2543
8487.45 102.986 110.112
8490.13 110.977 107.844
8492.8 101.379 105.709
8495.48 103.987 105.886
8498.16 105.633 104.967
8500.84 106.98 120.737
8503.52 116.007 121.62
8506.19 97.8499 85.8031
8508.87 113.854 105.97
8511.55 109.885 99.0811
8514.22 103.631 111.04
8516.9 96.9016 104.45
8519.58 112.052 113.018
8522.25 115.328 125.467
8524.93 109.891 104.444
8527.6 116.269 112.665
8530.28 100.8 89.9146
8532.95 94.1023 99.3516
8535.62 91.4725 102.25
8538.3 108.83 92.5519
8540.97 97.515 90.168
8543.64 90.1359 102.661
8546.32 83.639 99.3607
8548.99 98.358 118.739
8551.66 117.636 105.257
8554.33 103.341 89.3394
8557 103.843 90.4376
8559.67 90.2696 87.797
8562.35 99.8258 105.496
8565.02 108.638 121.081
8567.69 96.3026 104.528
8570.36 94.8734 94.9076
8573.03 111.006 112.745
8575.7 110.107 94.9605
8578.36 112.453 116.329
8581.03 103.7 97.6766
8583.7 109.422 88.7446
8586.37 110.675 87.2179
8589.04 99.4122 108.792
8591.7 95.717 97.9664
8594.37 111.194 121.899
8597.04 89.8724 98.6624
8599.7 91.6979 104.401
8602.37 111.843 105.616
8605.04 89.2733 106.799
8607.7 93.4121 86.403
8610.37 110.694 114.63
8613.03 102.951 85.2389
8615.7 94.2068 86.5322
8618.36 98.9278 91.2914
8621.02 108.186 118.97
8623.69 91.5153 95.1434
8626.35 100.429 95.0145
8629.01 101.857 98.099
8631.68 108.615 113.218
8634.34 90.2179 94.0756
8637 111.715 127.885
8639.66 111.518 95.4016
8642.32 92.8769 97.3515
8644.99 99.8856 85.7533
8647.65 93.8707 118.927
8650.31 99.7215 104.702
8652.97 95.278 106.189
8655.63 101.26 110.64
8658.29 97.0212 94.6144
8660.94 100.736 93.0733
8663.6 112.172 99.7198
8666.26 91.6152 115.824
8668.92 96.0607 81.5836
8671.58 96.6816 103.97
8674.24 101.511 77.5782
8676.89 91.527 77.5885
8679.55 85.791 79.0622
8682.21 108.872 113.296
8684.86 107.133 93.6603
8687.52 95.599 101.325
8690.17 89.5532 127.003
8692.83 106.381 90.1185
8695.48 95.8407 70.5668
8698.14 97.1551 107.213
8700.79 101.834 97.1319
8703.45 91.0662 88.9123
8706.1 105.284 124.712
8708.75 101.813 107.293
8711.41 93.6733 110.482
8714.06 88.8662 99.2039
8716.71 90.2695 73.033
8719.36 90.9747 77.2711
8722.02 102.765 95.3513
8724.67 105.551 109.373
8727.32 108.076 116.103
8729.97 96.8109 101.914
8732.62 99.9332 107.576
8735.27 104.51 92.2807
8737.92 101.069 112.291
8740.57 98.4964 95.2466
8743.22 90.2622 74.2079
8745.87 91.528 81.4045
8748.51 88.7818 76.0432
8751.16 84.6377 103.501
8753.81 85.2652 82.0727
8756.46 89.8602 93.8009
8759.1 94.2278 102.848
8761.75 88.9484 92.1681
8764.4 93.1882 76.8536
8767.04 90.5251 105.018
8769.69 97.0781 108.768
8772.33 96.374 105.323
8774.98 90.0064 80.4158
8777.62 87.2781 78.1364
8780.27 98.1657 106.109
8782.91 91.361 82.3555
8785.56 98.9363 89.8466
8788.2 87.6384 71.7553
8790.84 84.5827 79.274
8793.49 91.0399 108.212
8796.13 90.2351 98.9828
8798.77 103.248 116.801
8801.41 98.2829 90.5923
8804.05 94.4742 89.0653
8806.69 92.0019 83.0928
8809.34 97.7515 101.034
8811.98 83.1405 87.293
8814.62 80.4117 91.6047
8817.26 95.8881 95.3763
8819.89 90.0857 95.6224
8822.53 87.4326 88.3394
8825.17 98.4251 105.13
8827.81 102.876 93.3257
8830.45 94.3259 98.9824
8833.09 93.4719 86.479
8835.72 92.6732 99.3833
8838.36 87.3032 94.7612
8841 93.6637 87.6318
8843.63 85.2483 86.7559
8846.27 92.7107 92.456
8848.91 104.804 83.0735
8851.54 84.3504 102.78
8854.18 86.461 57.3495
8856.81 88.4231 61.4112
8859.44 100.343 96.7182
8862.08 79.7242 99.156
8864.71 89.8386 83.404
8867.34 95.7459 66.0026
8869.98 75.3771 86.8944
8872.61 75.2189 87.0551
8875.24 86.2099 89.1566
8877.87 83.5755 82.0589
8880.51 82.693 108.931
8883.14 96.8297 91.6511
8885.77 83.1932 101.986
8888.4 93.8814 114.672
8891.03 82.8625 93.9714
8893.66 92.1818 75.2404
8896.29 88.0531 68.1197
8898.92 90.851 104.967
8901.55 78.4727 82.0583
8904.17 84.8484 75.9644
8906.8 91.6617 102.246
8909.43 87.2623 70.7338
8912.06 92.7631 111.994
8914.68 79.583 97.3982
8917.31 86.7672 122.948
8919.94 109.05 127.436
8922.56 83.8493 77.2219
8925.19 89.9968 45.2995
8927.81 79.9707 35.8215
8930.44 82.9875 107.573
8933.06 96.2513 51.4226
8935.69 89.6455 48.78
8938.31 98.0523 88.9576
8940.93 77.6678 71.3023
8943.56 91.0917 116.025
8946.18 67.8074 94.5584
8948.8 79.4664 71.7113
8951.43 71.2501 94.105
8954.05 92.0551 53.8684
8956.67 89.6197 132.86
8959.29 78.8466 149.519
